Data from test_V78500241_158.txt Node
Date: Fri Mar 25 15:42:53 CST 2022
User: usil
Spectrometer: V785-0024
Trigger mode: 0
Integration Time (sec): 4.000000E-1
Scans to average: 1
Nonlinearity correction enabled: false
Boxcar width: 0
Storing dark spectrum: false
XAxis mode: Wavelengths
Number of Pixels in Spectrum: 1024
>>>>>Begin Spectral Data<<<<<
801.071	29490
801.214	29349
801.356	29147
801.499	29083
801.641	28968
801.783	28866
801.926	29014
802.068	29094
802.211	28965
802.353	28866
802.496	28546
802.638	28481
802.78	28440
802.923	28489
803.065	28489
803.208	28531
803.35	28519
803.492	28717
803.635	28599
803.777	28596
803.919	28653
804.061	29029
804.204	28641
804.346	28535
804.488	28645
804.63	28603
804.773	28603
804.915	28580
805.057	28733
805.199	28641
805.341	28626
805.483	28687
805.626	28649
805.768	28672
805.91	28694
806.052	28691
806.194	28729
806.336	28987
806.478	28820
806.62	28653
806.762	28961
806.904	28984
807.046	29284
807.188	29086
807.33	29273
807.472	29223
807.614	29147
807.756	29083
807.898	28984
808.04	28968
808.182	28873
808.324	28934
808.465	28972
808.607	29003
808.749	29303
808.891	29356
809.033	29562
809.174	29387
809.316	29349
809.458	29353
809.6	29391
809.741	29452
809.883	29307
810.025	29570
810.166	29459
810.308	29543
810.45	29345
810.591	29493
810.733	29227
810.875	29227
811.016	29132
811.158	29258
811.299	29452
811.441	29433
811.582	29395
811.724	29208
811.865	29197
812.007	29162
812.148	29296
812.29	29204
812.431	29512
812.573	29592
812.714	29570
812.855	29699
812.997	29859
813.138	29931
813.279	29786
813.421	29653
813.562	29729
813.703	29623
813.845	29474
813.986	29204
814.127	29010
814.268	28923
814.41	28755
814.551	28847
814.692	29006
814.833	28763
814.974	28843
815.115	28873
815.256	28729
815.397	28645
815.539	28752
815.68	28489
815.821	28527
815.962	28478
816.103	28569
816.244	28413
816.385	28440
816.526	28257
816.666	28135
816.807	27914
816.948	27975
817.089	28135
817.23	27972
817.371	28059
817.512	27903
817.653	27983
817.793	28063
817.934	28029
818.075	28002
818.216	27781
818.356	28051
818.497	27873
818.638	27736
818.778	27675
818.919	27823
819.06	27812
819.2	27987
819.341	27964
819.481	27850
819.622	28093
819.762	28234
819.903	28158
820.043	28040
820.184	28082
820.324	28078
820.465	28101
820.605	27998
820.746	28063
820.886	27800
821.026	27979
821.167	27903
821.307	28036
821.447	27953
821.588	27838
821.728	27675
821.868	27492
822.008	27283
822.149	27386
822.289	27317
822.429	27005
822.569	27001
822.709	26994
822.849	26792
822.99	26921
823.13	26826
823.27	26762
823.41	26541
823.55	26476
823.69	26495
823.83	26575
823.97	26640
824.11	26374
824.25	26332
824.389	26431
824.529	26370
824.669	26317
824.809	26541
824.949	26503
825.089	26476
825.228	26404
825.368	26244
825.508	26282
825.648	26248
825.787	26313
825.927	26206
826.067	26202
826.206	26244
826.346	26347
826.485	26229
826.625	26161
826.765	26267
826.904	26248
827.044	25947
827.183	25997
827.323	25917
827.462	25830
827.601	25746
827.741	25788
827.88	25841
828.02	25742
828.159	25746
828.298	25898
828.437	25894
828.577	25788
828.716	25947
828.855	25670
828.994	25632
829.134	25567
829.273	25666
829.412	25464
829.551	25339
829.69	25388
829.829	25533
829.968	25655
830.107	25582
830.246	25388
830.385	25491
830.524	25411
830.663	25312
830.802	25194
830.941	25133
831.08	25027
831.219	25164
831.357	25152
831.496	25164
831.635	24958
831.774	24909
831.913	25015
832.051	24844
832.19	24867
832.329	24844
832.467	24696
832.606	24646
832.744	24669
832.883	24700
833.022	24692
833.16	24612
833.299	24620
833.437	24753
833.576	24802
833.714	24703
833.852	24867
833.991	24661
834.129	24863
834.267	24859
834.406	24779
834.544	24722
834.682	24532
834.821	24604
834.959	24783
835.097	24646
835.235	24661
835.373	24597
835.511	24566
835.65	24612
835.788	24452
835.926	24357
836.064	24353
836.202	24464
836.34	24540
836.478	24563
836.615	24407
836.753	24502
836.891	24448
837.029	24585
837.167	24407
837.305	24334
837.443	24258
837.58	24296
837.718	24441
837.856	24270
837.993	24178
838.131	24273
838.269	24148
838.406	24338
838.544	24171
838.681	23935
838.819	23870
838.956	23756
839.094	23817
839.231	23771
839.369	23935
839.506	24129
839.643	23980
839.781	23764
839.918	23710
840.055	23840
840.193	23684
840.33	23657
840.467	23661
840.604	23695
840.742	23824
840.879	23417
841.016	23490
841.153	23589
841.29	23611
841.427	23551
841.564	23695
841.701	23509
841.838	23566
841.975	23566
842.112	23592
842.249	23455
842.385	23429
842.522	23600
842.659	23467
842.796	23296
842.933	23353
843.069	23254
843.206	23193
843.343	23307
843.479	23383
843.616	23235
843.752	23124
843.889	23121
844.025	23273
844.162	22949
844.298	23083
844.435	23109
844.571	23197
844.708	23037
844.844	23136
844.98	23223
845.117	23136
845.253	22961
845.389	22915
845.525	23086
845.661	22938
845.798	22771
845.934	22801
846.07	22615
846.206	22748
846.342	22904
846.478	22713
846.614	22580
846.75	22344
846.886	22379
847.022	22580
847.158	22493
847.294	22634
847.429	22557
847.565	22451
847.701	22713
847.837	22428
847.972	22162
848.108	22257
848.244	22265
848.379	22082
848.515	22013
848.65	21930
848.786	22063
848.921	22040
849.057	22128
849.192	22120
849.328	22109
849.463	22032
849.598	21975
849.734	21979
849.869	21899
850.004	21755
850.14	21915
850.275	21876
850.41	21690
850.545	21652
850.68	21713
850.815	21842
850.95	21861
851.085	21884
851.22	21850
851.355	21671
851.49	21610
851.625	21686
851.76	21743
851.895	21614
852.03	21549
852.165	21728
852.299	21663
852.434	21732
852.569	21846
852.703	21736
852.838	21778
852.973	21972
853.107	21895
853.242	21618
853.376	21557
853.511	21488
853.645	21515
853.78	21641
853.914	21568
854.048	21393
854.183	21675
854.317	21553
854.451	21690
854.585	21587
854.72	21447
854.854	21728
854.988	21412
855.122	21492
855.256	21291
855.39	21545
855.524	21641
855.658	21583
855.792	21515
855.926	21614
856.06	21561
856.194	21694
856.327	21538
856.461	21466
856.595	21485
856.729	21606
856.862	21690
856.996	21557
857.13	21625
857.263	21648
857.397	21595
857.53	21408
857.664	21473
857.797	21595
857.931	21724
858.064	21439
858.197	21660
858.331	21450
858.464	21374
858.597	21348
858.731	21477
858.864	21412
858.997	21431
859.13	21500
859.263	21428
859.396	21606
859.529	21492
859.662	21287
859.795	21447
859.928	21481
860.061	21587
860.194	21698
860.327	21443
860.46	21405
860.592	21667
860.725	21469
860.858	21542
860.99	21466
861.123	21370
861.256	21386
861.388	21439
861.521	21941
861.653	21370
861.786	21302
861.918	21340
862.05	21462
862.183	21462
862.315	21450
862.447	21603
862.58	21401
862.712	21207
862.844	21199
862.976	21233
863.108	21241
863.24	21580
863.372	21123
863.504	21188
863.636	21176
863.768	21336
863.9	21161
864.032	21036
864.164	21096
864.296	21176
864.428	21104
864.559	21211
864.691	21214
864.823	21135
864.954	21062
865.086	21199
865.217	21157
865.349	20986
865.48	21058
865.612	21112
865.743	21123
865.875	21001
866.006	21066
866.137	20979
866.269	21051
866.4	20994
866.531	20967
866.662	21005
866.793	21119
866.924	20826
867.055	21032
867.186	21001
867.317	20872
867.448	20834
867.579	20956
867.71	21001
867.841	20796
867.972	20948
868.103	21009
868.233	20998
868.364	20990
868.495	21135
868.625	21135
868.756	21291
868.886	21218
869.017	21188
869.147	21336
869.278	21344
869.408	21336
869.539	21146
869.669	21241
869.799	21291
869.929	21393
870.06	21378
870.19	21504
870.32	21363
870.45	21454
870.58	21679
870.71	21762
870.84	21774
870.97	21610
871.1	21587
871.23	21766
871.36	21812
871.489	21705
871.619	21755
871.749	21778
871.879	21854
872.008	21903
872.138	21739
872.267	21800
872.397	21709
872.526	21507
872.656	21606
872.785	21599
872.915	21816
873.044	21854
873.173	21789
873.303	21892
873.432	21892
873.561	21880
873.69	21778
873.819	21926
873.948	21880
874.077	21812
874.206	21720
874.335	21717
874.464	21994
874.593	22105
874.722	21972
874.851	22143
874.979	22192
875.108	21983
875.237	22143
875.365	22074
875.494	22032
875.623	22105
875.751	21987
875.88	22051
876.008	22322
876.136	22249
876.265	22394
876.393	22497
876.521	22580
876.65	22653
876.778	22512
876.906	22478
877.034	22314
877.162	22329
877.29	22443
877.418	22360
877.546	22447
877.674	22314
877.802	22417
877.93	22367
878.058	22375
878.185	22295
878.313	22333
878.441	22318
878.568	22284
878.696	22318
878.824	22470
878.951	22436
879.079	22557
879.206	22759
879.333	22565
879.461	22535
879.588	22516
879.715	22637
879.842	22634
879.97	22402
880.097	22299
880.224	22207
880.351	22215
880.478	22337
880.605	22280
880.732	22249
880.859	22523
880.986	22139
881.112	22238
881.239	22158
881.366	21934
881.493	21831
881.619	21827
881.746	21793
881.872	21819
881.999	21720
882.125	21747
882.252	21907
882.378	21762
882.505	22017
882.631	21785
882.757	21500
882.883	21652
883.01	21561
883.136	21534
883.262	21466
883.388	21249
883.514	21568
883.64	21515
883.766	21355
883.892	21313
884.018	21298
884.143	21500
884.269	21542
884.395	21230
884.52	21226
884.646	21169
884.772	21188
884.897	21108
885.023	21150
885.148	21268
885.274	21336
885.399	21275
885.524	21245
885.65	21199
885.775	21192
885.9	21062
886.025	21199
886.15	21203
886.275	21077
886.4	20948
886.525	21146
886.65	21077
886.775	21055
886.9	21142
887.025	21351
887.149	21180
887.274	20952
887.399	20777
887.523	20910
887.648	20807
887.773	20849
887.897	21028
888.021	20845
888.146	20902
888.27	20967
888.395	20937
888.519	20933
888.643	20941
888.767	20800
888.891	20785
889.015	20625
889.139	20689
889.263	20670
889.387	20815
889.511	20830
889.635	20781
889.759	20644
889.883	20583
890.006	20678
890.13	20788
890.254	20609
890.377	20537
890.501	20518
890.624	20427
890.748	20412
890.871	20305
890.995	20366
891.118	20218
891.241	20263
891.364	20233
891.488	20347
891.611	20221
891.734	20225
891.857	20286
891.98	20142
892.103	20317
892.226	20252
892.349	20187
892.471	20138
892.594	20218
892.717	20096
892.839	20111
892.962	19982
893.085	20145
893.207	20221
893.33	20107
893.452	20043
893.575	20122
893.697	20157
893.819	20362
893.941	20275
894.064	20370
894.186	20043
894.308	20111
894.43	20214
894.552	20358
894.674	20267
894.796	20145
894.918	19997
895.04	20168
895.161	20301
895.283	20168
895.405	20092
895.526	20122
895.648	20084
895.769	20149
895.891	20248
896.012	20305
896.134	20256
896.255	20142
896.376	20271
896.498	20237
896.619	20263
896.74	20183
896.861	20317
896.982	20476
897.103	20708
897.224	20385
897.345	20454
897.466	20389
897.587	20389
897.708	20503
897.828	20461
897.949	20393
898.07	20195
898.19	20324
898.311	20473
898.431	20252
898.552	20366
898.672	20434
898.792	20526
898.913	20351
899.033	20195
899.153	20161
899.273	20134
899.393	20039
899.513	20130
899.633	20077
899.753	20073
899.873	20039
899.993	20046
900.113	20035
900.232	20142
900.352	19974
900.472	19978
900.591	19932
900.711	19921
900.83	19811
900.95	19982
901.069	19894
901.189	19845
901.308	19533
901.427	19415
901.546	19438
901.665	19426
901.784	19468
901.904	19198
902.023	19274
902.141	19012
902.26	19088
902.379	19129
902.498	18871
902.617	18859
902.735	18993
902.854	18951
902.973	18871
903.091	18620
903.21	18597
903.328	18623
903.446	18506
903.565	18467
903.683	18380
903.801	18308
903.919	18350
904.038	18437
904.156	18201
904.274	18357
904.392	18201
904.51	18057
904.627	18144
904.745	18315
904.863	18239
904.981	18053
905.098	17771
905.216	17889
905.334	17904
905.451	17878
905.569	17843
905.686	17832
905.803	17783
905.921	17630
906.038	17733
906.155	17680
906.272	17532
906.389	17600
906.506	17322
906.623	17311
906.74	17383
906.857	17265
906.974	17258
907.091	17368
907.208	17566
907.324	17318
907.441	17299
907.557	17064
907.674	17033
907.79	17025
907.907	16953
908.023	17166
908.139	17075
908.256	16892
908.372	16850
908.488	16927
908.604	16850
908.72	16752
908.836	16656
908.952	16733
909.068	16759
909.184	16782
909.3	16607
909.415	16805
909.531	16729
909.647	16478
909.762	16447
909.878	16459
909.993	16478
910.108	16348
910.224	16424
910.339	16348
910.454	16318
910.57	16185
910.685	16162
910.8	16405
910.915	16390
911.03	16158
911.145	16139
911.259	16048
911.374	15998
911.489	15895
911.604	15922
911.718	15641
911.833	15759
911.947	15667
912.062	15580
912.176	15739
912.291	15766
912.405	15755
912.519	15953
912.633	15895
912.748	15732
912.862	15717
912.976	15587
913.09	15473
913.204	15496
913.318	15496
913.431	15606
913.545	15561
913.659	15641
913.772	15545
913.886	15389
914	15226
914.113	15389
914.226	15469
914.34	15458
914.453	15237
914.566	15325
914.68	15222
914.793	15192
914.906	15032
915.019	15005
915.132	14914
915.245	14967
915.358	15024
915.47	15055
915.583	14956
915.696	14937
915.809	15017
915.921	15116
916.034	14899
916.146	14777
916.259	14967
916.371	15009
916.483	14925
916.595	14754
916.708	14838
916.82	14796
916.932	14731
917.044	14823
917.156	14705
917.268	14537
917.38	14644
917.491	14545
917.603	14705
917.715	14697
917.826	14640
917.938	14632
918.049	14480
918.161	14610
918.272	14667
918.384	14583
918.495	14476
918.606	14469
918.717	14252
918.828	14377
918.939	14442
919.05	14328
919.161	14298
919.272	14149
919.383	14145
919.494	14343
919.604	14568
919.715	14457
919.826	14290
919.936	14218
920.047	14431
920.157	14294
920.267	14499
920.378	14301
920.488	14244
920.598	14385
920.708	14663
920.818	14377
920.928	14442
921.038	14484
921.148	14492
921.258	14301
921.368	14164
921.477	14111
921.587	14016
921.697	13928
921.806	14081
921.916	13875
922.025	13693
922.134	13597
922.244	13780
922.353	13788
922.462	13506
922.571	13506
922.68	13297
922.789	13327
922.898	13270
923.007	13187
923.116	13312
923.224	13304
923.333	13270
923.442	13259
923.55	13171
923.659	13168
923.767	13228
923.876	13057
923.984	13145
924.092	13031
924.201	13095
924.309	13053
924.417	13065
924.525	13042
924.633	13012
924.741	13757
924.849	12856
924.956	12890
925.064	12817
925.172	12741
925.279	12722
925.387	12722
925.494	12726
925.602	12817
925.709	12760
925.816	12589
925.924	12681
926.031	12829
926.138	12677
926.245	12757
926.352	12631
926.459	12703
926.566	12776
926.673	12566
926.779	12509
926.886	12570
926.993	12422
927.099	12311
927.206	12277
927.312	12292
927.419	12296
927.525	12289
927.631	12311
927.737	12155
927.843	12159
927.95	12091
928.056	12072
928.162	12110
928.267	12194
928.373	12741
928.479	12178
928.585	12045
928.69	12102
928.796	12114
928.901	12060
929.007	11866
929.112	12041
929.218	12007
929.323	11843
929.428	11855
929.533	12030
929.638	11790
929.743	11882
929.848	11836
929.953	11824
930.058	11733
930.163	11467
930.267	11535
930.372	11688
930.477	11501
930.581	11737
930.685	11638
930.79	11398
930.894	11448
930.998	11345
931.103	11528
931.207	11185
931.311	11147
931.415	11022
931.519	10873
931.623	10805
