Data from test_V78500241_2922.txt Node
Date: Fri Mar 25 16:02:02 CST 2022
User: usil
Spectrometer: V785-0024
Trigger mode: 0
Integration Time (sec): 4.000000E-1
Scans to average: 1
Nonlinearity correction enabled: false
Boxcar width: 0
Storing dark spectrum: false
XAxis mode: Wavelengths
Number of Pixels in Spectrum: 1024
>>>>>Begin Spectral Data<<<<<
801.071	28816
801.214	28729
801.356	28519
801.499	28474
801.641	28303
801.783	28322
801.926	28466
802.068	28405
802.211	28318
802.353	28360
802.496	28051
802.638	28188
802.78	28109
802.923	27922
803.065	27789
803.208	28032
803.35	28154
803.492	28173
803.635	28207
803.777	28207
803.919	28360
804.061	28577
804.204	28424
804.346	28303
804.488	28154
804.63	28276
804.773	28135
804.915	28303
805.057	28413
805.199	28318
805.341	28352
805.483	28363
805.626	28554
805.768	28367
805.91	28390
806.052	28535
806.194	28455
806.336	28459
806.478	28489
806.62	28337
806.762	28710
806.904	28828
807.046	29006
807.188	28778
807.33	28740
807.472	29033
807.614	28831
807.756	28968
807.898	28736
808.04	28748
808.182	28809
808.324	28649
808.465	28877
808.607	29098
808.749	29197
808.891	29326
809.033	29330
809.174	29143
809.316	29185
809.458	29292
809.6	29098
809.741	29250
809.883	29303
810.025	29554
810.166	29364
810.308	29360
810.45	29334
810.591	29334
810.733	29200
810.875	29223
811.016	29090
811.158	29231
811.299	29212
811.441	29372
811.582	29414
811.724	29159
811.865	29212
812.007	29174
812.148	29242
812.29	29143
812.431	29315
812.573	29364
812.714	29429
812.855	29611
812.997	29748
813.138	29950
813.279	29897
813.421	29722
813.562	29646
813.703	29573
813.845	29395
813.986	29132
814.127	29033
814.268	28915
814.41	28809
814.551	28858
814.692	28942
814.833	28888
814.974	28793
815.115	28923
815.256	28854
815.397	28801
815.539	28816
815.68	28740
815.821	28504
815.962	28596
816.103	28672
816.244	28557
816.385	28466
816.526	28436
816.666	28303
816.807	28120
816.948	28295
817.089	28257
817.23	28207
817.371	28166
817.512	28185
817.653	28223
817.793	28116
817.934	28192
818.075	28303
818.216	28086
818.356	28105
818.497	28200
818.638	27960
818.778	27953
818.919	28093
819.06	28044
819.2	28154
819.341	28196
819.481	28185
819.622	28318
819.762	28447
819.903	28527
820.043	28421
820.184	28478
820.324	28390
820.465	28363
820.605	28394
820.746	28333
820.886	28223
821.026	28341
821.167	28363
821.307	28371
821.447	28196
821.588	27991
821.728	27983
821.868	27831
822.008	27823
822.149	27701
822.289	27656
822.429	27492
822.569	27378
822.709	27306
822.849	27272
822.99	27169
823.13	27154
823.27	27058
823.41	27123
823.55	26910
823.69	27112
823.83	27112
823.97	27036
824.11	26925
824.25	26746
824.389	26864
824.529	27051
824.669	26838
824.809	27024
824.949	26887
825.089	27024
825.228	26849
825.368	26655
825.508	26807
825.648	26849
825.787	26834
825.927	26857
826.067	26731
826.206	26689
826.346	26967
826.485	26826
826.625	26807
826.765	26807
826.904	26853
827.044	26423
827.183	26541
827.323	26442
827.462	26511
827.601	26423
827.741	26629
827.88	26480
828.02	26355
828.159	26317
828.298	26412
828.437	26663
828.577	26370
828.716	26575
828.855	26290
828.994	26145
829.134	26119
829.273	26088
829.412	26206
829.551	26229
829.69	26225
829.829	26107
829.968	26153
830.107	26259
830.246	26328
830.385	26210
830.524	26062
830.663	25986
830.802	25849
830.941	25837
831.08	25719
831.219	25906
831.357	25966
831.496	25970
831.635	25731
831.774	25727
831.913	25590
832.051	25658
832.19	25468
832.329	25586
832.467	25377
832.606	25365
832.744	25289
832.883	25479
833.022	25388
833.16	25388
833.299	25441
833.437	25666
833.576	25624
833.714	25460
833.852	25552
833.991	25616
834.129	25594
834.267	25628
834.406	25544
834.544	25552
834.682	25548
834.821	25476
834.959	25723
835.097	25407
835.235	25521
835.373	25521
835.511	25464
835.65	25400
835.788	25289
835.926	25217
836.064	25152
836.202	25179
836.34	25266
836.478	25422
836.615	25308
836.753	25324
836.891	25365
837.029	25316
837.167	25217
837.305	25217
837.443	25297
837.58	25171
837.718	25247
837.856	25232
837.993	25118
838.131	25213
838.269	24909
838.406	25012
838.544	24989
838.681	24806
838.819	24875
838.956	24620
839.094	24677
839.231	24726
839.369	24749
839.506	24943
839.643	24772
839.781	24551
839.918	24616
840.055	24711
840.193	24608
840.33	24513
840.467	24681
840.604	24574
840.742	24825
840.879	24407
841.016	24475
841.153	24418
841.29	24650
841.427	24490
841.564	24574
841.701	24486
841.838	24376
841.975	24456
842.112	24441
842.249	24311
842.385	24251
842.522	24471
842.659	24403
842.796	24258
842.933	24194
843.069	24308
843.206	24296
843.343	24365
843.479	24338
843.616	24232
843.752	23977
843.889	24110
844.025	24285
844.162	24125
844.298	24095
844.435	24018
844.571	23988
844.708	24136
844.844	24136
844.98	24155
845.117	24155
845.253	23965
845.389	24015
845.525	24034
845.661	23992
845.798	23893
845.934	23855
846.07	23748
846.206	23840
846.342	23920
846.478	23737
846.614	23589
846.75	23414
846.886	23516
847.022	23501
847.158	23600
847.294	23452
847.429	23452
847.565	23512
847.701	23676
847.837	23189
847.972	23269
848.108	23299
848.244	23322
848.379	23261
848.515	23151
848.65	22984
848.786	23132
848.921	23178
849.057	23170
849.192	23216
849.328	23079
849.463	23166
849.598	23159
849.734	22972
849.869	22938
850.004	22850
850.14	22854
850.275	22934
850.41	22790
850.545	22896
850.68	22687
850.815	22869
850.95	22824
851.085	23075
851.22	22980
851.355	22904
851.49	22828
851.625	22889
851.76	22801
851.895	22793
852.03	22748
852.165	22900
852.299	22995
852.434	22862
852.569	22854
852.703	22812
852.838	22919
852.973	23075
853.107	22892
853.242	22736
853.376	22725
853.511	22656
853.645	22523
853.78	22729
853.914	22672
854.048	22668
854.183	22683
854.317	22774
854.451	22942
854.585	22668
854.72	22729
854.854	22778
854.988	22687
855.122	22645
855.256	22611
855.39	22577
855.524	22683
855.658	22713
855.792	22713
855.926	22672
856.06	22592
856.194	22748
856.327	22679
856.461	22679
856.595	22596
856.729	22603
856.862	22828
856.996	22698
857.13	22698
857.263	22896
857.397	22717
857.53	22527
857.664	22679
857.797	22596
857.931	22729
858.064	22687
858.197	22710
858.331	22664
858.464	22611
858.597	22497
858.731	22649
858.864	22603
858.997	22554
859.13	22679
859.263	22554
859.396	22782
859.529	22580
859.662	22683
859.795	22588
859.928	22641
860.061	22702
860.194	22847
860.327	22755
860.46	22664
860.592	22847
860.725	22828
860.858	22778
860.99	22668
861.123	22580
861.256	22656
861.388	22683
861.521	23353
861.653	22634
861.786	22474
861.918	22455
862.05	22516
862.183	22615
862.315	22455
862.447	22607
862.58	22546
862.712	22344
862.844	22375
862.976	22447
863.108	22432
863.24	22854
863.372	22303
863.504	22363
863.636	22337
863.768	22371
863.9	22367
864.032	22249
864.164	22299
864.296	22360
864.428	22409
864.559	22447
864.691	22390
864.823	22493
864.954	22348
865.086	22226
865.217	22230
865.349	22226
865.48	22246
865.612	22265
865.743	22379
865.875	22306
866.006	22261
866.137	22219
866.269	22196
866.4	22223
866.531	22162
866.662	22238
866.793	22185
866.924	22196
867.055	22226
867.186	22158
867.317	22211
867.448	22223
867.579	22063
867.71	22059
867.841	22139
867.972	22287
868.103	22223
868.233	22230
868.364	22215
868.495	22249
868.625	22447
868.756	22508
868.886	22447
869.017	22398
869.147	22516
869.278	22538
869.408	22474
869.539	22474
869.669	22348
869.799	22462
869.929	22531
870.06	22588
870.19	22702
870.32	22733
870.45	22854
870.58	22904
870.71	22934
870.84	22854
870.97	22831
871.1	22763
871.23	23037
871.36	22972
871.489	22831
871.619	22999
871.749	23105
871.879	23124
872.008	23159
872.138	23052
872.267	23041
872.397	22995
872.526	22835
872.656	22793
872.785	22850
872.915	22949
873.044	23090
873.173	22984
873.303	23102
873.432	23041
873.561	23151
873.69	23006
873.819	23098
873.948	23124
874.077	23098
874.206	23041
874.335	23098
874.464	23147
874.593	23185
874.722	23220
874.851	23280
874.979	23273
875.108	23220
875.237	23242
875.365	23132
875.494	23189
875.623	23261
875.751	23121
875.88	23273
876.008	23269
876.136	23512
876.265	23608
876.393	23600
876.521	23630
876.65	23722
876.778	23630
876.906	23600
877.034	23524
877.162	23619
877.29	23478
877.418	23604
877.546	23539
877.674	23665
877.802	23649
877.93	23562
878.058	23448
878.185	23398
878.313	23573
878.441	23463
878.568	23364
878.696	23452
878.824	23623
878.951	23691
879.079	23722
879.206	23942
879.333	23676
879.461	23623
879.588	23756
879.715	23714
879.842	23923
879.97	23695
880.097	23436
880.224	23417
880.351	23402
880.478	23353
880.605	23383
880.732	23353
880.859	23592
880.986	23425
881.112	23444
881.239	23212
881.366	23208
881.493	23056
881.619	22984
881.746	23014
881.872	22995
881.999	22850
882.125	23014
882.252	22980
882.378	22995
882.505	22980
882.631	22733
882.757	22660
882.883	22801
883.01	22710
883.136	22554
883.262	22466
883.388	22421
883.514	22653
883.64	22637
883.766	22592
883.892	22428
884.018	22497
884.143	22588
884.269	22668
884.395	22310
884.52	22177
884.646	22204
884.772	22295
884.897	22112
885.023	22204
885.148	22341
885.274	22436
885.399	22398
885.524	22322
885.65	22249
885.775	22185
885.9	22325
886.025	22394
886.15	22333
886.275	22166
886.4	22219
886.525	22249
886.65	22230
886.775	22082
886.9	22394
887.025	22470
887.149	22299
887.274	21998
887.399	21979
887.523	21907
887.648	22059
887.773	21899
887.897	22048
888.021	22192
888.146	21941
888.27	22090
888.395	22166
888.519	22173
888.643	22021
888.767	22051
888.891	21892
889.015	21911
889.139	21888
889.263	21743
889.387	21857
889.511	22067
889.635	21926
889.759	21804
889.883	21709
890.006	21789
890.13	21930
890.254	21682
890.377	21717
890.501	21568
890.624	21488
890.748	21553
890.871	21420
890.995	21291
891.118	21344
891.241	21393
891.364	21302
891.488	21386
891.611	21336
891.734	21363
891.857	21348
891.98	21359
892.103	21496
892.226	21382
892.349	21241
892.471	21218
892.594	21283
892.717	21245
892.839	21211
892.962	21237
893.085	21287
893.207	21249
893.33	21146
893.452	21112
893.575	21310
893.697	21131
893.819	21260
893.941	21450
894.064	21340
894.186	21135
894.308	21176
894.43	21252
894.552	21363
894.674	21386
894.796	21036
894.918	21211
895.04	21131
895.161	21283
895.283	21230
895.405	21108
895.526	21184
895.648	21230
895.769	21131
895.891	21287
896.012	21355
896.134	21173
896.255	21268
896.376	21275
896.498	21272
896.619	21370
896.74	21173
896.861	21192
896.982	21420
897.103	21603
897.224	21568
897.345	21462
897.466	21325
897.587	21370
897.708	21583
897.828	21416
897.949	21412
898.07	21241
898.19	21298
898.311	21485
898.431	21268
898.552	21348
898.672	21458
898.792	21389
898.913	21401
899.033	21351
899.153	21161
899.273	21074
899.393	21264
899.513	21112
899.633	21043
899.753	21096
899.873	21150
899.993	21146
900.113	21039
900.232	21180
900.352	21081
900.472	20948
900.591	20918
900.711	20937
900.83	20864
900.95	20937
901.069	20929
901.189	20762
901.308	20545
901.427	20533
901.546	20473
901.665	20434
901.784	20484
901.904	20358
902.023	20183
902.141	20092
902.26	19951
902.379	20062
902.498	20020
902.617	20088
902.735	20012
902.854	19902
902.973	19982
903.091	19658
903.21	19518
903.328	19567
903.446	19556
903.565	19460
903.683	19407
903.801	19282
903.919	19400
904.038	19244
904.156	19175
904.274	19278
904.392	19145
904.51	19156
904.627	19080
904.745	19270
904.863	19263
904.981	19031
905.098	18928
905.216	18878
905.334	18928
905.451	18878
905.569	18973
905.686	18821
905.803	18909
905.921	18513
906.038	18806
906.155	18684
906.272	18517
906.389	18574
906.506	18475
906.623	18361
906.74	18460
906.857	18270
906.974	18247
907.091	18559
907.208	18426
907.324	18460
907.441	18258
907.557	18136
907.674	18007
907.79	18022
907.907	18015
908.023	18087
908.139	18057
908.256	18038
908.372	17988
908.488	17893
908.604	17897
908.72	17737
908.836	17885
908.952	17718
909.068	17756
909.184	17927
909.3	17786
909.415	17824
909.531	17786
909.647	17600
909.762	17528
909.878	17478
909.993	17501
910.108	17482
910.224	17486
910.339	17425
910.454	17341
910.57	17265
910.685	17208
910.8	17436
910.915	17471
911.03	17265
911.145	17018
911.259	17109
911.374	17117
911.489	16976
911.604	16900
911.718	16824
911.833	16847
911.947	16755
912.062	16649
912.176	16831
912.291	16854
912.405	16706
912.519	17086
912.633	16968
912.748	16786
912.862	16736
912.976	16565
913.09	16519
913.204	16615
913.318	16656
913.431	16683
913.545	16816
913.659	16771
913.772	16584
913.886	16413
914	16485
914.113	16577
914.226	16455
914.34	16447
914.453	16265
914.566	16409
914.68	16367
914.793	16253
914.906	16090
915.019	15903
915.132	15918
915.245	15907
915.358	16021
915.47	15972
915.583	15861
915.696	16044
915.809	16101
915.921	16173
916.034	15850
916.146	15930
916.259	15941
916.371	16040
916.483	15934
916.595	15789
916.708	15698
916.82	15728
916.932	15720
917.044	15755
917.156	15747
917.268	15629
917.38	15629
917.491	15545
917.603	15580
917.715	15698
917.826	15641
917.938	15553
918.049	15378
918.161	15538
918.272	15580
918.384	15622
918.495	15599
918.606	15416
918.717	15275
918.828	15435
918.939	15412
919.05	15230
919.161	15325
919.272	15013
919.383	15207
919.494	15336
919.604	15587
919.715	15370
919.826	15135
919.936	15249
920.047	15348
920.157	15374
920.267	15428
920.378	15370
920.488	15169
920.598	15481
920.708	15603
920.818	15386
920.928	15370
921.038	15572
921.148	15389
921.258	15226
921.368	15173
921.477	15020
921.587	15013
921.697	14929
921.806	15013
921.916	14929
922.025	14701
922.134	14644
922.244	14617
922.353	14689
922.462	14613
922.571	14499
922.68	14408
922.789	14263
922.898	14309
923.007	14206
923.116	14320
923.224	14298
923.333	14244
923.442	14107
923.55	14069
923.659	14126
923.767	14134
923.876	14024
923.984	14161
924.092	13928
924.201	14039
924.309	14103
924.417	13997
924.525	13909
924.633	13845
924.741	14883
924.849	13681
924.956	13826
925.064	13685
925.172	13586
925.279	13651
925.387	13727
925.494	13636
925.602	13845
925.709	13738
925.816	13480
925.924	13590
926.031	13628
926.138	13556
926.245	13658
926.352	13491
926.459	13639
926.566	13575
926.673	13483
926.779	13457
926.886	13327
926.993	13168
927.099	13160
927.206	13179
927.312	13126
927.419	13190
927.525	13141
927.631	13187
927.737	13099
927.843	13027
927.95	12970
928.056	12924
928.162	13091
928.267	13034
928.373	13613
928.479	13137
928.585	12840
928.69	12852
928.796	13008
928.901	12833
929.007	12650
929.112	12852
929.218	12726
929.323	12650
929.428	12734
929.533	12795
929.638	12582
929.743	12730
929.848	12658
929.953	12582
930.058	12536
930.163	12384
930.267	12429
930.372	12570
930.477	12323
930.581	12639
930.685	12251
930.79	12182
930.894	12296
930.998	12270
931.103	12304
931.207	12026
931.311	11927
931.415	11870
931.519	11619
931.623	11642
