Data from test_V78500241_1477.txt Node
Date: Fri Mar 25 15:52:01 CST 2022
User: usil
Spectrometer: V785-0024
Trigger mode: 0
Integration Time (sec): 4.000000E-1
Scans to average: 1
Nonlinearity correction enabled: false
Boxcar width: 0
Storing dark spectrum: false
XAxis mode: Wavelengths
Number of Pixels in Spectrum: 1024
>>>>>Begin Spectral Data<<<<<
801.071	27728
801.214	27587
801.356	27450
801.499	27618
801.641	27378
801.783	27214
801.926	27310
802.068	27283
802.211	27306
802.353	27150
802.496	26944
802.638	26998
802.78	26887
802.923	26804
803.065	26716
803.208	26868
803.35	26944
803.492	27020
803.635	27093
803.777	27119
803.919	27180
804.061	27523
804.204	27131
804.346	27142
804.488	26990
804.63	27116
804.773	26982
804.915	27051
805.057	27218
805.199	27093
805.341	27154
805.483	27325
805.626	27291
805.768	27116
805.91	27138
806.052	27310
806.194	27272
806.336	27336
806.478	27237
806.62	27275
806.762	27355
806.904	27477
807.046	27770
807.188	27663
807.33	27618
807.472	27713
807.614	27720
807.756	27511
807.898	27557
808.04	27519
808.182	27370
808.324	27690
808.465	27473
808.607	27656
808.749	27781
808.891	28021
809.033	27983
809.174	28029
809.316	27770
809.458	27781
809.6	27823
809.741	28013
809.883	27876
810.025	28162
810.166	28116
810.308	28116
810.45	28139
810.591	28055
810.733	27960
810.875	27884
811.016	27827
811.158	27724
811.299	27983
811.441	28055
811.582	27968
811.724	27838
811.865	27797
812.007	27892
812.148	27865
812.29	28002
812.431	27987
812.573	28185
812.714	28318
812.855	28455
812.997	28500
813.138	28641
813.279	28512
813.421	28360
813.562	28291
813.703	28318
813.845	28226
813.986	27804
814.127	27774
814.268	27561
814.41	27542
814.551	27576
814.692	27595
814.833	27466
814.974	27599
815.115	27435
815.256	27355
815.397	27427
815.539	27359
815.68	27294
815.821	27359
815.962	27272
816.103	27386
816.244	27165
816.385	27146
816.526	27081
816.666	26834
816.807	26826
816.948	26792
817.089	26921
817.23	26823
817.371	26872
817.512	26944
817.653	26868
817.793	26705
817.934	26842
818.075	26876
818.216	26910
818.356	26834
818.497	26663
818.638	26648
818.778	26473
818.919	26617
819.06	26632
819.2	26598
819.341	26845
819.481	26735
819.622	26921
819.762	27135
819.903	27104
820.043	27085
820.184	27001
820.324	26899
820.465	26872
820.605	26918
820.746	26849
820.886	26762
821.026	26960
821.167	26944
821.307	26925
821.447	26769
821.588	26720
821.728	26629
821.868	26450
822.008	26294
822.149	26370
822.289	26317
822.429	26016
822.569	25925
822.709	25902
822.849	25841
822.99	25906
823.13	25738
823.27	25795
823.41	25651
823.55	25563
823.69	25750
823.83	25567
823.97	25597
824.11	25297
824.25	25221
824.389	25373
824.529	25544
824.669	25400
824.809	25632
824.949	25590
825.089	25415
825.228	25677
825.368	25415
825.508	25263
825.648	25324
825.787	25247
825.927	25441
826.067	25419
826.206	25373
826.346	25343
826.485	25449
826.625	25278
826.765	25354
826.904	25381
827.044	25038
827.183	25004
827.323	25084
827.462	25088
827.601	24981
827.741	25023
827.88	25072
828.02	24905
828.159	25183
828.298	25141
828.437	25099
828.577	24985
828.716	25133
828.855	24920
828.994	24726
829.134	24669
829.273	24814
829.412	24661
829.551	24722
829.69	24620
829.829	24703
829.968	24871
830.107	24802
830.246	24620
830.385	24604
830.524	24681
830.663	24505
830.802	24429
830.941	24338
831.08	24209
831.219	24410
831.357	24479
831.496	24612
831.635	24350
831.774	24334
831.913	24334
832.051	24152
832.19	24182
832.329	24228
832.467	24106
832.606	23935
832.744	24053
832.883	24041
833.022	23984
833.16	23973
833.299	24201
833.437	24053
833.576	24136
833.714	24102
833.852	24091
833.991	24095
834.129	24186
834.267	24171
834.406	24163
834.544	24125
834.682	24076
834.821	24083
834.959	24251
835.097	23946
835.235	24178
835.373	24117
835.511	24057
835.65	23973
835.788	24083
835.926	23767
836.064	23802
836.202	23729
836.34	24003
836.478	24022
836.615	23885
836.753	23824
836.891	24022
837.029	23977
837.167	23893
837.305	23904
837.443	23790
837.58	23817
837.718	23851
837.856	23752
837.993	23760
838.131	23821
838.269	23741
838.406	23573
838.544	23589
838.681	23490
838.819	23280
838.956	23303
839.094	23265
839.231	23269
839.369	23452
839.506	23718
839.643	23505
839.781	23159
839.918	23117
840.055	23261
840.193	23292
840.33	23159
840.467	23200
840.604	23159
840.742	23505
840.879	23048
841.016	23197
841.153	23075
841.29	23258
841.427	23204
841.564	23250
841.701	23094
841.838	23052
841.975	23037
842.112	23079
842.249	23022
842.385	22908
842.522	23170
842.659	22976
842.796	22892
842.933	22843
843.069	22900
843.206	22824
843.343	22869
843.479	22881
843.616	22900
843.752	22733
843.889	22637
844.025	22797
844.162	22603
844.298	22786
844.435	22752
844.571	22603
844.708	22672
844.844	22911
844.98	22809
845.117	22824
845.253	22554
845.389	22493
845.525	22622
845.661	22546
845.798	22413
845.934	22440
846.07	22409
846.206	22440
846.342	22535
846.478	22363
846.614	22154
846.75	22120
846.886	22150
847.022	22215
847.158	22246
847.294	22128
847.429	22219
847.565	22185
847.701	22329
847.837	21911
847.972	21762
848.108	22002
848.244	21998
848.379	21793
848.515	21800
848.65	21690
848.786	21724
848.921	21641
849.057	21739
849.192	21827
849.328	21698
849.463	21842
849.598	21778
849.734	21644
849.869	21622
850.004	21504
850.14	21431
850.275	21420
850.41	21435
850.545	21447
850.68	21431
850.815	21656
850.95	21523
851.085	21751
851.22	21625
851.355	21587
851.49	21428
851.625	21545
851.76	21458
851.895	21355
852.03	21351
852.165	21447
852.299	21561
852.434	21583
852.569	21583
852.703	21454
852.838	21485
852.973	21652
853.107	21595
853.242	21496
853.376	21393
853.511	21241
853.645	21408
853.78	21542
853.914	21454
854.048	21310
854.183	21256
854.317	21374
854.451	21523
854.585	21397
854.72	21275
854.854	21370
854.988	21203
855.122	21302
855.256	21386
855.39	21363
855.524	21405
855.658	21321
855.792	21321
855.926	21317
856.06	21310
856.194	21374
856.327	21317
856.461	21298
856.595	21233
856.729	21370
856.862	21340
856.996	21298
857.13	21378
857.263	21386
857.397	21279
857.53	21397
857.664	21405
857.797	21344
857.931	21435
858.064	21420
858.197	21473
858.331	21336
858.464	21169
858.597	21161
858.731	21287
858.864	21237
858.997	21363
859.13	21294
859.263	21477
859.396	21450
859.529	21264
859.662	21325
859.795	21150
859.928	21469
860.061	21466
860.194	21534
860.327	21329
860.46	21207
860.592	21488
860.725	21466
860.858	21477
860.99	21203
861.123	21306
861.256	21294
861.388	21329
861.521	21888
861.653	21287
861.786	21104
861.918	21131
862.05	21119
862.183	21310
862.315	21230
862.447	21287
862.58	21252
862.712	21032
862.844	20998
862.976	21146
863.108	21108
863.24	21504
863.372	20963
863.504	21077
863.636	21070
863.768	21119
863.9	20956
864.032	20941
864.164	20944
864.296	21184
864.428	21161
864.559	21150
864.691	21116
864.823	21081
864.954	21039
865.086	21055
865.217	20952
865.349	20891
865.48	20845
865.612	20864
865.743	21020
865.875	20929
866.006	20918
866.137	20963
866.269	20929
866.4	20952
866.531	20887
866.662	20773
866.793	20899
866.924	20975
867.055	20899
867.186	20902
867.317	20979
867.448	20804
867.579	20883
867.71	20830
867.841	20754
867.972	20842
868.103	20804
868.233	20807
868.364	20994
868.495	20849
868.625	21032
868.756	21169
868.886	21013
869.017	21074
869.147	21298
869.278	21249
869.408	21283
869.539	21150
869.669	21192
869.799	21176
869.929	21100
870.06	21195
870.19	21401
870.32	21344
870.45	21389
870.58	21443
870.71	21743
870.84	21652
870.97	21591
871.1	21477
871.23	21671
871.36	21713
871.489	21663
871.619	21774
871.749	21751
871.879	21690
872.008	21778
872.138	21701
872.267	21599
872.397	21671
872.526	21587
872.656	21644
872.785	21458
872.915	21709
873.044	21766
873.173	21789
873.303	21915
873.432	21903
873.561	21922
873.69	21827
873.819	21739
873.948	21739
874.077	21622
874.206	21759
874.335	21743
874.464	21865
874.593	21956
874.722	21835
874.851	21972
874.979	22013
875.108	22036
875.237	21926
875.365	21899
875.494	22002
875.623	22101
875.751	22078
875.88	21983
876.008	22101
876.136	22143
876.265	22314
876.393	22531
876.521	22405
876.65	22516
876.778	22211
876.906	22257
877.034	22284
877.162	22363
877.29	22295
877.418	22268
877.546	22440
877.674	22386
877.802	22341
877.93	22382
878.058	22265
878.185	22219
878.313	22299
878.441	22329
878.568	22226
878.696	22128
878.824	22246
878.951	22322
879.079	22493
879.206	22535
879.333	22474
879.461	22424
879.588	22402
879.715	22474
879.842	22615
879.97	22382
880.097	22154
880.224	22131
880.351	22177
880.478	22097
880.605	22017
880.732	22116
880.859	22443
880.986	22090
881.112	22204
881.239	21937
881.366	21827
881.493	21823
881.619	21751
881.746	21717
881.872	21679
881.999	21679
882.125	21648
882.252	21705
882.378	21614
882.505	21827
882.631	21709
882.757	21469
882.883	21469
883.01	21443
883.136	21367
883.262	21325
883.388	21252
883.514	21454
883.64	21382
883.766	21279
883.892	21260
884.018	21272
884.143	21321
884.269	21485
884.395	21070
884.52	21055
884.646	21165
884.772	21070
884.897	20971
885.023	21127
885.148	21154
885.274	21142
885.399	21154
885.524	21047
885.65	21085
885.775	21146
885.9	21039
886.025	21074
886.15	21241
886.275	21020
886.4	21009
886.525	21001
886.65	20925
886.775	20910
886.9	21138
887.025	21192
887.149	21066
887.274	20876
887.399	20914
887.523	20834
887.648	20800
887.773	20765
887.897	20842
888.021	20834
888.146	20640
888.27	21036
888.395	20876
888.519	20880
888.643	20754
888.767	20883
888.891	20697
889.015	20663
889.139	20750
889.263	20541
889.387	20845
889.511	20746
889.635	20697
889.759	20598
889.883	20587
890.006	20556
890.13	20735
890.254	20590
890.377	20579
890.501	20221
890.624	20366
890.748	20408
890.871	20286
890.995	20187
891.118	20088
891.241	20107
891.364	20229
891.488	20298
891.611	20229
891.734	20202
891.857	20210
891.98	20180
892.103	20138
892.226	20210
892.349	20096
892.471	19982
892.594	20111
892.717	20103
892.839	20084
892.962	20191
893.085	20111
893.207	20073
893.33	19955
893.452	20012
893.575	20271
893.697	20115
893.819	20202
893.941	20294
894.064	20119
894.186	19974
894.308	19993
894.43	20145
894.552	20229
894.674	20233
894.796	20054
894.918	20031
895.04	20050
895.161	20240
895.283	20221
895.405	19989
895.526	19982
895.648	20145
895.769	20092
895.891	20244
896.012	20164
896.134	20115
896.255	20062
896.376	20005
896.498	20100
896.619	20092
896.74	20039
896.861	20084
896.982	20385
897.103	20590
897.224	20389
897.345	20282
897.466	20248
897.587	20309
897.708	20415
897.828	20366
897.949	20130
898.07	20126
898.19	20298
898.311	20465
898.431	20271
898.552	20199
898.672	20507
898.792	20389
898.913	20320
899.033	20187
899.153	20176
899.273	19986
899.393	20122
899.513	20134
899.633	20001
899.753	20035
899.873	20062
899.993	20096
900.113	20050
900.232	20046
900.352	20008
900.472	19883
900.591	19791
900.711	19769
900.83	19746
900.95	19898
901.069	19875
901.189	19814
901.308	19586
901.427	19396
901.546	19415
901.665	19438
901.784	19495
901.904	19384
902.023	19190
902.141	19057
902.26	19015
902.379	19072
902.498	18977
902.617	18886
902.735	18958
902.854	18859
902.973	18905
903.091	18608
903.21	18601
903.328	18582
903.446	18506
903.565	18433
903.683	18410
903.801	18338
903.919	18319
904.038	18403
904.156	18216
904.274	18330
904.392	18133
904.51	18117
904.627	18117
904.745	18258
904.863	18315
904.981	17889
905.098	17882
905.216	17855
905.334	17901
905.451	17843
905.569	17954
905.686	17889
905.803	17794
905.921	17497
906.038	17691
906.155	17733
906.272	17577
906.389	17558
906.506	17459
906.623	17391
906.74	17410
906.857	17376
906.974	17345
907.091	17528
907.208	17627
907.324	17379
907.441	17242
907.557	17052
907.674	17113
907.79	17094
907.907	17064
908.023	17048
908.139	17075
908.256	16987
908.372	17003
908.488	17041
908.604	16934
908.72	16919
908.836	16793
908.952	16831
909.068	16847
909.184	16938
909.3	16881
909.415	16862
909.531	16782
909.647	16531
909.762	16565
909.878	16485
909.993	16531
910.108	16451
910.224	16508
910.339	16481
910.454	16565
910.57	16382
910.685	16310
910.8	16527
910.915	16493
911.03	16329
911.145	16215
911.259	16021
911.374	16101
911.489	16055
911.604	15983
911.718	15907
911.833	15888
911.947	15690
912.062	15724
912.176	15956
912.291	15903
912.405	15884
912.519	16059
912.633	16093
912.748	15991
912.862	15774
912.976	15774
913.09	15580
913.204	15625
913.318	15641
913.431	15797
913.545	15781
913.659	15880
913.772	15698
913.886	15584
914	15481
914.113	15538
914.226	15610
914.34	15553
914.453	15283
914.566	15606
914.68	15363
914.793	15344
914.906	15241
915.019	15100
915.132	15024
915.245	15077
915.358	15039
915.47	15077
915.583	15184
915.696	15188
915.809	15264
915.921	15230
916.034	15070
916.146	15039
916.259	15020
916.371	15184
916.483	15131
916.595	14967
916.708	14883
916.82	14921
916.932	14952
917.044	14895
917.156	14754
917.268	14724
917.38	14762
917.491	14788
917.603	14773
917.715	14807
917.826	14819
917.938	14678
918.049	14499
918.161	14651
918.272	14868
918.384	14796
918.495	14708
918.606	14476
918.717	14488
918.828	14518
918.939	14499
919.05	14537
919.161	14568
919.272	14172
919.383	14408
919.494	14511
919.604	14750
919.715	14457
919.826	14412
919.936	14457
920.047	14518
920.157	14450
920.267	14610
920.378	14454
920.488	14461
920.598	14613
920.708	14788
920.818	14621
920.928	14693
921.038	14739
921.148	14682
921.258	14389
921.368	14301
921.477	14111
921.587	14221
921.697	14073
921.806	14313
921.916	14103
922.025	13989
922.134	13887
922.244	13871
922.353	13890
922.462	13750
922.571	13616
922.68	13548
922.789	13544
922.898	13441
923.007	13476
923.116	13499
923.224	13495
923.333	13510
923.442	13304
923.55	13358
923.659	13365
923.767	13362
923.876	13285
923.984	13407
924.092	13270
924.201	13282
924.309	13251
924.417	13285
924.525	13202
924.633	13099
924.741	14035
924.849	13012
924.956	13118
925.064	13019
925.172	12966
925.279	12867
925.387	12920
925.494	12821
925.602	12954
925.709	12928
925.816	12848
925.924	12817
926.031	13004
926.138	12772
926.245	12973
926.352	12848
926.459	12901
926.566	12985
926.673	12795
926.779	12719
926.886	12684
926.993	12479
927.099	12410
927.206	12494
927.312	12395
927.419	12547
927.525	12426
927.631	12456
927.737	12460
927.843	12315
927.95	12152
928.056	12289
928.162	12346
928.267	12285
928.373	12951
928.479	12369
928.585	12136
928.69	12319
928.796	12330
928.901	12175
929.007	12053
929.112	12155
929.218	12121
929.323	12072
929.428	11980
929.533	12079
929.638	11999
929.743	11977
929.848	11984
929.953	12057
930.058	11904
930.163	11722
930.267	11813
930.372	11821
930.477	11665
930.581	11931
930.685	11798
930.79	11604
930.894	11543
930.998	11596
931.103	11680
931.207	11383
931.311	11296
931.415	11212
931.519	10942
931.623	10938
