Data from test_V78500241_628.txt Node
Date: Fri Mar 25 15:46:09 CST 2022
User: usil
Spectrometer: V785-0024
Trigger mode: 0
Integration Time (sec): 4.000000E-1
Scans to average: 1
Nonlinearity correction enabled: false
Boxcar width: 0
Storing dark spectrum: false
XAxis mode: Wavelengths
Number of Pixels in Spectrum: 1024
>>>>>Begin Spectral Data<<<<<
801.071	28147
801.214	27975
801.356	27800
801.499	27770
801.641	27724
801.783	27576
801.926	27686
802.068	27675
802.211	27576
802.353	27481
802.496	27370
802.638	27233
802.78	27287
802.923	27195
803.065	27230
803.208	27329
803.35	27412
803.492	27389
803.635	27515
803.777	27481
803.919	27534
804.061	27698
804.204	27523
804.346	27545
804.488	27450
804.63	27519
804.773	27408
804.915	27599
805.057	27561
805.199	27580
805.341	27660
805.483	27641
805.626	27709
805.768	27629
805.91	27595
806.052	27709
806.194	27667
806.336	27850
806.478	27736
806.62	27675
806.762	27842
806.904	27968
807.046	28234
807.188	28040
807.33	28090
807.472	28093
807.614	27956
807.756	28097
807.898	27934
808.04	27895
808.182	28055
808.324	27983
808.465	28013
808.607	28090
808.749	28268
808.891	28375
809.033	28611
809.174	28443
809.316	28303
809.458	28348
809.6	28379
809.741	28489
809.883	28481
810.025	28702
810.166	28649
810.308	28622
810.45	28470
810.591	28565
810.733	28295
810.875	28280
811.016	28257
811.158	28204
811.299	28459
811.441	28516
811.582	28527
811.724	28379
811.865	28284
812.007	28314
812.148	28337
812.29	28413
812.431	28455
812.573	28618
812.714	28744
812.855	28828
812.997	28904
813.138	29006
813.279	29048
813.421	28790
813.562	28744
813.703	28710
813.845	28519
813.986	28329
814.127	28207
814.268	27972
814.41	28048
814.551	27975
814.692	28150
814.833	28017
814.974	27960
815.115	28090
815.256	27854
815.397	27968
815.539	27876
815.68	27884
815.821	27770
815.962	27743
816.103	27926
816.244	27736
816.385	27633
816.526	27488
816.666	27401
816.807	27389
816.948	27481
817.089	27431
817.23	27397
817.371	27382
817.512	27355
817.653	27302
817.793	27401
817.934	27363
818.075	27245
818.216	27401
818.356	27218
818.497	27237
818.638	27074
818.778	27108
818.919	26998
819.06	27119
819.2	27233
819.341	27302
819.481	27393
819.622	27507
819.762	27652
819.903	27660
820.043	27485
820.184	27450
820.324	27241
820.465	27443
820.605	27427
820.746	27393
820.886	27298
821.026	27473
821.167	27370
821.307	27492
821.447	27378
821.588	27081
821.728	27074
821.868	26834
822.008	26861
822.149	26815
822.289	26727
822.429	26522
822.569	26507
822.709	26503
822.849	26389
822.99	26282
823.13	26278
823.27	26229
823.41	26130
823.55	26005
823.69	26126
823.83	26126
823.97	26058
824.11	25936
824.25	26035
824.389	25947
824.529	25966
824.669	26043
824.809	26122
824.949	26016
825.089	26130
825.228	25902
825.368	25784
825.508	25849
825.648	25761
825.787	25860
825.927	25928
826.067	25807
826.206	25830
826.346	25791
826.485	25947
826.625	25856
826.765	25837
826.904	25928
827.044	25643
827.183	25544
827.323	25419
827.462	25571
827.601	25445
827.741	25525
827.88	25575
828.02	25350
828.159	25521
828.298	25624
828.437	25491
828.577	25495
828.716	25552
828.855	25343
828.994	25396
829.134	25244
829.273	25247
829.412	25221
829.551	25137
829.69	25164
829.829	25171
829.968	25324
830.107	25304
830.246	25240
830.385	25213
830.524	25069
830.663	25000
830.802	24810
830.941	24665
831.08	24684
831.219	24783
831.357	24916
831.496	24924
831.635	24829
831.774	24791
831.913	24661
832.051	24604
832.19	24703
832.329	24722
832.467	24715
832.606	24479
832.744	24475
832.883	24441
833.022	24426
833.16	24471
833.299	24578
833.437	24528
833.576	24528
833.714	24517
833.852	24608
833.991	24399
834.129	24783
834.267	24616
834.406	24486
834.544	24620
834.682	24525
834.821	24498
834.959	24696
835.097	24475
835.235	24540
835.373	24532
835.511	24460
835.65	24388
835.788	24342
835.926	24266
836.064	24239
836.202	24072
836.34	24346
836.478	24342
836.615	24270
836.753	24483
836.891	24505
837.029	24570
837.167	24315
837.305	24121
837.443	24304
837.58	24308
837.718	24232
837.856	24311
837.993	24209
838.131	24308
838.269	24102
838.406	24136
838.544	24083
838.681	23832
838.819	23843
838.956	23824
839.094	23668
839.231	23764
839.369	23920
839.506	24064
839.643	23984
839.781	23703
839.918	23684
840.055	23680
840.193	23642
840.33	23703
840.467	23585
840.604	23573
840.742	23939
840.879	23433
841.016	23505
841.153	23558
841.29	23707
841.427	23467
841.564	23573
841.701	23604
841.838	23570
841.975	23425
842.112	23425
842.249	23425
842.385	23311
842.522	23566
842.659	23269
842.796	23277
842.933	23395
843.069	23410
843.206	23235
843.343	23315
843.479	23345
843.616	23315
843.752	23052
843.889	22999
844.025	23292
844.162	23014
844.298	23341
844.435	23041
844.571	23109
844.708	23151
844.844	23239
844.98	23265
845.117	23204
845.253	23010
845.389	22984
845.525	23075
845.661	22946
845.798	22824
845.934	22934
846.07	22843
846.206	22858
846.342	23060
846.478	22801
846.614	22672
846.75	22577
846.886	22508
847.022	22512
847.158	22497
847.294	22470
847.429	22588
847.565	22523
847.701	22843
847.837	22367
847.972	22272
848.108	22375
848.244	22299
848.379	22109
848.515	22238
848.65	22128
848.786	22177
848.921	22268
849.057	22303
849.192	22120
849.328	22223
849.463	22074
849.598	22116
849.734	21915
849.869	22070
850.004	22051
850.14	21956
850.275	21945
850.41	21804
850.545	21831
850.68	21911
850.815	21861
850.95	21979
851.085	21987
851.22	22109
851.355	21979
851.49	21869
851.625	21812
851.76	21968
851.895	21838
852.03	21747
852.165	21857
852.299	21937
852.434	21930
852.569	21907
852.703	21930
852.838	21903
852.973	22010
853.107	22086
853.242	21945
853.376	21808
853.511	21610
853.645	21648
853.78	21953
853.914	21709
854.048	21667
854.183	21701
854.317	21679
854.451	21941
854.585	21842
854.72	21827
854.854	21804
854.988	21629
855.122	21637
855.256	21625
855.39	21625
855.524	21808
855.658	21778
855.792	21747
855.926	21797
856.06	21789
856.194	21770
856.327	21861
856.461	21629
856.595	21644
856.729	21595
856.862	21816
856.996	21724
857.13	21816
857.263	21808
857.397	21918
857.53	21766
857.664	21873
857.797	21781
857.931	21823
858.064	21774
858.197	21915
858.331	21724
858.464	21717
858.597	21561
858.731	21774
858.864	21732
858.997	21614
859.13	21778
859.263	21827
859.396	21835
859.529	21698
859.662	21610
859.795	21553
859.928	21705
860.061	21926
860.194	22006
860.327	21739
860.46	21747
860.592	21854
860.725	21842
860.858	21770
860.99	21831
861.123	21690
861.256	21690
861.388	21789
861.521	22341
861.653	21587
861.786	21504
861.918	21500
862.05	21671
862.183	21583
862.315	21705
862.447	21724
862.58	21667
862.712	21374
862.844	21393
862.976	21447
863.108	21500
863.24	21759
863.372	21374
863.504	21386
863.636	21507
863.768	21538
863.9	21534
864.032	21466
864.164	21351
864.296	21412
864.428	21576
864.559	21542
864.691	21504
864.823	21420
864.954	21492
865.086	21340
865.217	21386
865.349	21272
865.48	21389
865.612	21416
865.743	21401
865.875	21420
866.006	21287
866.137	21374
866.269	21386
866.4	21241
866.531	21310
866.662	21211
866.793	21329
866.924	21298
867.055	21386
867.186	21195
867.317	21268
867.448	21112
867.579	21207
867.71	21195
867.841	21138
867.972	21100
868.103	21252
868.233	21199
868.364	21249
868.495	21439
868.625	21469
868.756	21542
868.886	21454
869.017	21462
869.147	21496
869.278	21827
869.408	21500
869.539	21526
869.669	21663
869.799	21507
869.929	21599
870.06	21545
870.19	21854
870.32	21770
870.45	21850
870.58	22032
870.71	21892
870.84	21968
870.97	21861
871.1	21895
871.23	22150
871.36	22059
871.489	22059
871.619	22131
871.749	22025
871.879	22109
872.008	22097
872.138	22082
872.267	22090
872.397	21994
872.526	21945
872.656	21857
872.785	21953
872.915	22147
873.044	22166
873.173	22120
873.303	22010
873.432	22211
873.561	22109
873.69	22158
873.819	22101
873.948	22120
874.077	22135
874.206	21972
874.335	22032
874.464	22234
874.593	22344
874.722	22261
874.851	22402
874.979	22303
875.108	22462
875.237	22306
875.365	22219
875.494	22284
875.623	22287
875.751	22344
875.88	22363
876.008	22443
876.136	22542
876.265	22691
876.393	22793
876.521	22873
876.65	22797
876.778	22733
876.906	22561
877.034	22588
877.162	22740
877.29	22618
877.418	22653
877.546	22615
877.674	22820
877.802	22740
877.93	22782
878.058	22664
878.185	22512
878.313	22561
878.441	22668
878.568	22421
878.696	22637
878.824	22660
878.951	22843
879.079	22694
879.206	23090
879.333	22835
879.461	22675
879.588	22744
879.715	22980
879.842	22900
879.97	22847
880.097	22561
880.224	22500
880.351	22516
880.478	22470
880.605	22470
880.732	22455
880.859	22694
880.986	22542
881.112	22402
881.239	22356
881.366	22188
881.493	22135
881.619	22029
881.746	22097
881.872	22078
881.999	22082
882.125	21907
882.252	22181
882.378	22105
882.505	22147
882.631	21987
882.757	21838
882.883	21930
883.01	21827
883.136	21778
883.262	21507
883.388	21686
883.514	21686
883.64	21686
883.766	21606
883.892	21561
884.018	21603
884.143	21701
884.269	21717
884.395	21507
884.52	21401
884.646	21382
884.772	21340
884.897	21359
885.023	21374
885.148	21568
885.274	21561
885.399	21534
885.524	21412
885.65	21477
885.775	21458
885.9	21306
886.025	21492
886.15	21466
886.275	21458
886.4	21214
886.525	21344
886.65	21336
886.775	21348
886.9	21557
887.025	21618
887.149	21370
887.274	21230
887.399	21218
887.523	21093
887.648	21150
887.773	21100
887.897	21317
888.021	21192
888.146	21123
888.27	21218
888.395	21344
888.519	21203
888.643	21146
888.767	21180
888.891	20982
889.015	20975
889.139	20986
889.263	21047
889.387	21081
889.511	21203
889.635	21085
889.759	20944
889.883	21013
890.006	21051
890.13	20982
890.254	20849
890.377	20792
890.501	20701
890.624	20731
890.748	20807
890.871	20663
890.995	20431
891.118	20583
891.241	20533
891.364	20579
891.488	20724
891.611	20511
891.734	20503
891.857	20659
891.98	20621
892.103	20640
892.226	20613
892.349	20469
892.471	20313
892.594	20511
892.717	20438
892.839	20362
892.962	20499
893.085	20465
893.207	20450
893.33	20286
893.452	20240
893.575	20446
893.697	20408
893.819	20674
893.941	20655
894.064	20602
894.186	20431
894.308	20389
894.43	20469
894.552	20541
894.674	20556
894.796	20324
894.918	20431
895.04	20427
895.161	20389
895.283	20511
895.405	20419
895.526	20446
895.648	20381
895.769	20438
895.891	20511
896.012	20473
896.134	20507
896.255	20446
896.376	20469
896.498	20408
896.619	20473
896.74	20446
896.861	20495
896.982	20758
897.103	20872
897.224	20655
897.345	20682
897.466	20625
897.587	20640
897.708	20708
897.828	20674
897.949	20454
898.07	20377
898.19	20571
898.311	20765
898.431	20663
898.552	20716
898.672	20686
898.792	20659
898.913	20632
899.033	20594
899.153	20507
899.273	20336
899.393	20530
899.513	20446
899.633	20370
899.753	20434
899.873	20332
899.993	20450
900.113	20366
900.232	20377
900.352	20290
900.472	20309
900.591	20275
900.711	20210
900.83	20180
900.95	20252
901.069	20225
901.189	20046
901.308	19803
901.427	19818
901.546	19769
901.665	19799
901.784	19723
901.904	19525
902.023	19460
902.141	19270
902.26	19263
902.379	19422
902.498	19259
902.617	19232
902.735	19331
902.854	19217
902.973	19217
903.091	18924
903.21	18954
903.328	18996
903.446	18776
903.565	18703
903.683	18684
903.801	18582
903.919	18593
904.038	18646
904.156	18547
904.274	18494
904.392	18445
904.51	18494
904.627	18429
904.745	18559
904.863	18471
904.981	18361
905.098	18083
905.216	18144
905.334	18296
905.451	18136
905.569	18060
905.686	18258
905.803	18182
905.921	17912
906.038	18015
906.155	17843
906.272	17893
906.389	17828
906.506	17745
906.623	17794
906.74	17661
906.857	17532
906.974	17562
907.091	17668
907.208	17794
907.324	17714
907.441	17570
907.557	17414
907.674	17330
907.79	17337
907.907	17284
908.023	17452
908.139	17486
908.256	17349
908.372	17410
908.488	17307
908.604	17181
908.72	17121
908.836	17128
908.952	17105
909.068	17170
909.184	17109
909.3	17086
909.415	17159
909.531	17048
909.647	16820
909.762	16771
909.878	16759
909.993	16759
910.108	16755
910.224	16752
910.339	16797
910.454	16786
910.57	16554
910.685	16550
910.8	16877
910.915	16812
911.03	16565
911.145	16394
911.259	16394
911.374	16398
911.489	16386
911.604	16284
911.718	16048
911.833	16135
911.947	16006
912.062	15945
912.176	16177
912.291	16188
912.405	16124
912.519	16280
912.633	16341
912.748	16211
912.862	16112
912.976	15930
913.09	15869
913.204	16013
913.318	15937
913.431	16040
913.545	16029
913.659	16135
913.772	15911
913.886	15793
914	15732
914.113	15736
914.226	15895
914.34	15903
914.453	15694
914.566	15774
914.68	15629
914.793	15576
914.906	15412
915.019	15386
915.132	15264
915.245	15359
915.358	15401
915.47	15488
915.583	15344
915.696	15523
915.809	15507
915.921	15454
916.034	15325
916.146	15252
916.259	15249
916.371	15382
916.483	15325
916.595	15249
916.708	15241
916.82	15176
916.932	15195
917.044	15142
917.156	15116
917.268	15131
917.38	15058
917.491	15039
917.603	14944
917.715	15089
917.826	15070
917.938	14902
918.049	14800
918.161	14975
918.272	15055
918.384	15104
918.495	14956
918.606	14811
918.717	14777
918.828	14678
918.939	14686
919.05	14632
919.161	14739
919.272	14587
919.383	14602
919.494	14804
919.604	14952
919.715	14746
919.826	14560
919.936	14693
920.047	14807
920.157	14750
920.267	14952
920.378	14667
920.488	14621
920.598	14853
920.708	15039
920.818	14845
920.928	14864
921.038	14990
921.148	15001
921.258	14712
921.368	14655
921.477	14431
921.587	14358
921.697	14244
921.806	14473
921.916	14256
922.025	14210
922.134	14126
922.244	14092
922.353	14115
922.462	13970
922.571	13902
922.68	13753
922.789	13719
922.898	13689
923.007	13681
923.116	13818
923.224	13753
923.333	13636
923.442	13556
923.55	13529
923.659	13575
923.767	13590
923.876	13487
923.984	13548
924.092	13460
924.201	13441
924.309	13495
924.417	13499
924.525	13415
924.633	13388
924.741	14103
924.849	13160
924.956	13419
925.064	13179
925.172	13160
925.279	13156
925.387	13042
925.494	13145
925.602	13282
925.709	13061
925.816	13004
925.924	13126
926.031	13179
926.138	12962
926.245	13141
926.352	12947
926.459	13145
926.566	13194
926.673	13038
926.779	12958
926.886	12863
926.993	12745
927.099	12673
927.206	12642
927.312	12620
927.419	12700
927.525	12696
927.631	12707
927.737	12601
927.843	12486
927.95	12422
928.056	12479
928.162	12528
928.267	12574
928.373	13190
928.479	12532
928.585	12323
928.69	12441
928.796	12509
928.901	12357
929.007	12186
929.112	12422
929.218	12361
929.323	12350
929.428	12205
929.533	12330
929.638	12289
929.743	12220
929.848	12289
929.953	12197
930.058	12072
930.163	11954
930.267	11984
930.372	12102
930.477	11965
930.581	12140
930.685	11996
930.79	11790
930.894	11775
930.998	11798
931.103	11942
931.207	11589
931.311	11421
931.415	11360
931.519	11159
931.623	11208
