Data from test_V78500241_1401.txt Node
Date: Fri Mar 25 15:51:30 CST 2022
User: usil
Spectrometer: V785-0024
Trigger mode: 0
Integration Time (sec): 4.000000E-1
Scans to average: 1
Nonlinearity correction enabled: false
Boxcar width: 0
Storing dark spectrum: false
XAxis mode: Wavelengths
Number of Pixels in Spectrum: 1024
>>>>>Begin Spectral Data<<<<<
801.071	27751
801.214	27808
801.356	27701
801.499	27568
801.641	27443
801.783	27511
801.926	27500
802.068	27439
802.211	27427
802.353	27424
802.496	27207
802.638	27180
802.78	27180
802.923	27047
803.065	27032
803.208	27116
803.35	27199
803.492	27287
803.635	27431
803.777	27321
803.919	27310
804.061	27800
804.204	27511
804.346	27306
804.488	27256
804.63	27348
804.773	27283
804.915	27386
805.057	27416
805.199	27454
805.341	27435
805.483	27485
805.626	27435
805.768	27378
805.91	27511
806.052	27447
806.194	27332
806.336	27724
806.478	27435
806.62	27469
806.762	27587
806.904	27717
807.046	27941
807.188	27892
807.33	27808
807.472	27960
807.614	27808
807.756	27934
807.898	27739
808.04	27660
808.182	27701
808.324	27816
808.465	27842
808.607	28017
808.749	28074
808.891	28215
809.033	28360
809.174	28200
809.316	28086
809.458	28040
809.6	28135
809.741	28257
809.883	28204
810.025	28523
810.166	28394
810.308	28409
810.45	28497
810.591	28280
810.733	28139
810.875	28173
811.016	28067
811.158	28044
811.299	28242
811.441	28242
811.582	28284
811.724	28074
811.865	28021
812.007	28078
812.148	28139
812.29	28139
812.431	28360
812.573	28287
812.714	28577
812.855	28554
812.997	28733
813.138	28888
813.279	28812
813.421	28596
813.562	28557
813.703	28466
813.845	28322
813.986	28044
814.127	27956
814.268	27732
814.41	27827
814.551	27709
814.692	27914
814.833	27759
814.974	27789
815.115	27785
815.256	27755
815.397	27580
815.539	27637
815.68	27606
815.821	27500
815.962	27450
816.103	27587
816.244	27332
816.385	27401
816.526	27321
816.666	26994
816.807	26979
816.948	27085
817.089	27321
817.23	27062
817.371	27146
817.512	27100
817.653	27020
817.793	26979
817.934	26971
818.075	27081
818.216	27112
818.356	27032
818.497	26906
818.638	26918
818.778	26792
818.919	26921
819.06	26937
819.2	27119
819.341	27081
819.481	27112
819.622	27241
819.762	27408
819.903	27355
820.043	27176
820.184	27237
820.324	27119
820.465	27260
820.605	27116
820.746	27275
820.886	27009
821.026	27245
821.167	27184
821.307	27173
821.447	27104
821.588	27020
821.728	26838
821.868	26716
822.008	26727
822.149	26609
822.289	26526
822.429	26278
822.569	26290
822.709	26278
822.849	26221
822.99	26115
823.13	26058
823.27	26069
823.41	25917
823.55	25868
823.69	26016
823.83	25902
823.97	25830
824.11	25628
824.25	25700
824.389	25693
824.529	25917
824.669	25776
824.809	25864
824.949	25856
825.089	25860
825.228	25674
825.368	25590
825.508	25525
825.648	25624
825.787	25609
825.927	25674
826.067	25510
826.206	25586
826.346	25666
826.485	25685
826.625	25632
826.765	25753
826.904	25647
827.044	25400
827.183	25365
827.323	25335
827.462	25426
827.601	25266
827.741	25358
827.88	25331
828.02	25164
828.159	25331
828.298	25282
828.437	25335
828.577	25164
828.716	25476
828.855	25270
828.994	25080
829.134	24928
829.273	25061
829.412	25008
829.551	25019
829.69	24894
829.829	25046
829.968	25065
830.107	25133
830.246	25008
830.385	24935
830.524	24886
830.663	24829
830.802	24715
830.941	24517
831.08	24540
831.219	24722
831.357	24661
831.496	24947
831.635	24707
831.774	24456
831.913	24525
832.051	24384
832.19	24323
832.329	24441
832.467	24258
832.606	24273
832.744	24201
832.883	24334
833.022	24323
833.16	24220
833.299	24266
833.437	24308
833.576	24380
833.714	24315
833.852	24414
833.991	24475
834.129	24502
834.267	24513
834.406	24388
834.544	24330
834.682	24357
834.821	24388
834.959	24502
835.097	24342
835.235	24315
835.373	24254
835.511	24384
835.65	24136
835.788	24232
835.926	23980
836.064	23908
836.202	24045
836.34	24220
836.478	24201
836.615	24201
836.753	24121
836.891	24418
837.029	24106
837.167	24171
837.305	24015
837.443	24117
837.58	24091
837.718	24125
837.856	23946
837.993	23942
838.131	23920
838.269	23958
838.406	23927
838.544	23821
838.681	23627
838.819	23676
838.956	23585
839.094	23509
839.231	23512
839.369	23577
839.506	23840
839.643	23802
839.781	23425
839.918	23433
840.055	23474
840.193	23459
840.33	23452
840.467	23337
840.604	23425
840.742	23551
840.879	23166
841.016	23284
841.153	23318
841.29	23577
841.427	23345
841.564	23322
841.701	23246
841.838	23292
841.975	23258
842.112	23299
842.249	23265
842.385	23185
842.522	23414
842.659	23143
842.796	23102
842.933	23090
843.069	22957
843.206	23044
843.343	23155
843.479	23208
843.616	23109
843.752	22885
843.889	22877
844.025	23083
844.162	22862
844.298	22953
844.435	22908
844.571	22869
844.708	22965
844.844	23086
844.98	22915
845.117	22915
845.253	22839
845.389	22698
845.525	22774
845.661	22748
845.798	22565
845.934	22637
846.07	22706
846.206	22573
846.342	22793
846.478	22698
846.614	22363
846.75	22265
846.886	22341
847.022	22470
847.158	22405
847.294	22299
847.429	22447
847.565	22363
847.701	22622
847.837	22131
847.972	22051
848.108	22318
848.244	22116
848.379	21972
848.515	21895
848.65	21994
848.786	22025
848.921	21907
849.057	22093
849.192	21975
849.328	22078
849.463	21911
849.598	21922
849.734	21953
849.869	21812
850.004	21793
850.14	21728
850.275	21884
850.41	21660
850.545	21797
850.68	21633
850.815	21728
850.95	21648
851.085	21876
851.22	21930
851.355	21682
851.49	21637
851.625	21671
851.76	21713
851.895	21633
852.03	21641
852.165	21599
852.299	21736
852.434	21736
852.569	21667
852.703	21743
852.838	21842
852.973	21899
853.107	21819
853.242	21682
853.376	21614
853.511	21435
853.645	21534
853.78	21705
853.914	21583
854.048	21462
854.183	21576
854.317	21557
854.451	21888
854.585	21557
854.72	21732
854.854	21519
854.988	21538
855.122	21488
855.256	21416
855.39	21595
855.524	21660
855.658	21667
855.792	21507
855.926	21477
856.06	21534
856.194	21606
856.327	21549
856.461	21511
856.595	21443
856.729	21500
856.862	21603
856.996	21599
857.13	21549
857.263	21606
857.397	21720
857.53	21500
857.664	21595
857.797	21583
857.931	21656
858.064	21759
858.197	21530
858.331	21519
858.464	21549
858.597	21625
858.731	21515
858.864	21549
858.997	21557
859.13	21507
859.263	21637
859.396	21564
859.529	21538
859.662	21576
859.795	21511
859.928	21583
860.061	21709
860.194	21789
860.327	21641
860.46	21507
860.592	21736
860.725	21698
860.858	21686
860.99	21542
861.123	21526
861.256	21386
861.388	21667
861.521	22223
861.653	21408
861.786	21321
861.918	21279
862.05	21435
862.183	21424
862.315	21443
862.447	21587
862.58	21625
862.712	21237
862.844	21207
862.976	21329
863.108	21302
863.24	21644
863.372	21294
863.504	21298
863.636	21203
863.768	21351
863.9	21211
864.032	21237
864.164	21226
864.296	21256
864.428	21310
864.559	21355
864.691	21329
864.823	21272
864.954	21256
865.086	21275
865.217	21165
865.349	21024
865.48	21135
865.612	20994
865.743	21291
865.875	21104
866.006	21058
866.137	21226
866.269	21176
866.4	21150
866.531	21131
866.662	21051
866.793	21127
866.924	21074
867.055	21070
867.186	21169
867.317	21009
867.448	21062
867.579	21047
867.71	21024
867.841	21043
867.972	21039
868.103	21077
868.233	21108
868.364	21074
868.495	21184
868.625	21329
868.756	21386
868.886	21344
869.017	21252
869.147	21454
869.278	21526
869.408	21386
869.539	21279
869.669	21576
869.799	21424
869.929	21477
870.06	21405
870.19	21705
870.32	21580
870.45	21648
870.58	21736
870.71	21819
870.84	21766
870.97	21755
871.1	21766
871.23	21797
871.36	21991
871.489	21759
871.619	21785
871.749	21987
871.879	21945
872.008	22116
872.138	21941
872.267	22029
872.397	21838
872.526	21842
872.656	21774
872.785	21789
872.915	21941
873.044	22128
873.173	21911
873.303	21972
873.432	22002
873.561	22090
873.69	21987
873.819	21941
873.948	22017
874.077	21979
874.206	21816
874.335	21964
874.464	22074
874.593	22124
874.722	22158
874.851	22188
874.979	22284
875.108	22143
875.237	22128
875.365	22147
875.494	22135
875.623	22268
875.751	22162
875.88	22166
876.008	22424
876.136	22333
876.265	22527
876.393	22672
876.521	22740
876.65	22538
876.778	22573
876.906	22538
877.034	22535
877.162	22561
877.29	22398
877.418	22565
877.546	22588
877.674	22519
877.802	22459
877.93	22641
878.058	22481
878.185	22485
878.313	22497
878.441	22527
878.568	22386
878.696	22363
878.824	22527
878.951	22497
879.079	22565
879.206	22854
879.333	22672
879.461	22634
879.588	22508
879.715	22683
879.842	22835
879.97	22550
880.097	22367
880.224	22363
880.351	22386
880.478	22333
880.605	22219
880.732	22219
880.859	22634
880.986	22337
881.112	22344
881.239	22181
881.366	22070
881.493	22067
881.619	21983
881.746	21968
881.872	21956
881.999	21953
882.125	21876
882.252	22032
882.378	21857
882.505	21972
882.631	21800
882.757	21675
882.883	21618
883.01	21572
883.136	21549
883.262	21549
883.388	21454
883.514	21629
883.64	21682
883.766	21519
883.892	21397
884.018	21454
884.143	21511
884.269	21663
884.395	21252
884.52	21329
884.646	21249
884.772	21176
884.897	21081
885.023	21199
885.148	21359
885.274	21351
885.399	21329
885.524	21317
885.65	21108
885.775	21116
885.9	21195
886.025	21367
886.15	21237
886.275	21226
886.4	21135
886.525	21142
886.65	21146
886.775	21135
886.9	21370
887.025	21329
887.149	21142
887.274	21123
887.399	20921
887.523	21047
887.648	21039
887.773	20929
887.897	21116
888.021	21154
888.146	20986
888.27	21146
888.395	21127
888.519	21188
888.643	21074
888.767	21093
888.891	20979
889.015	20807
889.139	20796
889.263	20739
889.387	20979
889.511	21100
889.635	20979
889.759	20842
889.883	20678
890.006	20872
890.13	20902
890.254	20765
890.377	20705
890.501	20651
890.624	20499
890.748	20648
890.871	20530
890.995	20389
891.118	20488
891.241	20385
891.364	20442
891.488	20484
891.611	20442
891.734	20499
891.857	20526
891.98	20454
892.103	20465
892.226	20419
892.349	20385
892.471	20286
892.594	20290
892.717	20271
892.839	20282
892.962	20320
893.085	20355
893.207	20476
893.33	20183
893.452	20271
893.575	20290
893.697	20237
893.819	20461
893.941	20598
894.064	20419
894.186	20187
894.308	20237
894.43	20313
894.552	20476
894.674	20427
894.796	20218
894.918	20324
895.04	20271
895.161	20396
895.283	20343
895.405	20164
895.526	20199
895.648	20366
895.769	20275
895.891	20355
896.012	20393
896.134	20298
896.255	20221
896.376	20389
896.498	20396
896.619	20336
896.74	20408
896.861	20328
896.982	20769
897.103	20857
897.224	20602
897.345	20492
897.466	20427
897.587	20541
897.708	20655
897.828	20522
897.949	20556
898.07	20442
898.19	20503
898.311	20632
898.431	20552
898.552	20423
898.672	20629
898.792	20590
898.913	20450
899.033	20465
899.153	20320
899.273	20176
899.393	20126
899.513	20286
899.633	20278
899.753	20244
899.873	20176
899.993	20271
900.113	20214
900.232	20347
900.352	20271
900.472	20142
900.591	20065
900.711	20195
900.83	20020
900.95	20088
901.069	20119
901.189	19852
901.308	19719
901.427	19624
901.546	19613
901.665	19586
901.784	19597
901.904	19518
902.023	19514
902.141	19411
902.26	19129
902.379	19209
902.498	19122
902.617	19118
902.735	19225
902.854	19152
902.973	19118
903.091	18779
903.21	18882
903.328	18772
903.446	18734
903.565	18646
903.683	18669
903.801	18426
903.919	18574
904.038	18669
904.156	18498
904.274	18483
904.392	18308
904.51	18346
904.627	18334
904.745	18494
904.863	18399
904.981	18205
905.098	18057
905.216	18148
905.334	17996
905.451	18049
905.569	18095
905.686	18106
905.803	18076
905.921	17790
906.038	17954
906.155	17828
906.272	17729
906.389	17809
906.506	17611
906.623	17570
906.74	17627
906.857	17505
906.974	17585
907.091	17615
907.208	17771
907.324	17661
907.441	17520
907.557	17353
907.674	17334
907.79	17296
907.907	17353
908.023	17235
908.139	17334
908.256	17227
908.372	17109
908.488	17151
908.604	17060
908.72	16999
908.836	17006
908.952	17014
909.068	16991
909.184	17170
909.3	17098
909.415	16968
909.531	16991
909.647	16706
909.762	16797
909.878	16637
909.993	16881
910.108	16713
910.224	16660
910.339	16774
910.454	16725
910.57	16527
910.685	16512
910.8	16691
910.915	16538
911.03	16596
911.145	16379
911.259	16421
911.374	16265
911.489	16116
911.604	16128
911.718	15987
911.833	16051
911.947	16040
912.062	15960
912.176	16090
912.291	16067
912.405	16116
912.519	16139
912.633	16166
912.748	16063
912.862	15972
912.976	15960
913.09	15793
913.204	15823
913.318	15861
913.431	16017
913.545	15934
913.659	15915
913.772	15842
913.886	15663
914	15572
914.113	15808
914.226	15751
914.34	15751
914.453	15618
914.566	15812
914.68	15519
914.793	15481
914.906	15340
915.019	15237
915.132	15195
915.245	15283
915.358	15233
915.47	15260
915.583	15268
915.696	15226
915.809	15287
915.921	15355
916.034	15237
916.146	15222
916.259	15142
916.371	15291
916.483	15165
916.595	15165
916.708	15089
916.82	15085
916.932	15074
917.044	14952
917.156	15001
917.268	14899
917.38	14842
917.491	14918
917.603	14990
917.715	15051
917.826	14960
917.938	14739
918.049	14693
918.161	14906
918.272	14960
918.384	15089
918.495	14864
918.606	14735
918.717	14697
918.828	14697
918.939	14697
919.05	14674
919.161	14579
919.272	14484
919.383	14469
919.494	14773
919.604	14853
919.715	14651
919.826	14533
919.936	14598
920.047	14629
920.157	14674
920.267	14819
920.378	14655
920.488	14602
920.598	14861
920.708	14971
920.818	14682
920.928	14834
921.038	15020
921.148	14815
921.258	14606
921.368	14568
921.477	14427
921.587	14404
921.697	14237
921.806	14446
921.916	14191
922.025	14050
922.134	13989
922.244	13928
922.353	14065
922.462	13887
922.571	13845
922.68	13700
922.789	13571
922.898	13704
923.007	13575
923.116	13632
923.224	13674
923.333	13586
923.442	13495
923.55	13472
923.659	13491
923.767	13514
923.876	13331
923.984	13521
924.092	13339
924.201	13445
924.309	13403
924.417	13377
924.525	13331
924.633	13308
924.741	14138
924.849	13133
924.956	13217
925.064	13118
925.172	13107
925.279	13069
925.387	13091
925.494	13099
925.602	13217
925.709	13053
925.816	12951
925.924	13015
926.031	13099
926.138	12932
926.245	12996
926.352	12939
926.459	13122
926.566	13019
926.673	12897
926.779	12882
926.886	12833
926.993	12642
927.099	12620
927.206	12650
927.312	12498
927.419	12620
927.525	12627
927.631	12730
927.737	12551
927.843	12490
927.95	12315
928.056	12372
928.162	12517
928.267	12525
928.373	13160
928.479	12460
928.585	12270
928.69	12399
928.796	12429
928.901	12330
929.007	12091
929.112	12289
929.218	12247
929.323	12224
929.428	12357
929.533	12273
929.638	12064
929.743	12129
929.848	12216
929.953	12136
930.058	11969
930.163	11859
930.267	11870
930.372	12019
930.477	11828
930.581	12114
930.685	11859
930.79	11790
930.894	11817
930.998	11737
931.103	11840
931.207	11528
931.311	11421
931.415	11436
931.519	11121
931.623	11064
