Data from test_V78500241_3058.txt Node
Date: Fri Mar 25 16:02:59 CST 2022
User: usil
Spectrometer: V785-0024
Trigger mode: 0
Integration Time (sec): 4.000000E-1
Scans to average: 1
Nonlinearity correction enabled: false
Boxcar width: 0
Storing dark spectrum: false
XAxis mode: Wavelengths
Number of Pixels in Spectrum: 1024
>>>>>Begin Spectral Data<<<<<
801.071	28668
801.214	28577
801.356	28398
801.499	28405
801.641	28116
801.783	28329
801.926	28192
802.068	28223
802.211	28158
802.353	28074
802.496	27937
802.638	27778
802.78	27865
802.923	27854
803.065	27732
803.208	27892
803.35	27899
803.492	28112
803.635	28105
803.777	28067
803.919	28158
804.061	28573
804.204	28112
804.346	28150
804.488	28032
804.63	28048
804.773	28124
804.915	28173
805.057	28329
805.199	28223
805.341	28276
805.483	28238
805.626	28318
805.768	28051
805.91	28299
806.052	28379
806.194	28291
806.336	28424
806.478	28310
806.62	28337
806.762	28401
806.904	28580
807.046	28740
807.188	28805
807.33	28835
807.472	28763
807.614	28748
807.756	28778
807.898	28710
808.04	28554
808.182	28649
808.324	28618
808.465	28660
808.607	28915
808.749	28957
808.891	29037
809.033	29258
809.174	29003
809.316	29003
809.458	28972
809.6	29060
809.741	29147
809.883	29185
810.025	29273
810.166	29311
810.308	29334
810.45	29254
810.591	29261
810.733	29094
810.875	29113
811.016	28942
811.158	28976
811.299	29216
811.441	29265
811.582	29155
811.724	29071
811.865	28961
812.007	29044
812.148	29025
812.29	29010
812.431	29269
812.573	29307
812.714	29410
812.855	29592
812.997	29558
813.138	29718
813.279	29627
813.421	29581
813.562	29440
813.703	29334
813.845	29212
813.986	29022
814.127	28839
814.268	28713
814.41	28687
814.551	28729
814.692	28748
814.833	28679
814.974	28607
815.115	28797
815.256	28596
815.397	28698
815.539	28607
815.68	28523
815.821	28527
815.962	28542
816.103	28386
816.244	28390
816.385	28409
816.526	28295
816.666	28188
816.807	28097
816.948	28238
817.089	28101
817.23	28135
817.371	28124
817.512	28055
817.653	28025
817.793	27941
817.934	28131
818.075	28048
818.216	28078
818.356	28044
818.497	28002
818.638	27781
818.778	27880
818.919	28021
819.06	27960
819.2	27895
819.341	27956
819.481	28169
819.622	28192
819.762	28276
819.903	28223
820.043	28200
820.184	28261
820.324	28272
820.465	28246
820.605	27983
820.746	28169
820.886	27953
821.026	28082
821.167	27949
821.307	28200
821.447	27945
821.588	27831
821.728	27880
821.868	27606
822.008	27610
822.149	27485
822.289	27416
822.429	27184
822.569	27306
822.709	27085
822.849	26948
822.99	27184
823.13	27032
823.27	27051
823.41	26899
823.55	26777
823.69	26895
823.83	26838
823.97	26724
824.11	26606
824.25	26663
824.389	26579
824.529	26739
824.669	26682
824.809	26823
824.949	26636
825.089	26838
825.228	26819
825.368	26575
825.508	26503
825.648	26606
825.787	26514
825.927	26655
826.067	26571
826.206	26560
826.346	26613
826.485	26682
826.625	26518
826.765	26598
826.904	26682
827.044	26419
827.183	26313
827.323	26358
827.462	26286
827.601	26442
827.741	26164
827.88	26259
828.02	26164
828.159	26233
828.298	26358
828.437	26461
828.577	26206
828.716	26412
828.855	26259
828.994	26039
829.134	26012
829.273	26012
829.412	25860
829.551	25871
829.69	25849
829.829	25963
829.968	26100
830.107	25989
830.246	25944
830.385	25955
830.524	25940
830.663	25909
830.802	25738
830.941	25594
831.08	25472
831.219	25635
831.357	25647
831.496	25818
831.635	25674
831.774	25521
831.913	25438
832.051	25422
832.19	25479
832.329	25327
832.467	25339
832.606	25202
832.744	25103
832.883	25194
833.022	25202
833.16	25308
833.299	25301
833.437	25278
833.576	25308
833.714	25400
833.852	25312
833.991	25464
834.129	25346
834.267	25396
834.406	25308
834.544	25263
834.682	25270
834.821	25304
834.959	25495
835.097	25369
835.235	25449
835.373	25228
835.511	25388
835.65	25209
835.788	25164
835.926	25004
836.064	24977
836.202	25057
836.34	25301
836.478	25202
836.615	25206
836.753	25209
836.891	25183
837.029	25088
837.167	25038
837.305	24996
837.443	24951
837.58	24905
837.718	25000
837.856	24985
837.993	24939
838.131	24920
838.269	24806
838.406	24852
838.544	24897
838.681	24677
838.819	24547
838.956	24403
839.094	24448
839.231	24525
839.369	24578
839.506	24886
839.643	24669
839.781	24479
839.918	24311
840.055	24330
840.193	24407
840.33	24380
840.467	24410
840.604	24369
840.742	24669
840.879	24262
841.016	24266
841.153	24239
841.29	24521
841.427	24353
841.564	24433
841.701	24342
841.838	24209
841.975	24372
842.112	24254
842.249	24213
842.385	24190
842.522	24330
842.659	24129
842.796	24174
842.933	23996
843.069	24102
843.206	24117
843.343	24190
843.479	23999
843.616	24076
843.752	23847
843.889	23893
844.025	24049
844.162	23897
844.298	23980
844.435	23893
844.571	23790
844.708	23840
844.844	24114
844.98	23999
845.117	23950
845.253	23824
845.389	23760
845.525	23737
845.661	23676
845.798	23570
845.934	23684
846.07	23520
846.206	23707
846.342	23695
846.478	23573
846.614	23410
846.75	23239
846.886	23345
847.022	23322
847.158	23406
847.294	23296
847.429	23334
847.565	23223
847.701	23463
847.837	23067
847.972	22987
848.108	23231
848.244	23155
848.379	22923
848.515	22869
848.65	22854
848.786	22930
848.921	22885
849.057	22930
849.192	23003
849.328	22896
849.463	22987
849.598	22896
849.734	22793
849.869	22839
850.004	22607
850.14	22755
850.275	22675
850.41	22615
850.545	22668
850.68	22580
850.815	22607
850.95	22637
851.085	22847
851.22	22839
851.355	22679
851.49	22687
851.625	22672
851.76	22694
851.895	22554
852.03	22698
852.165	22645
852.299	22736
852.434	22877
852.569	22847
852.703	22793
852.838	22668
852.973	22733
853.107	22729
853.242	22592
853.376	22538
853.511	22535
853.645	22348
853.78	22592
853.914	22440
854.048	22440
854.183	22519
854.317	22523
854.451	22691
854.585	22504
854.72	22592
854.854	22523
854.988	22508
855.122	22485
855.256	22337
855.39	22466
855.524	22474
855.658	22565
855.792	22561
855.926	22424
856.06	22508
856.194	22451
856.327	22497
856.461	22497
856.595	22466
856.729	22481
856.862	22618
856.996	22577
857.13	22592
857.263	22424
857.397	22573
857.53	22375
857.664	22546
857.797	22557
857.931	22615
858.064	22573
858.197	22580
858.331	22447
858.464	22417
858.597	22325
858.731	22485
858.864	22440
858.997	22550
859.13	22424
859.263	22561
859.396	22683
859.529	22337
859.662	22538
859.795	22360
859.928	22516
860.061	22645
860.194	22664
860.327	22485
860.46	22603
860.592	22626
860.725	22634
860.858	22611
860.99	22546
861.123	22466
861.256	22447
861.388	22413
861.521	23178
861.653	22318
861.786	22291
861.918	22299
862.05	22310
862.183	22466
862.315	22405
862.447	22417
862.58	22432
862.712	22223
862.844	22177
862.976	22230
863.108	22291
863.24	22717
863.372	22150
863.504	22272
863.636	22207
863.768	22223
863.9	22238
864.032	22185
864.164	22219
864.296	22226
864.428	22261
864.559	22333
864.691	22333
864.823	22124
864.954	22371
865.086	22181
865.217	22082
865.349	22055
865.48	22093
865.612	22143
865.743	22325
865.875	22105
866.006	22090
866.137	21994
866.269	22074
866.4	22128
866.531	22074
866.662	21873
866.793	21949
866.924	22063
867.055	22013
867.186	22093
867.317	21956
867.448	21941
867.579	21998
867.71	21892
867.841	21960
867.972	21979
868.103	22090
868.233	22025
868.364	22063
868.495	21937
868.625	22246
868.756	22470
868.886	22204
869.017	22276
869.147	22371
869.278	22398
869.408	22417
869.539	22310
869.669	22363
869.799	22253
869.929	22333
870.06	22428
870.19	22512
870.32	22554
870.45	22847
870.58	22694
870.71	22729
870.84	22816
870.97	22687
871.1	22725
871.23	22790
871.36	22812
871.489	22710
871.619	22835
871.749	22927
871.879	22892
872.008	22869
872.138	22854
872.267	22957
872.397	22710
872.526	22748
872.656	22656
872.785	22729
872.915	22908
873.044	22877
873.173	22915
873.303	22866
873.432	22949
873.561	22949
873.69	22892
873.819	22930
873.948	22831
874.077	22881
874.206	22854
874.335	22801
874.464	22995
874.593	23174
874.722	23121
874.851	23181
874.979	23105
875.108	23200
875.237	23109
875.365	22968
875.494	22987
875.623	23208
875.751	23128
875.88	23170
876.008	23113
876.136	23315
876.265	23402
876.393	23600
876.521	23573
876.65	23585
876.778	23543
876.906	23429
877.034	23410
877.162	23471
877.29	23277
877.418	23417
877.546	23398
877.674	23417
877.802	23345
877.93	23402
878.058	23410
878.185	23261
878.313	23353
878.441	23334
878.568	23200
878.696	23311
878.824	23467
878.951	23455
879.079	23623
879.206	23718
879.333	23649
879.461	23478
879.588	23589
879.715	23634
879.842	23745
879.97	23482
880.097	23140
880.224	23315
880.351	23174
880.478	23326
880.605	23121
880.732	23166
880.859	23497
880.986	23318
881.112	23242
881.239	23071
881.366	22866
881.493	22923
881.619	22839
881.746	22877
881.872	22759
881.999	22809
882.125	22771
882.252	22919
882.378	22740
882.505	22881
882.631	22615
882.757	22512
882.883	22447
883.01	22474
883.136	22443
883.262	22421
883.388	22310
883.514	22500
883.64	22497
883.766	22394
883.892	22139
884.018	22268
884.143	22405
884.269	22535
884.395	22215
884.52	22097
884.646	22154
884.772	21953
884.897	22112
885.023	22051
885.148	22265
885.274	22265
885.399	22230
885.524	22207
885.65	22013
885.775	22090
885.9	22059
886.025	22211
886.15	22147
886.275	22105
886.4	21953
886.525	21930
886.65	21987
886.775	21960
886.9	22158
887.025	22306
887.149	22006
887.274	21949
887.399	21994
887.523	21850
887.648	21918
887.773	21739
887.897	22032
888.021	21975
888.146	21888
888.27	21899
888.395	21987
888.519	21869
888.643	21888
888.767	21895
888.891	21755
889.015	21762
889.139	21720
889.263	21705
889.387	21717
889.511	21911
889.635	21789
889.759	21591
889.883	21595
890.006	21709
890.13	21816
890.254	21603
890.377	21564
890.501	21450
890.624	21443
890.748	21599
890.871	21256
890.995	21157
891.118	21211
891.241	21291
891.364	21340
891.488	21310
891.611	21370
891.734	21332
891.857	21294
891.98	21340
892.103	21298
892.226	21131
892.349	21298
892.471	21070
892.594	21176
892.717	21226
892.839	21112
892.962	21268
893.085	21199
893.207	21150
893.33	21142
893.452	20998
893.575	21074
893.697	21013
893.819	21302
893.941	21291
894.064	21211
894.186	21036
894.308	21017
894.43	21233
894.552	21138
894.674	21283
894.796	21150
894.918	21138
895.04	21131
895.161	21199
895.283	21127
895.405	20990
895.526	21146
895.648	21241
895.769	21131
895.891	21154
896.012	21230
896.134	21207
896.255	21039
896.376	21028
896.498	21032
896.619	21184
896.74	21173
896.861	21108
896.982	21488
897.103	21557
897.224	21351
897.345	21321
897.466	21218
897.587	21313
897.708	21523
897.828	21389
897.949	21386
898.07	21119
898.19	21256
898.311	21405
898.431	21203
898.552	21310
898.672	21291
898.792	21332
898.913	21348
899.033	21161
899.153	21211
899.273	20998
899.393	21013
899.513	21233
899.633	21119
899.753	21058
899.873	21108
899.993	21009
900.113	20994
900.232	21009
900.352	21017
900.472	20918
900.591	20777
900.711	20807
900.83	20754
900.95	20948
901.069	20830
901.189	20693
901.308	20408
901.427	20488
901.546	20465
901.665	20336
901.784	20294
901.904	20294
902.023	20252
902.141	19978
902.26	19913
902.379	19917
902.498	19944
902.617	19875
902.735	19925
902.854	19887
902.973	19814
903.091	19556
903.21	19495
903.328	19567
903.446	19434
903.565	19225
903.683	19362
903.801	19266
903.919	19251
904.038	19316
904.156	19038
904.274	19095
904.392	19076
904.51	18962
904.627	19202
904.745	19061
904.863	19137
904.981	18882
905.098	18825
905.216	18639
905.334	18878
905.451	18848
905.569	18745
905.686	18772
905.803	18757
905.921	18517
906.038	18589
906.155	18566
906.272	18479
906.389	18509
906.506	18311
906.623	18228
906.74	18323
906.857	18258
906.974	18117
907.091	18216
907.208	18464
907.324	18239
907.441	18224
907.557	18049
907.674	18015
907.79	17893
907.907	18003
908.023	18034
908.139	17988
908.256	17923
908.372	17855
908.488	17912
908.604	17813
908.72	17638
908.836	17668
908.952	17611
909.068	17737
909.184	17802
909.3	17745
909.415	17786
909.531	17707
909.647	17566
909.762	17360
909.878	17376
909.993	17516
910.108	17448
910.224	17398
910.339	17356
910.454	17265
910.57	17292
910.685	17174
910.8	17391
910.915	17379
911.03	17090
911.145	17029
911.259	17064
911.374	17006
911.489	16934
911.604	16816
911.718	16733
911.833	16729
911.947	16702
912.062	16569
912.176	16675
912.291	16649
912.405	16713
912.519	16976
912.633	16930
912.748	16729
912.862	16702
912.976	16618
913.09	16516
913.204	16504
913.318	16478
913.431	16569
913.545	16698
913.659	16596
913.772	16466
913.886	16470
914	16314
914.113	16436
914.226	16424
914.34	16234
914.453	16265
914.566	16337
914.68	16242
914.793	16223
914.906	16044
915.019	16044
915.132	15941
915.245	15865
915.358	15915
915.47	15941
915.583	15911
915.696	15831
915.809	16002
915.921	16086
916.034	15816
916.146	15854
916.259	15781
916.371	15934
916.483	15819
916.595	15762
916.708	15701
916.82	15709
916.932	15774
917.044	15705
917.156	15553
917.268	15523
917.38	15496
917.491	15534
917.603	15469
917.715	15584
917.826	15584
917.938	15469
918.049	15435
918.161	15408
918.272	15736
918.384	15599
918.495	15507
918.606	15287
918.717	15306
918.828	15241
918.939	15283
919.05	15184
919.161	15249
919.272	14956
919.383	15188
919.494	15291
919.604	15435
919.715	15298
919.826	15104
919.936	15116
920.047	15283
920.157	15203
920.267	15443
920.378	15279
920.488	15119
920.598	15454
920.708	15492
920.818	15348
920.928	15287
921.038	15458
921.148	15412
921.258	15161
921.368	15093
921.477	15013
921.587	14937
921.697	14819
921.806	14971
921.916	14796
922.025	14769
922.134	14530
922.244	14514
922.353	14625
922.462	14495
922.571	14415
922.68	14229
922.789	14244
922.898	14206
923.007	14134
923.116	14195
923.224	14164
923.333	14142
923.442	14153
923.55	14016
923.659	14073
923.767	14103
923.876	13913
923.984	14092
924.092	13974
924.201	14005
924.309	13993
924.417	13837
924.525	13868
924.633	13951
924.741	14594
924.849	13639
924.956	13860
925.064	13670
925.172	13559
925.279	13502
925.387	13662
925.494	13628
925.602	13704
925.709	13594
925.816	13559
925.924	13537
926.031	13537
926.138	13552
926.245	13556
926.352	13457
926.459	13548
926.566	13643
926.673	13480
926.779	13251
926.886	13293
926.993	13194
927.099	13133
927.206	13080
927.312	13072
927.419	13118
927.525	13084
927.631	13137
927.737	12962
927.843	13088
927.95	12863
928.056	13004
928.162	12894
928.267	12989
928.373	13400
928.479	13084
928.585	12749
928.69	12867
928.796	12890
928.901	12825
929.007	12730
929.112	12696
929.218	12677
929.323	12642
929.428	12612
929.533	12779
929.638	12585
929.743	12559
929.848	12612
929.953	12544
930.058	12464
930.163	12323
930.267	12391
930.372	12410
930.477	12395
930.581	12517
930.685	12403
930.79	12110
930.894	12213
930.998	12155
931.103	12353
931.207	11988
931.311	11961
931.415	11756
931.519	11566
931.623	11493
