Data from test_V78500241_147.txt Node
Date: Fri Mar 25 15:42:49 CST 2022
User: usil
Spectrometer: V785-0024
Trigger mode: 0
Integration Time (sec): 4.000000E-1
Scans to average: 1
Nonlinearity correction enabled: false
Boxcar width: 0
Storing dark spectrum: false
XAxis mode: Wavelengths
Number of Pixels in Spectrum: 1024
>>>>>Begin Spectral Data<<<<<
801.071	29341
801.214	29478
801.356	29204
801.499	29159
801.641	29067
801.783	28946
801.926	29029
802.068	28957
802.211	28809
802.353	28759
802.496	28672
802.638	28599
802.78	28634
802.923	28542
803.065	28459
803.208	28443
803.35	28713
803.492	28634
803.635	28854
803.777	28516
803.919	28755
804.061	28915
804.204	28824
804.346	28618
804.488	28546
804.63	28672
804.773	28573
804.915	28637
805.057	28717
805.199	28584
805.341	28733
805.483	28698
805.626	28847
805.768	28725
805.91	28793
806.052	28763
806.194	28771
806.336	28824
806.478	28843
806.62	28801
806.762	28980
806.904	29143
807.046	29235
807.188	29212
807.33	29189
807.472	29041
807.614	29033
807.756	29060
807.898	28957
808.04	28831
808.182	28873
808.324	28984
808.465	28896
808.607	29079
808.749	29318
808.891	29296
809.033	29505
809.174	29444
809.316	29292
809.458	29330
809.6	29311
809.741	29265
809.883	29414
810.025	29505
810.166	29558
810.308	29585
810.45	29395
810.591	29516
810.733	29193
810.875	29292
811.016	29254
811.158	29246
811.299	29227
811.441	29433
811.582	29318
811.724	29273
811.865	29246
812.007	29162
812.148	29261
812.29	29296
812.431	29539
812.573	29497
812.714	29482
812.855	29668
812.997	29798
813.138	29999
813.279	29893
813.421	29707
813.562	29748
813.703	29516
813.845	29486
813.986	29121
814.127	28995
814.268	28923
814.41	28862
814.551	28892
814.692	28866
814.833	28797
814.974	28816
815.115	29003
815.256	28771
815.397	28793
815.539	28573
815.68	28508
815.821	28542
815.962	28508
816.103	28485
816.244	28432
816.385	28192
816.526	28318
816.666	28276
816.807	28109
816.948	28002
817.089	28101
817.23	28105
817.371	27941
817.512	27926
817.653	28040
817.793	27865
817.934	28013
818.075	27895
818.216	27979
818.356	27892
818.497	27861
818.638	27736
818.778	27557
818.919	27705
819.06	27732
819.2	27888
819.341	27774
819.481	27766
819.622	28044
819.762	28135
819.903	28078
820.043	28013
820.184	28025
820.324	27941
820.465	28048
820.605	28029
820.746	27880
820.886	27800
821.026	27736
821.167	27926
821.307	28013
821.447	27876
821.588	27686
821.728	27572
821.868	27298
822.008	27378
822.149	27275
822.289	27241
822.429	26979
822.569	26910
822.709	26902
822.849	26735
822.99	26720
823.13	26724
823.27	26564
823.41	26564
823.55	26541
823.69	26594
823.83	26434
823.97	26476
824.11	26309
824.25	26393
824.389	26267
824.529	26385
824.669	26248
824.809	26385
824.949	26267
825.089	26461
825.228	26347
825.368	26157
825.508	26149
825.648	26210
825.787	26252
825.927	26138
826.067	26043
826.206	26107
826.346	26039
826.485	26244
826.625	26107
826.765	26168
826.904	26100
827.044	25845
827.183	25883
827.323	25883
827.462	25890
827.601	25830
827.741	25811
827.88	25830
828.02	25750
828.159	25830
828.298	25788
828.437	25860
828.577	25769
828.716	25921
828.855	25738
828.994	25483
829.134	25521
829.273	25449
829.412	25434
829.551	25548
829.69	25632
829.829	25438
829.968	25479
830.107	25582
830.246	25518
830.385	25308
830.524	25419
830.663	25160
830.802	25129
830.941	25057
831.08	25004
831.219	25023
831.357	25015
831.496	25175
831.635	25019
831.774	24939
831.913	24871
832.051	24829
832.19	24741
832.329	24802
832.467	24646
832.606	24486
832.744	24574
832.883	24635
833.022	24582
833.16	24665
833.299	24654
833.437	24696
833.576	24646
833.714	24673
833.852	24658
833.991	24646
834.129	24745
834.267	24768
834.406	24623
834.544	24570
834.682	24684
834.821	24483
834.959	24783
835.097	24490
835.235	24528
835.373	24483
835.511	24532
835.65	24486
835.788	24505
835.926	24426
836.064	24311
836.202	24190
836.34	24429
836.478	24452
836.615	24544
836.753	24346
836.891	24566
837.029	24505
837.167	24372
837.305	24369
837.443	24254
837.58	24327
837.718	24266
837.856	24270
837.993	24224
838.131	24159
838.269	24095
838.406	24163
838.544	23923
838.681	23889
838.819	23836
838.956	23646
839.094	23657
839.231	23767
839.369	23775
839.506	24034
839.643	23901
839.781	23653
839.918	23646
840.055	23657
840.193	23501
840.33	23478
840.467	23520
840.604	23638
840.742	23741
840.879	23406
841.016	23478
841.153	23417
841.29	23695
841.427	23551
841.564	23512
841.701	23627
841.838	23516
841.975	23345
842.112	23459
842.249	23379
842.385	23258
842.522	23425
842.659	23239
842.796	23117
842.933	23254
843.069	23200
843.206	23200
843.343	23322
843.479	23124
843.616	23162
843.752	22858
843.889	23052
844.025	23022
844.162	22946
844.298	22995
844.435	23109
844.571	22782
844.708	22896
844.844	23132
844.98	23079
845.117	22987
845.253	22877
845.389	22816
845.525	22759
845.661	22733
845.798	22653
845.934	22641
846.07	22668
846.206	22729
846.342	22771
846.478	22710
846.614	22447
846.75	22314
846.886	22314
847.022	22386
847.158	22322
847.294	22405
847.429	22360
847.565	22268
847.701	22626
847.837	22086
847.972	21994
848.108	22112
848.244	22162
848.379	22029
848.515	21835
848.65	21960
848.786	21884
848.921	21899
849.057	22006
849.192	22063
849.328	21922
849.463	21903
849.598	21895
849.734	21759
849.869	21660
850.004	21690
850.14	21739
850.275	21595
850.41	21530
850.545	21545
850.68	21675
850.815	21652
850.95	21644
851.085	21789
851.22	21770
851.355	21622
851.49	21549
851.625	21622
851.76	21606
851.895	21450
852.03	21431
852.165	21572
852.299	21519
852.434	21713
852.569	21671
852.703	21545
852.838	21660
852.973	21720
853.107	21698
853.242	21644
853.376	21488
853.511	21325
853.645	21382
853.78	21500
853.914	21443
854.048	21386
854.183	21310
854.317	21519
854.451	21637
854.585	21389
854.72	21336
854.854	21435
854.988	21393
855.122	21382
855.256	21233
855.39	21386
855.524	21473
855.658	21428
855.792	21466
855.926	21329
856.06	21355
856.194	21420
856.327	21416
856.461	21412
856.595	21389
856.729	21488
856.862	21492
856.996	21447
857.13	21405
857.263	21450
857.397	21610
857.53	21443
857.664	21405
857.797	21469
857.931	21466
858.064	21469
858.197	21534
858.331	21367
858.464	21370
858.597	21279
858.731	21405
858.864	21287
858.997	21268
859.13	21294
859.263	21351
859.396	21485
859.529	21256
859.662	21298
859.795	21241
859.928	21329
860.061	21397
860.194	21492
860.327	21359
860.46	21389
860.592	21389
860.725	21515
860.858	21325
860.99	21450
861.123	21226
861.256	21161
861.388	21332
861.521	21956
861.653	21184
861.786	21108
861.918	21188
862.05	21214
862.183	21302
862.315	21420
862.447	21397
862.58	21332
862.712	21188
862.844	21001
862.976	21214
863.108	21180
863.24	21450
863.372	20994
863.504	20986
863.636	20925
863.768	21028
863.9	21066
864.032	20994
864.164	20963
864.296	20975
864.428	21036
864.559	21100
864.691	21108
864.823	21062
864.954	21001
865.086	21039
865.217	21066
865.349	20792
865.48	20902
865.612	20929
865.743	21047
865.875	20842
866.006	20834
866.137	20982
866.269	21020
866.4	20906
866.531	20834
866.662	20845
866.793	20880
866.924	20895
867.055	20872
867.186	20800
867.317	20800
867.448	20735
867.579	20792
867.71	20815
867.841	20705
867.972	20811
868.103	20762
868.233	20781
868.364	20800
868.495	20925
868.625	20979
868.756	21192
868.886	21028
869.017	21085
869.147	21146
869.278	21150
869.408	21127
869.539	21074
869.669	21138
869.799	21100
869.929	21077
870.06	21135
870.19	21424
870.32	21344
870.45	21397
870.58	21466
870.71	21496
870.84	21625
870.97	21523
871.1	21431
871.23	21755
871.36	21762
871.489	21606
871.619	21652
871.749	21534
871.879	21739
872.008	21770
872.138	21694
872.267	21652
872.397	21545
872.526	21405
872.656	21401
872.785	21523
872.915	21663
873.044	21781
873.173	21625
873.303	21625
873.432	21762
873.561	21663
873.69	21690
873.819	21564
873.948	21717
874.077	21698
874.206	21542
874.335	21717
874.464	21804
874.593	21979
874.722	21998
874.851	22013
874.979	21876
875.108	21960
875.237	21979
875.365	21728
875.494	21922
875.623	21964
875.751	21991
875.88	21850
876.008	21956
876.136	22265
876.265	22181
876.393	22432
876.521	22375
876.65	22379
876.778	22363
876.906	22310
877.034	22162
877.162	22322
877.29	22230
877.418	22192
877.546	22261
877.674	22207
877.802	22173
877.93	22322
878.058	22257
878.185	22177
878.313	22257
878.441	22215
878.568	22341
878.696	22211
878.824	22322
878.951	22344
879.079	22497
879.206	22611
879.333	22386
879.461	22253
879.588	22306
879.715	22360
879.842	22485
879.97	22280
880.097	22139
880.224	22017
880.351	22150
880.478	22051
880.605	21972
880.732	22124
880.859	22287
880.986	22150
881.112	22226
881.239	22097
881.366	21823
881.493	21762
881.619	21770
881.746	21633
881.872	21633
881.999	21694
882.125	21599
882.252	21766
882.378	21705
882.505	21713
882.631	21534
882.757	21355
882.883	21405
883.01	21336
883.136	21386
883.262	21382
883.388	21317
883.514	21416
883.64	21405
883.766	21344
883.892	21275
884.018	21222
884.143	21344
884.269	21405
884.395	21108
884.52	21001
884.646	21093
884.772	21085
884.897	21020
885.023	21013
885.148	21116
885.274	21214
885.399	21226
885.524	21077
885.65	21036
885.775	21017
885.9	20944
886.025	21142
886.15	21135
886.275	20868
886.4	20918
886.525	21017
886.65	21020
886.775	20845
886.9	21157
887.025	21184
887.149	20967
887.274	20788
887.399	20868
887.523	20864
887.648	20720
887.773	20731
887.897	20830
888.021	20758
888.146	20701
888.27	20876
888.395	20864
888.519	20769
888.643	20762
888.767	20823
888.891	20716
889.015	20473
889.139	20537
889.263	20537
889.387	20609
889.511	20693
889.635	20785
889.759	20438
889.883	20381
890.006	20579
890.13	20617
890.254	20488
890.377	20396
890.501	20282
890.624	20134
890.748	20427
890.871	20145
890.995	20130
891.118	20016
891.241	20119
891.364	20065
891.488	20195
891.611	20031
891.734	20096
891.857	20103
891.98	20046
892.103	20024
892.226	20122
892.349	20092
892.471	19936
892.594	19982
892.717	20001
892.839	19963
892.962	20096
893.085	20119
893.207	20138
893.33	19963
893.452	19932
893.575	20073
893.697	19993
893.819	20122
893.941	20278
894.064	20161
894.186	19913
894.308	19959
894.43	20062
894.552	20225
894.674	19997
894.796	20027
894.918	19864
895.04	20145
895.161	20058
895.283	20058
895.405	19909
895.526	20046
895.648	19883
895.769	20077
895.891	20046
896.012	20119
896.134	20122
896.255	20062
896.376	20157
896.498	20096
896.619	20218
896.74	20035
896.861	20153
896.982	20461
897.103	20621
897.224	20248
897.345	20282
897.466	20351
897.587	20263
897.708	20374
897.828	20305
897.949	20237
898.07	20092
898.19	20172
898.311	20233
898.431	20187
898.552	20153
898.672	20343
898.792	20298
898.913	20324
899.033	20187
899.153	19974
899.273	20012
899.393	19959
899.513	20005
899.633	19947
899.753	19940
899.873	19883
899.993	20005
900.113	19940
900.232	19951
900.352	19837
900.472	19704
900.591	19784
900.711	19822
900.83	19620
900.95	19746
901.069	19940
901.189	19594
901.308	19411
901.427	19259
901.546	19335
901.665	19335
901.784	19400
901.904	19187
902.023	19027
902.141	18890
902.26	18909
902.379	18970
902.498	18844
902.617	18738
902.735	18817
902.854	18844
902.973	18585
903.091	18486
903.21	18460
903.328	18422
903.446	18395
903.565	18292
903.683	18258
903.801	18239
903.919	18365
904.038	18201
904.156	18072
904.274	18213
904.392	18019
904.51	18019
904.627	18015
904.745	18155
904.863	18152
904.981	17870
905.098	17752
905.216	17729
905.334	17726
905.451	17863
905.569	17627
905.686	17714
905.803	17764
905.921	17516
906.038	17615
906.155	17459
906.272	17254
906.389	17364
906.506	17269
906.623	17246
906.74	17204
906.857	17098
906.974	17102
907.091	17280
907.208	17322
907.324	17170
907.441	17200
907.557	16976
907.674	16885
907.79	16847
907.907	16896
908.023	17064
908.139	16949
908.256	16934
908.372	16816
908.488	16759
908.604	16683
908.72	16519
908.836	16565
908.952	16573
909.068	16588
909.184	16630
909.3	16622
909.415	16603
909.531	16519
909.647	16341
909.762	16246
909.878	16261
909.993	16253
910.108	16257
910.224	16192
910.339	16268
910.454	16242
910.57	16029
910.685	16074
910.8	16253
910.915	16238
911.03	16105
911.145	15907
911.259	15926
911.374	15861
911.489	15819
911.604	15854
911.718	15671
911.833	15606
911.947	15538
912.062	15504
912.176	15648
912.291	15561
912.405	15629
912.519	15789
912.633	15842
912.748	15759
912.862	15660
912.976	15420
913.09	15344
913.204	15340
913.318	15389
913.431	15477
913.545	15435
913.659	15538
913.772	15443
913.886	15291
914	15214
914.113	15287
914.226	15359
914.34	15188
914.453	15100
914.566	15222
914.68	15226
914.793	15020
914.906	14887
915.019	14853
915.132	14731
915.245	14941
915.358	14842
915.47	14830
915.583	14823
915.696	14765
915.809	14982
915.921	14941
916.034	14796
916.146	14773
916.259	14720
916.371	14800
916.483	14800
916.595	14651
916.708	14678
916.82	14670
916.932	14663
917.044	14606
917.156	14575
917.268	14396
917.38	14522
917.491	14495
917.603	14560
917.715	14480
917.826	14560
917.938	14385
918.049	14355
918.161	14431
918.272	14526
918.384	14415
918.495	14526
918.606	14286
918.717	14259
918.828	14263
918.939	14218
919.05	14176
919.161	14271
919.272	13959
919.383	14088
919.494	14286
919.604	14374
919.715	14092
919.826	14199
919.936	14199
920.047	14256
920.157	14153
920.267	14415
920.378	14172
920.488	14145
920.598	14320
920.708	14484
920.818	14385
920.928	14153
921.038	14465
921.148	14465
921.258	14008
921.368	14054
921.477	13967
921.587	13970
921.697	13791
921.806	13978
921.916	13795
922.025	13715
922.134	13605
922.244	13525
922.353	13620
922.462	13304
922.571	13301
922.68	13289
922.789	13141
922.898	13187
923.007	13179
923.116	13194
923.224	13149
923.333	13202
923.442	13076
923.55	12989
923.659	13057
923.767	13031
923.876	12905
923.984	12973
924.092	12905
924.201	12993
924.309	12856
924.417	12901
924.525	12878
924.633	12833
924.741	13601
924.849	12696
924.956	12882
925.064	12719
925.172	12574
925.279	12597
925.387	12741
925.494	12627
925.602	12688
925.709	12627
925.816	12467
925.924	12513
926.031	12726
926.138	12597
926.245	12604
926.352	12525
926.459	12642
926.566	12650
926.673	12441
926.779	12372
926.886	12433
926.993	12232
927.099	12273
927.206	12190
927.312	12133
927.419	12308
927.525	12194
927.631	12205
927.737	12125
927.843	12049
927.95	11939
928.056	12068
928.162	12083
928.267	12068
928.373	12734
928.479	12034
928.585	11805
928.69	11984
928.796	12041
928.901	11904
929.007	11767
929.112	11923
929.218	11942
929.323	11805
929.428	11779
929.533	11874
929.638	11653
929.743	11752
929.848	11786
929.953	11642
930.058	11615
930.163	11433
930.267	11535
930.372	11535
930.477	11353
930.581	11619
930.685	11474
930.79	11387
930.894	11429
930.998	11292
931.103	11414
931.207	11037
931.311	10961
931.415	10930
931.519	10660
931.623	10687
