Data from test_V78500241_2656.txt Node
Date: Fri Mar 25 16:00:11 CST 2022
User: usil
Spectrometer: V785-0024
Trigger mode: 0
Integration Time (sec): 4.000000E-1
Scans to average: 1
Nonlinearity correction enabled: false
Boxcar width: 0
Storing dark spectrum: false
XAxis mode: Wavelengths
Number of Pixels in Spectrum: 1024
>>>>>Begin Spectral Data<<<<<
801.071	28672
801.214	28698
801.356	28466
801.499	28333
801.641	28196
801.783	28162
801.926	28348
802.068	28196
802.211	28238
802.353	28192
802.496	27914
802.638	27972
802.78	27991
802.923	27861
803.065	27686
803.208	27964
803.35	27911
803.492	28143
803.635	28188
803.777	28044
803.919	28261
804.061	28550
804.204	28070
804.346	28135
804.488	28120
804.63	28128
804.773	28040
804.915	28215
805.057	28306
805.199	28177
805.341	28314
805.483	28310
805.626	28200
805.768	28284
805.91	28386
806.052	28257
806.194	28234
806.336	28599
806.478	28405
806.62	28409
806.762	28485
806.904	28596
807.046	28790
807.188	28736
807.33	28934
807.472	28824
807.614	28816
807.756	28778
807.898	28721
808.04	28527
808.182	28645
808.324	28645
808.465	28793
808.607	28930
808.749	29064
808.891	29193
809.033	29086
809.174	29060
809.316	28923
809.458	29178
809.6	28968
809.741	29048
809.883	29250
810.025	29353
810.166	29395
810.308	29353
810.45	29246
810.591	29227
810.733	29052
810.875	28911
811.016	28847
811.158	28885
811.299	29220
811.441	29200
811.582	29307
811.724	29083
811.865	28930
812.007	28942
812.148	29079
812.29	29181
812.431	29296
812.573	29512
812.714	29429
812.855	29471
812.997	29562
813.138	29870
813.279	29802
813.421	29524
813.562	29535
813.703	29372
813.845	29330
813.986	28934
814.127	28938
814.268	28809
814.41	28713
814.551	28599
814.692	28858
814.833	28725
814.974	28763
815.115	28759
815.256	28641
815.397	28618
815.539	28542
815.68	28573
815.821	28497
815.962	28573
816.103	28561
816.244	28386
816.385	28299
816.526	28352
816.666	27907
816.807	28002
816.948	28101
817.089	28169
817.23	28044
817.371	28112
817.512	27994
817.653	28105
817.793	27964
817.934	27994
818.075	28078
818.216	28059
818.356	27945
818.497	27842
818.638	27660
818.778	27831
818.919	27778
819.06	27899
819.2	28040
819.341	28070
819.481	27975
819.622	28344
819.762	28493
819.903	28318
820.043	28295
820.184	28158
820.324	28131
820.465	28314
820.605	28280
820.746	28093
820.886	27968
821.026	28116
821.167	28158
821.307	28242
821.447	28128
821.588	27888
821.728	27838
821.868	27743
822.008	27488
822.149	27507
822.289	27439
822.429	27427
822.569	27329
822.709	27264
822.849	27142
822.99	27089
823.13	26952
823.27	26982
823.41	26842
823.55	26834
823.69	26921
823.83	26845
823.97	26674
824.11	26629
824.25	26651
824.389	26735
824.529	26765
824.669	26750
824.809	26872
824.949	26781
825.089	26724
825.228	26746
825.368	26587
825.508	26530
825.648	26564
825.787	26659
825.927	26526
826.067	26587
826.206	26549
826.346	26568
826.485	26598
826.625	26556
826.765	26552
826.904	26678
827.044	26309
827.183	26343
827.323	26263
827.462	26457
827.601	26282
827.741	26271
827.88	26313
828.02	26259
828.159	26138
828.298	26115
828.437	26377
828.577	26256
828.716	26317
828.855	26240
828.994	25989
829.134	25951
829.273	25986
829.412	25951
829.551	26035
829.69	25917
829.829	26126
829.968	26096
830.107	25966
830.246	26005
830.385	25902
830.524	25830
830.663	25909
830.802	25727
830.941	25609
831.08	25499
831.219	25540
831.357	25677
831.496	25868
831.635	25674
831.774	25441
831.913	25499
832.051	25430
832.19	25293
832.329	25354
832.467	25240
832.606	25251
832.744	25107
832.883	25187
833.022	25236
833.16	25236
833.299	25381
833.437	25327
833.576	25221
833.714	25285
833.852	25377
833.991	25304
834.129	25350
834.267	25403
834.406	25266
834.544	25343
834.682	25282
834.821	25285
834.959	25499
835.097	25297
835.235	25350
835.373	25236
835.511	25266
835.65	25114
835.788	25183
835.926	24920
836.064	25012
836.202	24996
836.34	25194
836.478	25145
836.615	25110
836.753	25012
836.891	25232
837.029	25053
837.167	25129
837.305	25004
837.443	25012
837.58	25004
837.718	25156
837.856	24973
837.993	24970
838.131	24882
838.269	24802
838.406	24897
838.544	24741
838.681	24616
838.819	24601
838.956	24391
839.094	24433
839.231	24395
839.369	24669
839.506	24890
839.643	24741
839.781	24574
839.918	24414
840.055	24350
840.193	24498
840.33	24300
840.467	24296
840.604	24361
840.742	24532
840.879	24251
841.016	24380
841.153	24152
841.29	24372
841.427	24159
841.564	24330
841.701	24323
841.838	24243
841.975	24330
842.112	24372
842.249	24228
842.385	24148
842.522	24315
842.659	24144
842.796	23984
842.933	24171
843.069	24034
843.206	24095
843.343	24289
843.479	24171
843.616	24030
843.752	23855
843.889	23939
844.025	24022
844.162	24087
844.298	24003
844.435	23790
844.571	23859
844.708	23942
844.844	23965
844.98	23973
845.117	23908
845.253	23790
845.389	23630
845.525	23874
845.661	23627
845.798	23623
845.934	23726
846.07	23551
846.206	23623
846.342	23813
846.478	23566
846.614	23372
846.75	23330
846.886	23208
847.022	23455
847.158	23307
847.294	23258
847.429	23178
847.565	23288
847.701	23531
847.837	22980
847.972	23086
848.108	23140
848.244	23151
848.379	22896
848.515	22957
848.65	22904
848.786	22889
848.921	22889
849.057	23041
849.192	22984
849.328	22953
849.463	22934
849.598	22991
849.734	22828
849.869	22862
850.004	22679
850.14	22740
850.275	22607
850.41	22535
850.545	22683
850.68	22580
850.815	22790
850.95	22675
851.085	22923
851.22	22869
851.355	22656
851.49	22493
851.625	22573
851.76	22809
851.895	22649
852.03	22622
852.165	22584
852.299	22710
852.434	22752
852.569	22733
852.703	22706
852.838	22793
852.973	22713
853.107	22900
853.242	22660
853.376	22664
853.511	22432
853.645	22390
853.78	22584
853.914	22592
854.048	22424
854.183	22493
854.317	22607
854.451	22710
854.585	22462
854.72	22512
854.854	22717
854.988	22436
855.122	22451
855.256	22371
855.39	22523
855.524	22607
855.658	22523
855.792	22470
855.926	22481
856.06	22519
856.194	22702
856.327	22519
856.461	22523
856.595	22504
856.729	22519
856.862	22459
856.996	22493
857.13	22542
857.263	22599
857.397	22485
857.53	22409
857.664	22615
857.797	22618
857.931	22565
858.064	22542
858.197	22500
858.331	22424
858.464	22462
858.597	22348
858.731	22497
858.864	22466
858.997	22443
859.13	22432
859.263	22493
859.396	22561
859.529	22516
859.662	22478
859.795	22314
859.928	22481
860.061	22641
860.194	22573
860.327	22459
860.46	22580
860.592	22615
860.725	22561
860.858	22569
860.99	22398
861.123	22478
861.256	22409
861.388	22500
861.521	23181
861.653	22402
861.786	22265
861.918	22325
862.05	22322
862.183	22394
862.315	22409
862.447	22550
862.58	22478
862.712	22295
862.844	22131
862.976	22238
863.108	22325
863.24	22569
863.372	22147
863.504	22215
863.636	22196
863.768	22135
863.9	22303
864.032	22051
864.164	22162
864.296	22207
864.428	22314
864.559	22219
864.691	22215
864.823	22234
864.954	22303
865.086	22215
865.217	22147
865.349	21991
865.48	22116
865.612	22036
865.743	22284
865.875	22078
866.006	22082
866.137	22029
866.269	21983
866.4	22078
866.531	22017
866.662	22105
866.793	21926
866.924	21991
867.055	21876
867.186	22109
867.317	21911
867.448	21975
867.579	22063
867.71	22025
867.841	21968
867.972	22006
868.103	21953
868.233	21998
868.364	22097
868.495	22128
868.625	22253
868.756	22356
868.886	22207
869.017	22310
869.147	22360
869.278	22356
869.408	22215
869.539	22230
869.669	22181
869.799	22185
869.929	22379
870.06	22314
870.19	22531
870.32	22611
870.45	22459
870.58	22630
870.71	22755
870.84	22672
870.97	22512
871.1	22603
871.23	22854
871.36	22889
871.489	22759
871.619	22900
871.749	22965
871.879	22923
872.008	22873
872.138	22866
872.267	22923
872.397	22653
872.526	22679
872.656	22668
872.785	22577
872.915	22900
873.044	22976
873.173	22881
873.303	22987
873.432	22866
873.561	23079
873.69	22858
873.819	22850
873.948	22949
874.077	22930
874.206	22881
874.335	22892
874.464	23083
874.593	23067
874.722	22976
874.851	23140
874.979	23113
875.108	23083
875.237	22942
875.365	22984
875.494	23151
875.623	23151
875.751	22999
875.88	23121
876.008	23235
876.136	23273
876.265	23402
876.393	23524
876.521	23543
876.65	23554
876.778	23482
876.906	23307
877.034	23417
877.162	23524
877.29	23497
877.418	23444
877.546	23398
877.674	23372
877.802	23505
877.93	23452
878.058	23341
878.185	23147
878.313	23318
878.441	23288
878.568	23288
878.696	23322
878.824	23452
878.951	23539
879.079	23516
879.206	23691
879.333	23558
879.461	23436
879.588	23493
879.715	23676
879.842	23687
879.97	23535
880.097	23326
880.224	23364
880.351	23334
880.478	23337
880.605	23197
880.732	23140
880.859	23395
880.986	23235
881.112	23250
881.239	23041
881.366	23018
881.493	22896
881.619	22782
881.746	22862
881.872	22824
881.999	22771
882.125	22778
882.252	22763
882.378	22725
882.505	22877
882.631	22797
882.757	22451
882.883	22554
883.01	22436
883.136	22527
883.262	22348
883.388	22314
883.514	22557
883.64	22519
883.766	22371
883.892	22219
884.018	22185
884.143	22337
884.269	22428
884.395	22272
884.52	22067
884.646	22105
884.772	22036
884.897	21937
885.023	22109
885.148	22276
885.274	22265
885.399	22253
885.524	22109
885.65	22109
885.775	22196
885.9	22116
886.025	22181
886.15	22310
886.275	22082
886.4	22063
886.525	22173
886.65	21907
886.775	22112
886.9	22185
887.025	22322
887.149	21934
887.274	21869
887.399	21835
887.523	21911
887.648	21838
887.773	21747
887.897	21884
888.021	21861
888.146	21690
888.27	21930
888.395	22013
888.519	21949
888.643	21850
888.767	21759
888.891	21774
889.015	21778
889.139	21827
889.263	21572
889.387	21774
889.511	21880
889.635	21861
889.759	21606
889.883	21625
890.006	21713
890.13	21720
890.254	21469
890.377	21481
890.501	21519
890.624	21359
890.748	21454
890.871	21325
890.995	21237
891.118	21214
891.241	21207
891.364	21161
891.488	21393
891.611	21260
891.734	21127
891.857	21165
891.98	21237
892.103	21252
892.226	21214
892.349	21226
892.471	20990
892.594	21199
892.717	21043
892.839	21252
892.962	20986
893.085	21192
893.207	21096
893.33	20944
893.452	21131
893.575	21142
893.697	20979
893.819	21252
893.941	21275
894.064	21264
894.186	20967
894.308	20925
894.43	21119
894.552	21207
894.674	21192
894.796	21062
894.918	21096
895.04	21104
895.161	21233
895.283	21104
895.405	21077
895.526	21066
895.648	20960
895.769	21135
895.891	21165
896.012	21173
896.134	21165
896.255	21135
896.376	21028
896.498	21062
896.619	21127
896.74	21009
896.861	21123
896.982	21386
897.103	21519
897.224	21306
897.345	21321
897.466	21241
897.587	21245
897.708	21443
897.828	21268
897.949	21355
898.07	21085
898.19	21161
898.311	21348
898.431	21268
898.552	21211
898.672	21230
898.792	21325
898.913	21321
899.033	21222
899.153	21074
899.273	21001
899.393	20998
899.513	21119
899.633	21047
899.753	20921
899.873	20830
899.993	21108
900.113	21024
900.232	21028
900.352	20902
900.472	20891
900.591	20777
900.711	20651
900.83	20629
900.95	20746
901.069	20868
901.189	20697
901.308	20454
901.427	20412
901.546	20298
901.665	20305
901.784	20282
901.904	20092
902.023	20157
902.141	19864
902.26	19963
902.379	19967
902.498	19791
902.617	19894
902.735	20016
902.854	19750
902.973	19715
903.091	19491
903.21	19556
903.328	19521
903.446	19510
903.565	19282
903.683	19316
903.801	19217
903.919	19316
904.038	19308
904.156	19019
904.274	19160
904.392	19107
904.51	19050
904.627	19046
904.745	19042
904.863	19133
904.981	18886
905.098	18585
905.216	18730
905.334	18734
905.451	18692
905.569	18620
905.686	18806
905.803	18711
905.921	18506
906.038	18639
906.155	18536
906.272	18429
906.389	18407
906.506	18182
906.623	18315
906.74	18247
906.857	18121
906.974	18095
907.091	18315
907.208	18323
907.324	18270
907.441	18216
907.557	17988
907.674	17939
907.79	17901
907.907	17969
908.023	18095
908.139	17908
908.256	17855
908.372	17824
908.488	17821
908.604	17714
908.72	17615
908.836	17718
908.952	17627
909.068	17653
909.184	17714
909.3	17687
909.415	17748
909.531	17653
909.647	17452
909.762	17349
909.878	17345
909.993	17440
910.108	17299
910.224	17223
910.339	17330
910.454	17250
910.57	17064
910.685	17174
910.8	17417
910.915	17307
911.03	17200
911.145	17086
911.259	16904
911.374	16949
911.489	16904
911.604	16763
911.718	16660
911.833	16698
911.947	16630
912.062	16523
912.176	16675
912.291	16672
912.405	16721
912.519	16850
912.633	16881
912.748	16729
912.862	16736
912.976	16455
913.09	16413
913.204	16417
913.318	16550
913.431	16641
913.545	16443
913.659	16538
913.772	16485
913.886	16325
914	16310
914.113	16322
914.226	16436
914.34	16257
914.453	16226
914.566	16299
914.68	16112
914.793	16116
914.906	15991
915.019	15808
915.132	15983
915.245	15850
915.358	15911
915.47	15884
915.583	15880
915.696	15865
915.809	15987
915.921	15876
916.034	15831
916.146	15793
916.259	15637
916.371	15888
916.483	15747
916.595	15644
916.708	15614
916.82	15705
916.932	15663
917.044	15610
917.156	15545
917.268	15477
917.38	15530
917.491	15481
917.603	15545
917.715	15454
917.826	15587
917.938	15397
918.049	15325
918.161	15378
918.272	15545
918.384	15431
918.495	15447
918.606	15211
918.717	15272
918.828	15173
918.939	15329
919.05	15085
919.161	15264
919.272	15066
919.383	15062
919.494	15291
919.604	15412
919.715	15138
919.826	15070
919.936	15150
920.047	15233
920.157	15203
920.267	15420
920.378	15066
920.488	15070
920.598	15321
920.708	15355
920.818	15397
920.928	15351
921.038	15477
921.148	15450
921.258	15188
921.368	15097
921.477	14956
921.587	14807
921.697	14727
921.806	14899
921.916	14712
922.025	14644
922.134	14514
922.244	14473
922.353	14629
922.462	14488
922.571	14427
922.68	14172
922.789	14210
922.898	14195
923.007	14149
923.116	14153
923.224	14145
923.333	14123
923.442	14020
923.55	13997
923.659	14008
923.767	14046
923.876	14027
923.984	14046
924.092	13856
924.201	13940
924.309	13947
924.417	13890
924.525	13837
924.633	13784
924.741	14777
924.849	13696
924.956	13765
925.064	13582
925.172	13430
925.279	13510
925.387	13556
925.494	13658
925.602	13677
925.709	13472
925.816	13514
925.924	13449
926.031	13597
926.138	13518
926.245	13518
926.352	13422
926.459	13544
926.566	13571
926.673	13491
926.779	13289
926.886	13316
926.993	13190
927.099	13069
927.206	13027
927.312	13141
927.419	13221
927.525	13133
927.631	13008
927.737	13034
927.843	12951
927.95	12798
928.056	12977
928.162	12909
928.267	12905
928.373	13388
928.479	12943
928.585	12726
928.69	12947
928.796	12875
928.901	12696
929.007	12616
929.112	12688
929.218	12642
929.323	12711
929.428	12627
929.533	12768
929.638	12559
929.743	12578
929.848	12654
929.953	12506
930.058	12414
930.163	12296
930.267	12296
930.372	12410
930.477	12239
930.581	12426
930.685	12285
930.79	12129
930.894	12197
930.998	12155
931.103	12186
931.207	11927
931.311	11729
931.415	11726
931.519	11497
931.623	11585
