Data from test_V78500241_1824.txt Node
Date: Fri Mar 25 15:54:26 CST 2022
User: usil
Spectrometer: V785-0024
Trigger mode: 0
Integration Time (sec): 4.000000E-1
Scans to average: 1
Nonlinearity correction enabled: false
Boxcar width: 0
Storing dark spectrum: false
XAxis mode: Wavelengths
Number of Pixels in Spectrum: 1024
>>>>>Begin Spectral Data<<<<<
801.071	28611
801.214	28599
801.356	28466
801.499	28295
801.641	28158
801.783	28177
801.926	28147
802.068	28112
802.211	28112
802.353	28025
802.496	27972
802.638	27838
802.78	27956
802.923	27888
803.065	27854
803.208	27797
803.35	27793
803.492	27960
803.635	28105
803.777	28029
803.919	28067
804.061	28382
804.204	28192
804.346	28078
804.488	28032
804.63	27956
804.773	27972
804.915	28204
805.057	28379
805.199	28173
805.341	28200
805.483	28265
805.626	28219
805.768	28131
805.91	28291
806.052	28310
806.194	28090
806.336	28382
806.478	28234
806.62	28325
806.762	28337
806.904	28466
807.046	28847
807.188	28694
807.33	28683
807.472	28782
807.614	28596
807.756	28752
807.898	28512
808.04	28489
808.182	28455
808.324	28512
808.465	28538
808.607	28778
808.749	28839
808.891	29018
809.033	29029
809.174	28930
809.316	28987
809.458	28968
809.6	28847
809.741	29048
809.883	29083
810.025	29254
810.166	29273
810.308	29246
810.45	29155
810.591	29067
810.733	28919
810.875	28839
811.016	28835
811.158	28843
811.299	29037
811.441	29128
811.582	29121
811.724	28752
811.865	29075
812.007	28869
812.148	28911
812.29	29044
812.431	29151
812.573	29387
812.714	29307
812.855	29512
812.997	29528
813.138	29672
813.279	29539
813.421	29497
813.562	29330
813.703	29315
813.845	29140
813.986	28828
814.127	28713
814.268	28683
814.41	28615
814.551	28653
814.692	28778
814.833	28771
814.974	28736
815.115	28725
815.256	28546
815.397	28569
815.539	28455
815.68	28421
815.821	28421
815.962	28390
816.103	28481
816.244	28413
816.385	28185
816.526	28344
816.666	28074
816.807	27850
816.948	28010
817.089	28063
817.23	28044
817.371	27831
817.512	27926
817.653	27975
817.793	27880
817.934	28158
818.075	27850
818.216	27831
818.356	27869
818.497	27876
818.638	27831
818.778	27747
818.919	27686
819.06	27823
819.2	27884
819.341	28013
819.481	28006
819.622	28055
819.762	28310
819.903	28131
820.043	28105
820.184	28105
820.324	27918
820.465	28101
820.605	28032
820.746	28147
820.886	27934
821.026	27991
821.167	27903
821.307	28116
821.447	27941
821.588	27964
821.728	27743
821.868	27720
822.008	27447
822.149	27408
822.289	27249
822.429	27180
822.569	27192
822.709	27161
822.849	26895
822.99	26960
823.13	26906
823.27	26891
823.41	26834
823.55	26629
823.69	26785
823.83	26804
823.97	26720
824.11	26473
824.25	26400
824.389	26533
824.529	26564
824.669	26758
824.809	26670
824.949	26678
825.089	26800
825.228	26644
825.368	26415
825.508	26328
825.648	26431
825.787	26450
825.927	26571
826.067	26362
826.206	26575
826.346	26632
826.485	26507
826.625	26385
826.765	26651
826.904	26518
827.044	26248
827.183	26164
827.323	26180
827.462	26149
827.601	26233
827.741	26054
827.88	26256
828.02	26020
828.159	26145
828.298	26298
828.437	26252
828.577	26050
828.716	26191
828.855	26005
828.994	25898
829.134	25890
829.273	25879
829.412	25795
829.551	25811
829.69	25788
829.829	25982
829.968	25917
830.107	25807
830.246	25993
830.385	25742
830.524	25651
830.663	25780
830.802	25571
830.941	25502
831.08	25407
831.219	25502
831.357	25540
831.496	25662
831.635	25468
831.774	25483
831.913	25464
832.051	25232
832.19	25301
832.329	25225
832.467	25126
832.606	25050
832.744	25072
832.883	25217
833.022	25031
833.16	25190
833.299	25187
833.437	25118
833.576	25202
833.714	25206
833.852	25282
833.991	25225
834.129	25324
834.267	25160
834.406	25228
834.544	25320
834.682	25145
834.821	25110
834.959	25335
835.097	25072
835.235	25259
835.373	25129
835.511	25114
835.65	24981
835.788	25194
835.926	24897
836.064	24802
836.202	24878
836.34	24989
836.478	25110
836.615	25023
836.753	24939
836.891	24996
837.029	25023
837.167	24897
837.305	24920
837.443	24795
837.58	25027
837.718	24852
837.856	25027
837.993	24741
838.131	24757
838.269	24730
838.406	24814
838.544	24661
838.681	24582
838.819	24536
838.956	24289
839.094	24376
839.231	24410
839.369	24585
839.506	24692
839.643	24578
839.781	24361
839.918	24330
840.055	24342
840.193	24270
840.33	24201
840.467	24289
840.604	24300
840.742	24521
840.879	24072
841.016	24270
841.153	24155
841.29	24209
841.427	24152
841.564	24300
841.701	24152
841.838	24121
841.975	24133
842.112	24178
842.249	24045
842.385	23935
842.522	24182
842.659	24038
842.796	24018
842.933	24045
843.069	23961
843.206	23954
843.343	24087
843.479	23977
843.616	24125
843.752	23828
843.889	23729
844.025	23809
844.162	23794
844.298	23805
844.435	23836
844.571	23672
844.708	23764
844.844	23863
844.98	23809
845.117	23863
845.253	23707
845.389	23611
845.525	23573
845.661	23573
845.798	23497
845.934	23531
846.07	23417
846.206	23657
846.342	23566
846.478	23402
846.614	23284
846.75	23292
846.886	23143
847.022	23303
847.158	23220
847.294	23102
847.429	23303
847.565	23132
847.701	23429
847.837	22858
847.972	22911
848.108	23083
848.244	22980
848.379	22812
848.515	22771
848.65	22835
848.786	22927
848.921	22793
849.057	22946
849.192	22869
849.328	22786
849.463	22839
849.598	22771
849.734	22786
849.869	22691
850.004	22508
850.14	22561
850.275	22538
850.41	22459
850.545	22470
850.68	22379
850.815	22580
850.95	22474
851.085	22835
851.22	22622
851.355	22679
851.49	22561
851.625	22519
851.76	22451
851.895	22478
852.03	22455
852.165	22485
852.299	22592
852.434	22603
852.569	22569
852.703	22561
852.838	22573
852.973	22679
853.107	22683
853.242	22504
853.376	22424
853.511	22314
853.645	22325
853.78	22493
853.914	22295
854.048	22356
854.183	22348
854.317	22322
854.451	22493
854.585	22481
854.72	22375
854.854	22386
854.988	22284
855.122	22257
855.256	22295
855.39	22402
855.524	22497
855.658	22462
855.792	22443
855.926	22379
856.06	22424
856.194	22428
856.327	22344
856.461	22352
856.595	22322
856.729	22379
856.862	22440
856.996	22421
857.13	22459
857.263	22428
857.397	22413
857.53	22306
857.664	22500
857.797	22428
857.931	22485
858.064	22390
858.197	22538
858.331	22276
858.464	22367
858.597	22284
858.731	22303
858.864	22394
858.997	22443
859.13	22459
859.263	22440
859.396	22440
859.529	22341
859.662	22314
859.795	22341
859.928	22489
860.061	22451
860.194	22561
860.327	22322
860.46	22424
860.592	22702
860.725	22523
860.858	22554
860.99	22451
861.123	22322
861.256	22310
861.388	22276
861.521	23048
861.653	22223
861.786	22051
861.918	22166
862.05	22363
862.183	22314
862.315	22268
862.447	22405
862.58	22348
862.712	22059
862.844	22090
862.976	22093
863.108	22131
863.24	22531
863.372	22021
863.504	22070
863.636	22173
863.768	22074
863.9	22025
864.032	22013
864.164	22090
864.296	22116
864.428	22188
864.559	22143
864.691	22150
864.823	22147
864.954	22036
865.086	22112
865.217	21895
865.349	21918
865.48	21880
865.612	22051
865.743	22070
865.875	21968
866.006	21842
866.137	21819
866.269	21945
866.4	21785
866.531	21869
866.662	21926
866.793	21842
866.924	21736
867.055	21907
867.186	21880
867.317	21918
867.448	21751
867.579	21895
867.71	21861
867.841	21869
867.972	21865
868.103	21850
868.233	21816
868.364	21823
868.495	21972
868.625	22109
868.756	22200
868.886	21949
869.017	22048
869.147	22090
869.278	22287
869.408	22093
869.539	22078
869.669	22242
869.799	22097
869.929	22287
870.06	22234
870.19	22493
870.32	22413
870.45	22474
870.58	22443
870.71	22557
870.84	22554
870.97	22527
871.1	22516
871.23	22675
871.36	22759
871.489	22519
871.619	22755
871.749	22713
871.879	22790
872.008	22847
872.138	22706
872.267	22637
872.397	22569
872.526	22538
872.656	22557
872.785	22557
872.915	22634
873.044	22900
873.173	22683
873.303	22721
873.432	22828
873.561	22835
873.69	22748
873.819	22740
873.948	22854
874.077	22755
874.206	22710
874.335	22717
874.464	22831
874.593	22957
874.722	22896
874.851	22957
874.979	23014
875.108	22949
875.237	22892
875.365	22793
875.494	22972
875.623	23025
875.751	22908
875.88	22968
876.008	23029
876.136	23075
876.265	23311
876.393	23474
876.521	23448
876.65	23531
876.778	23311
876.906	23261
877.034	23277
877.162	23353
877.29	23360
877.418	23254
877.546	23246
877.674	23349
877.802	23273
877.93	23391
878.058	23227
878.185	23132
878.313	23235
878.441	23239
878.568	23029
878.696	23140
878.824	23318
878.951	23459
879.079	23562
879.206	23581
879.333	23512
879.461	23341
879.588	23471
879.715	23490
879.842	23600
879.97	23364
880.097	23143
880.224	23162
880.351	23109
880.478	23151
880.605	23208
880.732	23071
880.859	23383
880.986	23086
881.112	23044
881.239	23003
881.366	22858
881.493	22774
881.619	22748
881.746	22820
881.872	22645
881.999	22641
882.125	22649
882.252	22748
882.378	22702
882.505	22668
882.631	22489
882.757	22344
882.883	22459
883.01	22402
883.136	22341
883.262	22196
883.388	22192
883.514	22329
883.64	22459
883.766	22177
883.892	22173
884.018	22090
884.143	22318
884.269	22356
884.395	22090
884.52	21865
884.646	22154
884.772	21994
884.897	21873
885.023	22032
885.148	22070
885.274	22086
885.399	22105
885.524	21861
885.65	21945
885.775	22120
885.9	21911
886.025	22135
886.15	22036
886.275	21945
886.4	21918
886.525	21964
886.65	21895
886.775	21964
886.9	22139
887.025	22135
887.149	21983
887.274	21762
887.399	21656
887.523	21774
887.648	21591
887.773	21663
887.897	21808
888.021	21831
888.146	21797
888.27	21876
888.395	21907
888.519	21667
888.643	21800
888.767	21808
888.891	21641
889.015	21466
889.139	21599
889.263	21599
889.387	21736
889.511	21698
889.635	21701
889.759	21511
889.883	21530
890.006	21496
890.13	21553
890.254	21447
890.377	21359
890.501	21279
890.624	21279
890.748	21351
890.871	21123
890.995	21085
891.118	21104
891.241	21119
891.364	21070
891.488	21313
891.611	21096
891.734	21066
891.857	21131
891.98	21043
892.103	21154
892.226	21055
892.349	21127
892.471	20864
892.594	20906
892.717	21081
892.839	20899
892.962	20937
893.085	21032
893.207	21017
893.33	20868
893.452	20838
893.575	21055
893.697	20948
893.819	21062
893.941	21135
894.064	21058
894.186	20952
894.308	20857
894.43	21161
894.552	21150
894.674	21043
894.796	20899
894.918	20956
895.04	20800
895.161	21070
895.283	20986
895.405	20868
895.526	20891
895.648	20956
895.769	21013
895.891	20986
896.012	21138
896.134	20994
896.255	20990
896.376	20956
896.498	21062
896.619	20990
896.74	20880
896.861	21051
896.982	21214
897.103	21359
897.224	21188
897.345	21138
897.466	21142
897.587	21146
897.708	21355
897.828	21195
897.949	21123
898.07	21100
898.19	21169
898.311	21272
898.431	21119
898.552	21157
898.672	21241
898.792	21138
898.913	21165
899.033	21013
899.153	20921
899.273	20823
899.393	21043
899.513	21062
899.633	20967
899.753	20971
899.873	20883
899.993	20948
900.113	20887
900.232	20845
900.352	20785
900.472	20659
900.591	20712
900.711	20648
900.83	20655
900.95	20682
901.069	20754
901.189	20556
901.308	20317
901.427	20180
901.546	20343
901.665	20275
901.784	20187
901.904	20115
902.023	20103
902.141	19932
902.26	19841
902.379	19967
902.498	19723
902.617	19826
902.735	19784
902.854	19750
902.973	19795
903.091	19438
903.21	19365
903.328	19388
903.446	19350
903.565	19247
903.683	19225
903.801	19194
903.919	19175
904.038	19240
904.156	19034
904.274	19110
904.392	19008
904.51	18981
904.627	18973
904.745	18973
904.863	18996
904.981	18787
905.098	18646
905.216	18612
905.334	18665
905.451	18639
905.569	18498
905.686	18658
905.803	18707
905.921	18540
906.038	18566
906.155	18483
906.272	18338
906.389	18429
906.506	18159
906.623	18186
906.74	18190
906.857	18087
906.974	18072
907.091	18285
907.208	18308
907.324	18254
907.441	18121
907.557	17965
907.674	17935
907.79	17874
907.907	17977
908.023	17923
908.139	17874
908.256	17882
908.372	17710
908.488	17828
908.604	17756
908.72	17532
908.836	17604
908.952	17592
909.068	17570
909.184	17592
909.3	17596
909.415	17630
909.531	17554
909.647	17296
909.762	17334
909.878	17326
909.993	17318
910.108	17239
910.224	17239
910.339	17239
910.454	17273
910.57	17094
910.685	17075
910.8	17372
910.915	17223
911.03	17045
911.145	16915
911.259	16930
911.374	16892
911.489	16801
911.604	16797
911.718	16599
911.833	16656
911.947	16611
912.062	16466
912.176	16596
912.291	16584
912.405	16649
912.519	16774
912.633	16782
912.748	16615
912.862	16656
912.976	16413
913.09	16261
913.204	16428
913.318	16341
913.431	16550
913.545	16500
913.659	16558
913.772	16360
913.886	16238
914	16223
914.113	16329
914.226	16322
914.34	16333
914.453	16116
914.566	16162
914.68	16059
914.793	16036
914.906	15922
915.019	15831
915.132	15770
915.245	15831
915.358	15781
915.47	15804
915.583	15884
915.696	15762
915.809	15865
915.921	15926
916.034	15701
916.146	15690
916.259	15660
916.371	15816
916.483	15698
916.595	15614
916.708	15622
916.82	15595
916.932	15511
917.044	15606
917.156	15511
917.268	15443
917.38	15572
917.491	15420
917.603	15401
917.715	15485
917.826	15443
917.938	15310
918.049	15241
918.161	15401
918.272	15492
918.384	15492
918.495	15370
918.606	15260
918.717	15161
918.828	15173
918.939	15222
919.05	15043
919.161	15195
919.272	14910
919.383	15036
919.494	15283
919.604	15424
919.715	15047
919.826	15028
919.936	15093
920.047	15176
920.157	15150
920.267	15329
920.378	15112
920.488	15195
920.598	15310
920.708	15447
920.818	15336
920.928	15416
921.038	15412
921.148	15344
921.258	15062
921.368	14956
921.477	14823
921.587	14845
921.697	14762
921.806	14819
921.916	14762
922.025	14552
922.134	14625
922.244	14442
922.353	14518
922.462	14389
922.571	14275
922.68	14130
922.789	14084
922.898	14191
923.007	14115
923.116	14077
923.224	14020
923.333	14096
923.442	13947
923.55	13883
923.659	13887
923.767	14031
923.876	13902
923.984	13932
924.092	13894
924.201	13856
924.309	13818
924.417	13932
924.525	13715
924.633	13776
924.741	14556
924.849	13605
924.956	13696
925.064	13575
925.172	13529
925.279	13510
925.387	13590
925.494	13518
925.602	13601
925.709	13578
925.816	13415
925.924	13472
926.031	13563
926.138	13480
926.245	13495
926.352	13422
926.459	13563
926.566	13449
926.673	13350
926.779	13156
926.886	13175
926.993	13069
927.099	13034
927.206	13027
927.312	12901
927.419	13107
927.525	13050
927.631	13129
927.737	12943
927.843	12863
927.95	12783
928.056	12882
928.162	12924
928.267	12886
928.373	13533
928.479	12996
928.585	12730
928.69	12837
928.796	12852
928.901	12722
929.007	12616
929.112	12650
929.218	12684
929.323	12612
929.428	12589
929.533	12760
929.638	12555
929.743	12544
929.848	12483
929.953	12623
930.058	12490
930.163	12296
930.267	12338
930.372	12380
930.477	12220
930.581	12448
930.685	12384
930.79	12182
930.894	12155
930.998	12155
931.103	12239
931.207	11885
931.311	11809
931.415	11752
931.519	11551
931.623	11524
