Data from test_V78500241_2437.txt Node
Date: Fri Mar 25 15:58:40 CST 2022
User: usil
Spectrometer: V785-0024
Trigger mode: 0
Integration Time (sec): 4.000000E-1
Scans to average: 1
Nonlinearity correction enabled: false
Boxcar width: 0
Storing dark spectrum: false
XAxis mode: Wavelengths
Number of Pixels in Spectrum: 1024
>>>>>Begin Spectral Data<<<<<
801.071	28786
801.214	28744
801.356	28398
801.499	28527
801.641	28322
801.783	28333
801.926	28405
802.068	28291
802.211	28131
802.353	28276
802.496	27983
802.638	28063
802.78	28017
802.923	27861
803.065	27854
803.208	27895
803.35	27945
803.492	28128
803.635	28238
803.777	28025
803.919	28154
804.061	28611
804.204	28166
804.346	28249
804.488	28306
804.63	28230
804.773	28196
804.915	28268
805.057	28363
805.199	28314
805.341	28371
805.483	28451
805.626	28249
805.768	28223
805.91	28322
806.052	28493
806.194	28223
806.336	28664
806.478	28443
806.62	28394
806.762	28523
806.904	28763
807.046	28984
807.188	28908
807.33	28843
807.472	28869
807.614	28706
807.756	28843
807.898	28733
808.04	28763
808.182	28630
808.324	28786
808.465	28706
808.607	28888
808.749	29025
808.891	29239
809.033	29261
809.174	29208
809.316	29242
809.458	29185
809.6	28972
809.741	29090
809.883	29280
810.025	29269
810.166	29375
810.308	29326
810.45	29322
810.591	29254
810.733	29124
810.875	29067
811.016	29010
811.158	28995
811.299	29254
811.441	29337
811.582	29258
811.724	29060
811.865	29014
812.007	28923
812.148	29151
812.29	29212
812.431	29235
812.573	29455
812.714	29554
812.855	29634
812.997	29695
813.138	29904
813.279	29821
813.421	29547
813.562	29440
813.703	29520
813.845	29459
813.986	29041
814.127	29006
814.268	28877
814.41	28771
814.551	28896
814.692	28831
814.833	28809
814.974	28710
815.115	28664
815.256	28653
815.397	28755
815.539	28523
815.68	28630
815.821	28592
815.962	28721
816.103	28721
816.244	28588
816.385	28466
816.526	28478
816.666	28215
816.807	28044
816.948	28253
817.089	28226
817.23	28215
817.371	28120
817.512	28078
817.653	28025
817.793	27987
817.934	28177
818.075	28044
818.216	28139
818.356	28139
818.497	28040
818.638	27899
818.778	27899
818.919	27907
819.06	27960
819.2	27983
819.341	28265
819.481	28329
819.622	28249
819.762	28409
819.903	28352
820.043	28363
820.184	28363
820.324	28246
820.465	28299
820.605	28360
820.746	28356
820.886	28120
821.026	28314
821.167	28417
821.307	28329
821.447	28131
821.588	28112
821.728	27941
821.868	27835
822.008	27591
822.149	27644
822.289	27447
822.429	27443
822.569	27230
822.709	27313
822.849	27169
822.99	27142
823.13	27055
823.27	26933
823.41	26956
823.55	26861
823.69	26948
823.83	27036
823.97	26948
824.11	26823
824.25	26731
824.389	26724
824.529	26982
824.669	26777
824.809	26960
824.949	26838
825.089	26804
825.228	26720
825.368	26682
825.508	26636
825.648	26670
825.787	26579
825.927	26674
826.067	26708
826.206	26659
826.346	26556
826.485	26765
826.625	26659
826.765	26701
826.904	26708
827.044	26427
827.183	26461
827.323	26240
827.462	26473
827.601	26412
827.741	26358
827.88	26423
828.02	26237
828.159	26396
828.298	26355
828.437	26343
828.577	26252
828.716	26522
828.855	26362
828.994	26024
829.134	26092
829.273	25906
829.412	26027
829.551	25997
829.69	26024
829.829	26210
829.968	26100
830.107	26096
830.246	25925
830.385	26016
830.524	25879
830.663	25906
830.802	25658
830.941	25658
831.08	25731
831.219	25791
831.357	25594
831.496	25871
831.635	25708
831.774	25693
831.913	25533
832.051	25430
832.19	25453
832.329	25384
832.467	25358
832.606	25270
832.744	25369
832.883	25316
833.022	25350
833.16	25388
833.299	25373
833.437	25343
833.576	25362
833.714	25384
833.852	25483
833.991	25411
834.129	25499
834.267	25411
834.406	25521
834.544	25407
834.682	25289
834.821	25407
834.959	25426
835.097	25339
835.235	25358
835.373	25304
835.511	25365
835.65	25141
835.788	25206
835.926	25228
836.064	24977
836.202	25084
836.34	25259
836.478	25339
836.615	25091
836.753	25126
836.891	25217
837.029	25156
837.167	25019
837.305	25194
837.443	25133
837.58	24947
837.718	25080
837.856	24928
837.993	24913
838.131	25069
838.269	24825
838.406	24920
838.544	24722
838.681	24749
838.819	24692
838.956	24498
839.094	24380
839.231	24620
839.369	24623
839.506	24856
839.643	24776
839.781	24467
839.918	24479
840.055	24460
840.193	24471
840.33	24479
840.467	24509
840.604	24422
840.742	24719
840.879	24273
841.016	24334
841.153	24262
841.29	24513
841.427	24540
841.564	24330
841.701	24311
841.838	24399
841.975	24254
842.112	24319
842.249	24220
842.385	24133
842.522	24445
842.659	24235
842.796	24129
842.933	24213
843.069	24060
843.206	24018
843.343	24201
843.479	24213
843.616	24163
843.752	24072
843.889	24007
844.025	24072
844.162	23828
844.298	24022
844.435	24015
844.571	23946
844.708	23946
844.844	24072
844.98	23999
845.117	23931
845.253	23908
845.389	23809
845.525	23775
845.661	23798
845.798	23649
845.934	23707
846.07	23608
846.206	23748
846.342	23756
846.478	23729
846.614	23337
846.75	23315
846.886	23189
847.022	23425
847.158	23360
847.294	23524
847.429	23482
847.565	23463
847.701	23600
847.837	23094
847.972	22999
848.108	23178
848.244	23189
848.379	22961
848.515	22927
848.65	22972
848.786	23098
848.921	23102
849.057	23060
849.192	23022
849.328	22908
849.463	22946
849.598	22915
849.734	22850
849.869	22968
850.004	22649
850.14	22752
850.275	22691
850.41	22641
850.545	22641
850.68	22630
850.815	22771
850.95	22649
851.085	22869
851.22	22953
851.355	22736
851.49	22809
851.625	22748
851.76	22550
851.895	22672
852.03	22687
852.165	22744
852.299	22778
852.434	22843
852.569	22691
852.703	22656
852.838	22755
852.973	22877
853.107	22885
853.242	22683
853.376	22577
853.511	22356
853.645	22478
853.78	22744
853.914	22478
854.048	22512
854.183	22508
854.317	22531
854.451	22771
854.585	22519
854.72	22481
854.854	22622
854.988	22474
855.122	22569
855.256	22489
855.39	22611
855.524	22550
855.658	22637
855.792	22508
855.926	22588
856.06	22565
856.194	22580
856.327	22546
856.461	22447
856.595	22447
856.729	22538
856.862	22637
856.996	22523
857.13	22599
857.263	22615
857.397	22611
857.53	22474
857.664	22596
857.797	22538
857.931	22626
858.064	22580
858.197	22672
858.331	22550
858.464	22512
858.597	22341
858.731	22462
858.864	22481
858.997	22538
859.13	22390
859.263	22615
859.396	22577
859.529	22573
859.662	22489
859.795	22512
859.928	22554
860.061	22679
860.194	22733
860.327	22561
860.46	22535
860.592	22713
860.725	22733
860.858	22733
860.99	22603
861.123	22466
861.256	22478
861.388	22489
861.521	23166
861.653	22440
861.786	22356
861.918	22424
862.05	22394
862.183	22466
862.315	22478
862.447	22546
862.58	22447
862.712	22188
862.844	22207
862.976	22329
863.108	22242
863.24	22592
863.372	22200
863.504	22291
863.636	22173
863.768	22325
863.9	22344
864.032	22219
864.164	22154
864.296	22318
864.428	22325
864.559	22337
864.691	22360
864.823	22306
864.954	22215
865.086	22143
865.217	22143
865.349	22093
865.48	22128
865.612	22207
865.743	22276
865.875	22211
866.006	22207
866.137	22055
866.269	22112
866.4	22093
866.531	22048
866.662	22036
866.793	22082
866.924	22059
867.055	22154
867.186	22112
867.317	22025
867.448	22067
867.579	21991
867.71	22002
867.841	22013
867.972	22074
868.103	22093
868.233	22074
868.364	22093
868.495	22029
868.625	22314
868.756	22405
868.886	22223
869.017	22333
869.147	22322
869.278	22390
869.408	22261
869.539	22257
869.669	22367
869.799	22405
869.929	22497
870.06	22360
870.19	22592
870.32	22565
870.45	22713
870.58	22793
870.71	22900
870.84	22801
870.97	22736
871.1	22710
871.23	22858
871.36	22812
871.489	22755
871.619	22881
871.749	22782
871.879	23003
872.008	22858
872.138	22892
872.267	23003
872.397	22812
872.526	22862
872.656	22717
872.785	22771
872.915	22892
873.044	22999
873.173	22953
873.303	22976
873.432	23025
873.561	23056
873.69	22980
873.819	23033
873.948	23022
874.077	22957
874.206	22873
874.335	22938
874.464	23067
874.593	23162
874.722	22957
874.851	23239
874.979	23166
875.108	23220
875.237	23052
875.365	22995
875.494	23151
875.623	23151
875.751	23052
875.88	23147
876.008	23216
876.136	23269
876.265	23551
876.393	23653
876.521	23547
876.65	23493
876.778	23486
876.906	23516
877.034	23497
877.162	23524
877.29	23376
877.418	23558
877.546	23482
877.674	23436
877.802	23501
877.93	23505
878.058	23497
878.185	23261
878.313	23372
878.441	23410
878.568	23193
878.696	23395
878.824	23516
878.951	23687
879.079	23573
879.206	23779
879.333	23665
879.461	23448
879.588	23463
879.715	23665
879.842	23718
879.97	23554
880.097	23330
880.224	23250
880.351	23212
880.478	23235
880.605	23155
880.732	23421
880.859	23615
880.986	23326
881.112	23429
881.239	23166
881.366	23086
881.493	22911
881.619	22809
881.746	22889
881.872	22877
881.999	22752
882.125	22725
882.252	22919
882.378	22858
882.505	22904
882.631	22763
882.757	22538
882.883	22493
883.01	22660
883.136	22557
883.262	22284
883.388	22287
883.514	22516
883.64	22523
883.766	22432
883.892	22276
884.018	22367
884.143	22424
884.269	22459
884.395	22166
884.52	22112
884.646	22166
884.772	22147
884.897	22029
885.023	22192
885.148	22169
885.274	22192
885.399	22246
885.524	22162
885.65	22150
885.775	22169
885.9	22105
886.025	22204
886.15	22120
886.275	22128
886.4	22082
886.525	22143
886.65	22135
886.775	22029
886.9	22200
887.025	22474
887.149	22158
887.274	21880
887.399	21998
887.523	21949
887.648	21930
887.773	21800
887.897	21941
888.021	21945
888.146	21835
888.27	22010
888.395	22029
888.519	21888
888.643	22051
888.767	21991
888.891	21766
889.015	21797
889.139	21762
889.263	21675
889.387	21812
889.511	21819
889.635	21739
889.759	21622
889.883	21580
890.006	21663
890.13	21835
890.254	21660
890.377	21534
890.501	21485
890.624	21420
890.748	21504
890.871	21302
890.995	21367
891.118	21245
891.241	21230
891.364	21218
891.488	21359
891.611	21302
891.734	21237
891.857	21260
891.98	21203
892.103	21256
892.226	21279
892.349	21176
892.471	20963
892.594	21264
892.717	21268
892.839	21127
892.962	21222
893.085	21222
893.207	21104
893.33	21066
893.452	21005
893.575	21154
893.697	21001
893.819	21294
893.941	21329
894.064	21313
894.186	20971
894.308	21032
894.43	21039
894.552	21180
894.674	21188
894.796	21074
894.918	21176
895.04	21104
895.161	21275
895.283	21192
895.405	20982
895.526	21112
895.648	21180
895.769	21195
895.891	21112
896.012	21131
896.134	21104
896.255	21195
896.376	21032
896.498	21195
896.619	21116
896.74	21108
896.861	21218
896.982	21374
897.103	21481
897.224	21367
897.345	21264
897.466	21302
897.587	21401
897.708	21428
897.828	21310
897.949	21222
898.07	21241
898.19	21294
898.311	21367
898.431	21218
898.552	21386
898.672	21272
898.792	21420
898.913	21336
899.033	21077
899.153	21074
899.273	21001
899.393	20929
899.513	21089
899.633	20967
899.753	21024
899.873	21020
899.993	21020
900.113	20990
900.232	21062
900.352	20994
900.472	20842
900.591	20819
900.711	20845
900.83	20845
900.95	20887
901.069	20765
901.189	20663
901.308	20427
901.427	20488
901.546	20473
901.665	20377
901.784	20377
901.904	20172
902.023	20103
902.141	19940
902.26	19860
902.379	20031
902.498	19883
902.617	19765
902.735	19944
902.854	19883
902.973	19822
903.091	19540
903.21	19544
903.328	19544
903.446	19460
903.565	19293
903.683	19297
903.801	19225
903.919	19346
904.038	19236
904.156	19126
904.274	19171
904.392	18996
904.51	19027
904.627	19088
904.745	19152
904.863	19008
904.981	18863
905.098	18833
905.216	18833
905.334	18901
905.451	18768
905.569	18757
905.686	18825
905.803	18639
905.921	18532
906.038	18623
906.155	18559
906.272	18532
906.389	18532
906.506	18300
906.623	18399
906.74	18338
906.857	18125
906.974	18167
907.091	18338
907.208	18399
907.324	18266
907.441	18232
907.557	18041
907.674	17996
907.79	17897
907.907	18057
908.023	18041
908.139	17954
908.256	17904
908.372	17828
908.488	17889
908.604	17821
908.72	17828
908.836	17653
908.952	17661
909.068	17699
909.184	17893
909.3	17615
909.415	17745
909.531	17604
909.647	17551
909.762	17463
909.878	17395
909.993	17444
910.108	17277
910.224	17341
910.339	17398
910.454	17254
910.57	17121
910.685	17090
910.8	17421
910.915	17398
911.03	17235
911.145	17037
911.259	16900
911.374	17006
911.489	16790
911.604	16740
911.718	16694
911.833	16748
911.947	16618
912.062	16554
912.176	16683
912.291	16759
912.405	16713
912.519	16881
912.633	16816
912.748	16793
912.862	16672
912.976	16554
913.09	16413
913.204	16428
913.318	16554
913.431	16584
913.545	16626
913.659	16641
913.772	16405
913.886	16390
914	16287
914.113	16398
914.226	16413
914.34	16417
914.453	16181
914.566	16280
914.68	16162
914.793	16139
914.906	16032
915.019	15911
915.132	15880
915.245	15869
915.358	15930
915.47	15846
915.583	15903
915.696	15835
915.809	15930
915.921	16025
916.034	15827
916.146	15793
916.259	15778
916.371	15766
916.483	15888
916.595	15629
916.708	15694
916.82	15663
916.932	15732
917.044	15572
917.156	15629
917.268	15473
917.38	15603
917.491	15526
917.603	15447
917.715	15553
917.826	15633
917.938	15428
918.049	15329
918.161	15416
918.272	15675
918.384	15485
918.495	15447
918.606	15287
918.717	15214
918.828	15294
918.939	15317
919.05	15169
919.161	15252
919.272	15028
919.383	15089
919.494	15325
919.604	15408
919.715	15252
919.826	15119
919.936	15165
920.047	15310
920.157	15211
920.267	15469
920.378	15237
920.488	15245
920.598	15287
920.708	15549
920.818	15272
920.928	15355
921.038	15462
921.148	15488
921.258	15161
921.368	15036
921.477	14868
921.587	14948
921.697	14746
921.806	14929
921.916	14739
922.025	14686
922.134	14549
922.244	14514
922.353	14629
922.462	14385
922.571	14332
922.68	14221
922.789	14123
922.898	14278
923.007	14195
923.116	14259
923.224	14210
923.333	14065
923.442	14058
923.55	13982
923.659	14035
923.767	14073
923.876	14001
923.984	14054
924.092	13986
924.201	13940
924.309	13917
924.417	13951
924.525	13864
924.633	13807
924.741	14556
924.849	13723
924.956	13814
925.064	13609
925.172	13518
925.279	13457
925.387	13521
925.494	13518
925.602	13734
925.709	13597
925.816	13540
925.924	13571
926.031	13636
926.138	13521
926.245	13544
926.352	13365
926.459	13556
926.566	13559
926.673	13426
926.779	13324
926.886	13289
926.993	13297
927.099	13225
927.206	13126
927.312	13076
927.419	13190
927.525	13137
927.631	13103
927.737	13107
927.843	12958
927.95	12996
928.056	12909
928.162	12970
928.267	13038
928.373	13563
928.479	12954
928.585	12768
928.69	12810
928.796	12962
928.901	12859
929.007	12642
929.112	12833
929.218	12711
929.323	12623
929.428	12669
929.533	12768
929.638	12650
929.743	12578
929.848	12662
929.953	12696
930.058	12471
930.163	12304
930.267	12254
930.372	12475
930.477	12209
930.581	12513
930.685	12418
930.79	12228
930.894	12228
930.998	12194
931.103	12327
931.207	11969
931.311	11954
931.415	11760
931.519	11543
931.623	11471
