Data from test_V78500241_1073.txt Node
Date: Fri Mar 25 15:49:14 CST 2022
User: usil
Spectrometer: V785-0024
Trigger mode: 0
Integration Time (sec): 4.000000E-1
Scans to average: 1
Nonlinearity correction enabled: false
Boxcar width: 0
Storing dark spectrum: false
XAxis mode: Wavelengths
Number of Pixels in Spectrum: 1024
>>>>>Begin Spectral Data<<<<<
801.071	28413
801.214	28284
801.356	28044
801.499	27979
801.641	27964
801.783	27762
801.926	27888
802.068	27991
802.211	27831
802.353	27838
802.496	27698
802.638	27679
802.78	27606
802.923	27507
803.065	27477
803.208	27614
803.35	27606
803.492	27694
803.635	27804
803.777	27808
803.919	27739
804.061	28086
804.204	27857
804.346	27770
804.488	27622
804.63	27736
804.773	27812
804.915	27751
805.057	27991
805.199	27682
805.341	27892
805.483	27937
805.626	27979
805.768	27797
805.91	27827
806.052	27934
806.194	27789
806.336	28185
806.478	28097
806.62	28032
806.762	28139
806.904	28257
807.046	28318
807.188	28276
807.33	28272
807.472	28421
807.614	28284
807.756	28386
807.898	28090
808.04	28196
808.182	28234
808.324	28322
808.465	28284
808.607	28375
808.749	28577
808.891	28710
809.033	28599
809.174	28637
809.316	28596
809.458	28611
809.6	28546
809.741	28748
809.883	28755
810.025	28953
810.166	28683
810.308	28949
810.45	28896
810.591	28850
810.733	28691
810.875	28569
811.016	28584
811.158	28577
811.299	28915
811.441	28816
811.582	28854
811.724	28672
811.865	28531
812.007	28580
812.148	28592
812.29	28561
812.431	28637
812.573	28984
812.714	29067
812.855	29083
812.997	29261
813.138	29429
813.279	29265
813.421	29250
813.562	29064
813.703	29033
813.845	28858
813.986	28615
814.127	28428
814.268	28257
814.41	28295
814.551	28337
814.692	28500
814.833	28135
814.974	28329
815.115	28352
815.256	28185
815.397	28242
815.539	28268
815.68	28154
815.821	28112
815.962	28185
816.103	28040
816.244	28025
816.385	27949
816.526	27838
816.666	27797
816.807	27599
816.948	27835
817.089	27671
817.23	27622
817.371	27686
817.512	27690
817.653	27488
817.793	27606
817.934	27679
818.075	27694
818.216	27523
818.356	27473
818.497	27378
818.638	27363
818.778	27367
818.919	27222
819.06	27431
819.2	27614
819.341	27755
819.481	27625
819.622	27739
819.762	28093
819.903	27888
820.043	27766
820.184	27766
820.324	27770
820.465	27835
820.605	27660
820.746	27720
820.886	27644
821.026	27774
821.167	27739
821.307	27690
821.447	27724
821.588	27488
821.728	27348
821.868	27233
822.008	27131
822.149	27066
822.289	27199
822.429	26819
822.569	26845
822.709	26811
822.849	26663
822.99	26613
823.13	26609
823.27	26541
823.41	26526
823.55	26419
823.69	26457
823.83	26427
823.97	26385
824.11	26355
824.25	26305
824.389	26191
824.529	26328
824.669	26339
824.809	26431
824.949	26328
825.089	26396
825.228	26374
825.368	26149
825.508	26153
825.648	26244
825.787	26202
825.927	26134
826.067	26168
826.206	26187
826.346	26157
826.485	26119
826.625	26024
826.765	26202
826.904	26084
827.044	25928
827.183	25890
827.323	25795
827.462	25902
827.601	25765
827.741	25772
827.88	25906
828.02	25742
828.159	25837
828.298	25807
828.437	25811
828.577	25814
828.716	25849
828.855	25765
828.994	25571
829.134	25609
829.273	25590
829.412	25537
829.551	25563
829.69	25578
829.829	25674
829.968	25647
830.107	25563
830.246	25422
830.385	25487
830.524	25479
830.663	25308
830.802	25278
830.941	25141
831.08	25118
831.219	25228
831.357	25168
831.496	25339
831.635	25225
831.774	25004
831.913	25129
832.051	25000
832.19	25053
832.329	25095
832.467	24817
832.606	24776
832.744	24749
832.883	24859
833.022	24798
833.16	24821
833.299	24878
833.437	24909
833.576	25023
833.714	24802
833.852	24901
833.991	25015
834.129	24924
834.267	25000
834.406	24878
834.544	24875
834.682	24939
834.821	24833
834.959	25015
835.097	24863
835.235	24916
835.373	24783
835.511	24943
835.65	24639
835.788	24635
835.926	24502
836.064	24418
836.202	24471
836.34	24745
836.478	24833
836.615	24585
836.753	24673
836.891	24738
837.029	24673
837.167	24673
837.305	24661
837.443	24547
837.58	24528
837.718	24601
837.856	24452
837.993	24471
838.131	24517
838.269	24281
838.406	24544
838.544	24273
838.681	24194
838.819	24148
838.956	23992
839.094	24026
839.231	24003
839.369	24136
839.506	24414
839.643	24152
839.781	23931
839.918	23904
840.055	24007
840.193	23946
840.33	23889
840.467	23817
840.604	23958
840.742	24083
840.879	23847
841.016	23912
841.153	23832
841.29	24045
841.427	23939
841.564	23977
841.701	23901
841.838	23840
841.975	23882
842.112	23722
842.249	23767
842.385	23646
842.522	23901
842.659	23802
842.796	23524
842.933	23676
843.069	23531
843.206	23589
843.343	23729
843.479	23630
843.616	23657
843.752	23387
843.889	23551
844.025	23630
844.162	23482
844.298	23592
844.435	23459
844.571	23429
844.708	23512
844.844	23524
844.98	23581
845.117	23486
845.253	23299
845.389	23414
845.525	23250
845.661	23322
845.798	23216
845.934	23197
846.07	23178
846.206	23170
846.342	23307
846.478	23094
846.614	22980
846.75	22782
846.886	22892
847.022	22946
847.158	22911
847.294	22919
847.429	22873
847.565	22877
847.701	23181
847.837	22691
847.972	22557
848.108	22596
848.244	22645
848.379	22557
848.515	22584
848.65	22527
848.786	22596
848.921	22432
849.057	22664
849.192	22535
849.328	22394
849.463	22447
849.598	22497
849.734	22382
849.869	22181
850.004	22211
850.14	22379
850.275	22325
850.41	22082
850.545	22230
850.68	22249
850.815	22234
850.95	22284
851.085	22417
851.22	22386
851.355	22287
851.49	22242
851.625	22314
851.76	22116
851.895	22131
852.03	21991
852.165	22284
852.299	22291
852.434	22386
852.569	22268
852.703	22280
852.838	22219
852.973	22284
853.107	22318
853.242	22169
853.376	22128
853.511	21991
853.645	21987
853.78	22215
853.914	22139
854.048	22086
854.183	22074
854.317	22112
854.451	22147
854.585	22055
854.72	22078
854.854	22139
854.988	22063
855.122	22173
855.256	22040
855.39	22116
855.524	22063
855.658	22021
855.792	22063
855.926	22169
856.06	22097
856.194	22120
856.327	22086
856.461	21945
856.595	21983
856.729	22090
856.862	22295
856.996	22234
857.13	22211
857.263	22177
857.397	22181
857.53	21983
857.664	22097
857.797	22150
857.931	22196
858.064	22070
858.197	22192
858.331	22002
858.464	22051
858.597	22002
858.731	22055
858.864	21956
858.997	22040
859.13	22070
859.263	22120
859.396	22139
859.529	22093
859.662	21956
859.795	22067
859.928	21937
860.061	22150
860.194	22280
860.327	22097
860.46	22082
860.592	22093
860.725	22211
860.858	22124
860.99	22131
861.123	22029
861.256	21991
861.388	22074
861.521	22831
861.653	21934
861.786	21812
861.918	21892
862.05	21998
862.183	21888
862.315	22082
862.447	22040
862.58	21873
862.712	21774
862.844	21701
862.976	21846
863.108	21778
863.24	22261
863.372	21747
863.504	21709
863.636	21827
863.768	21854
863.9	21838
864.032	21641
864.164	21774
864.296	21717
864.428	21789
864.559	21778
864.691	21827
864.823	21739
864.954	21762
865.086	21747
865.217	21606
865.349	21633
865.48	21629
865.612	21652
865.743	21808
865.875	21591
866.006	21648
866.137	21709
866.269	21739
866.4	21519
866.531	21549
866.662	21496
866.793	21591
866.924	21557
867.055	21564
867.186	21603
867.317	21625
867.448	21530
867.579	21549
867.71	21496
867.841	21622
867.972	21633
868.103	21648
868.233	21648
868.364	21603
868.495	21724
868.625	21869
868.756	21774
868.886	21690
869.017	21857
869.147	21941
869.278	21911
869.408	21956
869.539	21857
869.669	21888
869.799	21854
869.929	21964
870.06	21888
870.19	22188
870.32	22238
870.45	22223
870.58	22109
870.71	22402
870.84	22314
870.97	22246
871.1	22337
871.23	22455
871.36	22432
871.489	22375
871.619	22466
871.749	22314
871.879	22451
872.008	22557
872.138	22470
872.267	22493
872.397	22447
872.526	22314
872.656	22238
872.785	22322
872.915	22516
873.044	22470
873.173	22455
873.303	22523
873.432	22398
873.561	22611
873.69	22577
873.819	22478
873.948	22577
874.077	22462
874.206	22523
874.335	22500
874.464	22607
874.593	22725
874.722	22679
874.851	22653
874.979	22645
875.108	22778
875.237	22618
875.365	22584
875.494	22710
875.623	22721
875.751	22596
875.88	22634
876.008	22869
876.136	22877
876.265	23041
876.393	23143
876.521	23109
876.65	23079
876.778	23083
876.906	22919
877.034	23083
877.162	22968
877.29	22923
877.418	23159
877.546	22987
877.674	23003
877.802	22946
877.93	22968
878.058	22946
878.185	22904
878.313	22930
878.441	22835
878.568	22869
878.696	22987
878.824	22972
878.951	23064
879.079	23166
879.206	23292
879.333	23212
879.461	23155
879.588	23029
879.715	23235
879.842	23341
879.97	22968
880.097	22725
880.224	22854
880.351	22820
880.478	22831
880.605	22778
880.732	22862
880.859	23067
880.986	22805
881.112	22793
881.239	22618
881.366	22641
881.493	22519
881.619	22447
881.746	22478
881.872	22333
881.999	22318
882.125	22299
882.252	22379
882.378	22356
882.505	22519
882.631	22280
882.757	22063
882.883	22181
883.01	22116
883.136	21964
883.262	22051
883.388	21960
883.514	21994
883.64	22162
883.766	22105
883.892	21823
884.018	21808
884.143	22090
884.269	22078
884.395	21682
884.52	21804
884.646	21869
884.772	21625
884.897	21736
885.023	21690
885.148	21876
885.274	21819
885.399	21800
885.524	21618
885.65	21720
885.775	21751
885.9	21633
886.025	21937
886.15	21850
886.275	21587
886.4	21473
886.525	21755
886.65	21625
886.775	21568
886.9	21793
887.025	21880
887.149	21679
887.274	21568
887.399	21447
887.523	21473
887.648	21386
887.773	21378
887.897	21599
888.021	21530
888.146	21424
888.27	21496
888.395	21469
888.519	21561
888.643	21587
888.767	21431
888.891	21317
889.015	21287
889.139	21256
889.263	21203
889.387	21443
889.511	21481
889.635	21344
889.759	21287
889.883	21272
890.006	21275
890.13	21298
890.254	21264
890.377	21173
890.501	21009
890.624	20971
890.748	20990
890.871	20861
890.995	20876
891.118	20750
891.241	20823
891.364	20777
891.488	20944
891.611	20815
891.734	20845
891.857	20902
891.98	20788
892.103	20845
892.226	20781
892.349	20895
892.471	20659
892.594	20746
892.717	20708
892.839	20686
892.962	20754
893.085	20807
893.207	20762
893.33	20682
893.452	20769
893.575	20838
893.697	20617
893.819	20895
893.941	20921
894.064	20895
894.186	20701
894.308	20613
894.43	20861
894.552	20883
894.674	20773
894.796	20686
894.918	20785
895.04	20636
895.161	20659
895.283	20701
895.405	20629
895.526	20746
895.648	20640
895.769	20750
895.891	20606
896.012	20842
896.134	20758
896.255	20777
896.376	20598
896.498	20724
896.619	20750
896.74	20716
896.861	20815
896.982	21005
897.103	21112
897.224	20944
897.345	20994
897.466	20864
897.587	21005
897.708	21047
897.828	20925
897.949	20914
898.07	20830
898.19	20883
898.311	20982
898.431	20941
898.552	20960
898.672	21093
898.792	20960
898.913	21020
899.033	20788
899.153	20788
899.273	20663
899.393	20636
899.513	20746
899.633	20785
899.753	20697
899.873	20514
899.993	20667
900.113	20560
900.232	20644
900.352	20454
900.472	20480
900.591	20442
900.711	20446
900.83	20427
900.95	20488
901.069	20518
901.189	20404
901.308	20202
901.427	19997
901.546	19989
901.665	20081
901.784	20035
901.904	20008
902.023	19746
902.141	19563
902.26	19628
902.379	19571
902.498	19582
902.617	19510
902.735	19506
902.854	19521
902.973	19415
903.091	19228
903.21	19240
903.328	19209
903.446	19137
903.565	18947
903.683	18928
903.801	18878
903.919	18882
904.038	18985
904.156	18768
904.274	18932
904.392	18707
904.51	18711
904.627	18707
904.745	18798
904.863	18760
904.981	18456
905.098	18346
905.216	18376
905.334	18464
905.451	18391
905.569	18426
905.686	18418
905.803	18361
905.921	18155
906.038	18342
906.155	18163
906.272	18098
906.389	18121
906.506	17923
906.623	17916
906.74	17904
906.857	17786
906.974	17779
907.091	17904
907.208	18064
907.324	17954
907.441	17790
907.557	17653
907.674	17676
907.79	17539
907.907	17657
908.023	17630
908.139	17615
908.256	17505
908.372	17459
908.488	17486
908.604	17463
908.72	17334
908.836	17398
908.952	17364
909.068	17379
909.184	17474
909.3	17379
909.415	17474
909.531	17284
909.647	17064
909.762	17041
909.878	17098
909.993	17022
910.108	17071
910.224	16999
910.339	17018
910.454	16835
910.57	16820
910.685	16831
910.8	17117
910.915	17025
911.03	17018
911.145	16653
911.259	16615
911.374	16634
911.489	16504
911.604	16478
911.718	16386
911.833	16337
911.947	16333
912.062	16238
912.176	16333
912.291	16337
912.405	16428
912.519	16584
912.633	16615
912.748	16409
912.862	16242
912.976	16143
913.09	16086
913.204	16131
913.318	16112
913.431	16265
913.545	16185
913.659	16287
913.772	16124
913.886	16036
914	16048
914.113	16002
914.226	16246
914.34	16067
914.453	15880
914.566	16021
914.68	15895
914.793	15876
914.906	15572
915.019	15614
915.132	15568
915.245	15561
915.358	15652
915.47	15625
915.583	15576
915.696	15519
915.809	15663
915.921	15641
916.034	15515
916.146	15542
916.259	15466
916.371	15553
916.483	15606
916.595	15363
916.708	15477
916.82	15382
916.932	15348
917.044	15313
917.156	15325
917.268	15237
917.38	15176
917.491	15245
917.603	15325
917.715	15332
917.826	15264
917.938	15104
918.049	15047
918.161	15180
918.272	15245
918.384	15260
918.495	15104
918.606	15024
918.717	14815
918.828	15013
918.939	15024
919.05	14887
919.161	14948
919.272	14735
919.383	14796
919.494	14929
919.604	15131
919.715	14975
919.826	14914
919.936	14967
920.047	15070
920.157	14921
920.267	15173
920.378	14982
920.488	14830
920.598	15081
920.708	15222
920.818	14990
920.928	15119
921.038	15195
921.148	15165
921.258	14826
921.368	14861
921.477	14674
921.587	14670
921.697	14507
921.806	14594
921.916	14362
922.025	14393
922.134	14332
922.244	14183
922.353	14324
922.462	14149
922.571	14054
922.68	13963
922.789	13967
922.898	13921
923.007	13871
923.116	13940
923.224	13830
923.333	13898
923.442	13734
923.55	13636
923.659	13826
923.767	13803
923.876	13677
923.984	13731
924.092	13616
924.201	13708
924.309	13586
924.417	13582
924.525	13613
924.633	13597
924.741	14366
924.849	13346
924.956	13563
925.064	13358
925.172	13274
925.279	13308
925.387	13438
925.494	13278
925.602	13430
925.709	13354
925.816	13221
925.924	13320
926.031	13354
926.138	13213
926.245	13285
926.352	13198
926.459	13324
926.566	13240
926.673	13160
926.779	13080
926.886	13027
926.993	12958
927.099	12890
927.206	12996
927.312	12856
927.419	12916
927.525	12833
927.631	12920
927.737	12779
927.843	12715
927.95	12506
928.056	12692
928.162	12665
928.267	12677
928.373	13263
928.479	12795
928.585	12547
928.69	12566
928.796	12673
928.901	12445
929.007	12490
929.112	12551
929.218	12517
929.323	12422
929.428	12346
929.533	12536
929.638	12338
929.743	12342
929.848	12369
929.953	12369
930.058	12270
930.163	12087
930.267	12140
930.372	12159
930.477	12041
930.581	12243
930.685	12190
930.79	12019
930.894	12022
930.998	11969
931.103	12091
931.207	11668
931.311	11722
931.415	11516
931.519	11391
931.623	11280
