Data from test_V78500241_3727.txt Node
Date: Fri Mar 25 16:07:37 CST 2022
User: usil
Spectrometer: V785-0024
Trigger mode: 0
Integration Time (sec): 4.000000E-1
Scans to average: 1
Nonlinearity correction enabled: false
Boxcar width: 0
Storing dark spectrum: false
XAxis mode: Wavelengths
Number of Pixels in Spectrum: 1024
>>>>>Begin Spectral Data<<<<<
801.071	28188
801.214	28379
801.356	27903
801.499	27888
801.641	27838
801.783	27648
801.926	27865
802.068	27869
802.211	27724
802.353	27717
802.496	27477
802.638	27492
802.78	27408
802.923	27393
803.065	27302
803.208	27283
803.35	27454
803.492	27633
803.635	27641
803.777	27557
803.919	27648
804.061	28017
804.204	27743
804.346	27583
804.488	27622
804.63	27557
804.773	27408
804.915	27682
805.057	27797
805.199	27637
805.341	27732
805.483	27812
805.626	27797
805.768	27603
805.91	27823
806.052	27854
806.194	27717
806.336	27991
806.478	27778
806.62	27797
806.762	27922
806.904	28086
807.046	28390
807.188	28268
807.33	28207
807.472	28284
807.614	28120
807.756	28192
807.898	28109
808.04	27983
808.182	28006
808.324	28124
808.465	28105
808.607	28310
808.749	28398
808.891	28569
809.033	28573
809.174	28542
809.316	28565
809.458	28451
809.6	28447
809.741	28508
809.883	28592
810.025	28740
810.166	28588
810.308	28858
810.45	28740
810.591	28717
810.733	28561
810.875	28497
811.016	28459
811.158	28478
811.299	28599
811.441	28755
811.582	28592
811.724	28565
811.865	28455
812.007	28382
812.148	28493
812.29	28436
812.431	28626
812.573	28713
812.714	28908
812.855	28984
812.997	29090
813.138	29235
813.279	29117
813.421	29056
813.562	28866
813.703	28778
813.845	28698
813.986	28462
814.127	28196
814.268	28177
814.41	28272
814.551	28124
814.692	28219
814.833	28124
814.974	28169
815.115	28154
815.256	28036
815.397	28036
815.539	28032
815.68	28051
815.821	27720
815.962	27869
816.103	28010
816.244	27854
816.385	27759
816.526	27720
816.666	27591
816.807	27405
816.948	27382
817.089	27568
817.23	27583
817.371	27439
817.512	27549
817.653	27538
817.793	27454
817.934	27447
818.075	27348
818.216	27485
818.356	27561
818.497	27237
818.638	27173
818.778	27332
818.919	27329
819.06	27298
819.2	27245
819.341	27454
819.481	27595
819.622	27793
819.762	27865
819.903	27701
820.043	27530
820.184	27591
820.324	27599
820.465	27701
820.605	27663
820.746	27553
820.886	27435
821.026	27705
821.167	27367
821.307	27774
821.447	27370
821.588	27359
821.728	27218
821.868	27081
822.008	27055
822.149	26960
822.289	26804
822.429	26800
822.569	26636
822.709	26651
822.849	26556
822.99	26492
823.13	26389
823.27	26431
823.41	26256
823.55	26161
823.69	26240
823.83	26180
823.97	26259
824.11	26202
824.25	26065
824.389	26065
824.529	26111
824.669	26122
824.809	26164
824.949	26157
825.089	26218
825.228	26149
825.368	25814
825.508	26084
825.648	26050
825.787	26073
825.927	26111
826.067	26027
826.206	25936
826.346	26031
826.485	26168
826.625	26039
826.765	26043
826.904	26024
827.044	25826
827.183	25700
827.323	25719
827.462	25837
827.601	25795
827.741	25700
827.88	25830
828.02	25708
828.159	25628
828.298	25742
828.437	25906
828.577	25624
828.716	25776
828.855	25624
828.994	25400
829.134	25335
829.273	25297
829.412	25529
829.551	25388
829.69	25445
829.829	25468
829.968	25537
830.107	25521
830.246	25422
830.385	25335
830.524	25381
830.663	25103
830.802	25137
830.941	25084
831.08	24909
831.219	25129
831.357	25240
831.496	25331
831.635	25114
831.774	25122
831.913	24920
832.051	24795
832.19	24852
832.329	24798
832.467	24688
832.606	24677
832.744	24578
832.883	24696
833.022	24700
833.16	24707
833.299	24646
833.437	24795
833.576	24798
833.714	24821
833.852	24989
833.991	24798
834.129	24738
834.267	24654
834.406	24684
834.544	24669
834.682	24814
834.821	24745
834.959	24878
835.097	24650
835.235	24627
835.373	24814
835.511	24749
835.65	24612
835.788	24517
835.926	24555
836.064	24353
836.202	24353
836.34	24437
836.478	24616
836.615	24452
836.753	24551
836.891	24700
837.029	24616
837.167	24604
837.305	24464
837.443	24471
837.58	24353
837.718	24391
837.856	24365
837.993	24342
838.131	24418
838.269	24273
838.406	24296
838.544	24296
838.681	24083
838.819	23996
838.956	23863
839.094	23836
839.231	23988
839.369	24045
839.506	24357
839.643	24197
839.781	23836
839.918	23939
840.055	23984
840.193	23767
840.33	23653
840.467	23790
840.604	23889
840.742	23992
840.879	23596
841.016	23676
841.153	23710
841.29	23946
841.427	23676
841.564	23794
841.701	23878
841.838	23718
841.975	23684
842.112	23714
842.249	23649
842.385	23535
842.522	23710
842.659	23627
842.796	23493
842.933	23539
843.069	23562
843.206	23459
843.343	23543
843.479	23547
843.616	23531
843.752	23303
843.889	23455
844.025	23501
844.162	23277
844.298	23341
844.435	23410
844.571	23223
844.708	23307
844.844	23425
844.98	23402
845.117	23452
845.253	23239
845.389	23239
845.525	23162
845.661	23208
845.798	22976
845.934	23166
846.07	23060
846.206	23105
846.342	23200
846.478	23128
846.614	22949
846.75	22752
846.886	22767
847.022	22816
847.158	22877
847.294	22862
847.429	22767
847.565	22733
847.701	22987
847.837	22557
847.972	22527
848.108	22561
848.244	22607
848.379	22367
848.515	22360
848.65	22348
848.786	22440
848.921	22428
849.057	22451
849.192	22443
849.328	22497
849.463	22371
849.598	22413
849.734	22284
849.869	22192
850.004	22067
850.14	22207
850.275	22124
850.41	22032
850.545	22059
850.68	22036
850.815	22238
850.95	22162
851.085	22287
851.22	22234
851.355	22166
851.49	22276
851.625	22143
851.76	22082
851.895	22044
852.03	22101
852.165	22192
852.299	22139
852.434	22242
852.569	22109
852.703	22082
852.838	22207
852.973	22200
853.107	22238
853.242	22067
853.376	22070
853.511	21888
853.645	22002
853.78	22044
853.914	22025
854.048	21861
854.183	21880
854.317	21960
854.451	22207
854.585	21983
854.72	21941
854.854	22059
854.988	21937
855.122	21945
855.256	21884
855.39	21998
855.524	21991
855.658	22040
855.792	21983
855.926	21892
856.06	22048
856.194	22093
856.327	21884
856.461	21884
856.595	21907
856.729	22055
856.862	22143
856.996	22017
857.13	22010
857.263	22051
857.397	22032
857.53	21911
857.664	22078
857.797	22063
857.931	22063
858.064	21922
858.197	22040
858.331	22048
858.464	21934
858.597	21823
858.731	21880
858.864	21911
858.997	21949
859.13	21956
859.263	22013
859.396	22082
859.529	21895
859.662	21865
859.795	21899
859.928	21930
860.061	22044
860.194	22192
860.327	22048
860.46	21972
860.592	22166
860.725	22185
860.858	22116
860.99	21994
861.123	21812
861.256	21846
861.388	22010
861.521	22584
861.653	21739
861.786	21705
861.918	21800
862.05	21842
862.183	21842
862.315	21854
862.447	21972
862.58	21717
862.712	21766
862.844	21648
862.976	21770
863.108	21755
863.24	22044
863.372	21679
863.504	21652
863.636	21682
863.768	21797
863.9	21785
864.032	21686
864.164	21583
864.296	21667
864.428	21709
864.559	21759
864.691	21724
864.823	21599
864.954	21629
865.086	21629
865.217	21496
865.349	21576
865.48	21557
865.612	21534
865.743	21690
865.875	21679
866.006	21496
866.137	21439
866.269	21595
866.4	21477
866.531	21557
866.662	21530
866.793	21549
866.924	21534
867.055	21473
867.186	21458
867.317	21473
867.448	21420
867.579	21458
867.71	21374
867.841	21340
867.972	21348
868.103	21496
868.233	21538
868.364	21466
868.495	21633
868.625	21686
868.756	21808
868.886	21671
869.017	21751
869.147	21831
869.278	21793
869.408	21694
869.539	21690
869.669	21793
869.799	21880
869.929	21827
870.06	21812
870.19	22059
870.32	21956
870.45	22070
870.58	22147
870.71	22204
870.84	22177
870.97	22181
871.1	22135
871.23	22306
871.36	22268
871.489	22306
871.619	22303
871.749	22280
871.879	22344
872.008	22447
872.138	22329
872.267	22291
872.397	22219
872.526	22109
872.656	22109
872.785	22196
872.915	22314
873.044	22386
873.173	22428
873.303	22382
873.432	22417
873.561	22531
873.69	22405
873.819	22424
873.948	22462
874.077	22402
874.206	22272
874.335	22356
874.464	22424
874.593	22596
874.722	22622
874.851	22717
874.979	22523
875.108	22588
875.237	22546
875.365	22405
875.494	22527
875.623	22656
875.751	22611
875.88	22672
876.008	22584
876.136	22725
876.265	23086
876.393	23128
876.521	22999
876.65	23166
876.778	23075
876.906	22900
877.034	22793
877.162	22999
877.29	22942
877.418	22831
877.546	22820
877.674	22877
877.802	22961
877.93	22930
878.058	22908
878.185	22820
878.313	22904
878.441	22904
878.568	22679
878.696	22831
878.824	22953
878.951	22892
879.079	23086
879.206	23159
879.333	23075
879.461	22942
879.588	23060
879.715	23029
879.842	23261
879.97	23052
880.097	22786
880.224	22809
880.351	22740
880.478	22729
880.605	22877
880.732	22729
880.859	22904
880.986	22736
881.112	22778
881.239	22637
881.366	22592
881.493	22421
881.619	22325
881.746	22375
881.872	22246
881.999	22253
882.125	22356
882.252	22314
882.378	22280
882.505	22417
882.631	22143
882.757	21987
882.883	22025
883.01	22029
883.136	21884
883.262	21823
883.388	21918
883.514	22078
883.64	22150
883.766	21892
883.892	21876
884.018	21861
884.143	21876
884.269	22010
884.395	21751
884.52	21618
884.646	21561
884.772	21599
884.897	21553
885.023	21595
885.148	21724
885.274	21728
885.399	21743
885.524	21732
885.65	21679
885.775	21675
885.9	21633
886.025	21618
886.15	21690
886.275	21534
886.4	21485
886.525	21553
886.65	21526
886.775	21576
886.9	21660
887.025	21823
887.149	21660
887.274	21420
887.399	21321
887.523	21367
887.648	21287
887.773	21283
887.897	21572
888.021	21469
888.146	21329
888.27	21504
888.395	21447
888.519	21428
888.643	21504
888.767	21431
888.891	21325
889.015	21138
889.139	21207
889.263	21249
889.387	21275
889.511	21462
889.635	21515
889.759	21146
889.883	21184
890.006	21161
890.13	21237
890.254	21055
890.377	20960
890.501	20933
890.624	20994
890.748	20986
890.871	20777
890.995	20678
891.118	20640
891.241	20746
891.364	20735
891.488	20899
891.611	20697
891.734	20739
891.857	20705
891.98	20845
892.103	20765
892.226	20712
892.349	20640
892.471	20530
892.594	20655
892.717	20636
892.839	20606
892.962	20686
893.085	20712
893.207	20636
893.33	20541
893.452	20507
893.575	20659
893.697	20724
893.819	20781
893.941	20944
894.064	20686
894.186	20613
894.308	20549
894.43	20804
894.552	20735
894.674	20617
894.796	20549
894.918	20590
895.04	20552
895.161	20629
895.283	20788
895.405	20549
895.526	20625
895.648	20556
895.769	20545
895.891	20682
896.012	20644
896.134	20655
896.255	20606
896.376	20522
896.498	20533
896.619	20727
896.74	20613
896.861	20705
896.982	20891
897.103	20990
897.224	20933
897.345	20773
897.466	20838
897.587	20834
897.708	20823
897.828	20876
897.949	20727
898.07	20670
898.19	20777
898.311	20895
898.431	20823
898.552	20800
898.672	20731
898.792	21013
898.913	20918
899.033	20743
899.153	20636
899.273	20518
899.393	20495
899.513	20590
899.633	20663
899.753	20724
899.873	20476
899.993	20750
900.113	20564
900.232	20602
900.352	20503
900.472	20427
900.591	20320
900.711	20290
900.83	20195
900.95	20351
901.069	20495
901.189	20320
901.308	20035
901.427	19921
901.546	19932
901.665	20012
901.784	19871
901.904	19814
902.023	19734
902.141	19514
902.26	19460
902.379	19548
902.498	19533
902.617	19350
902.735	19476
902.854	19403
902.973	19308
903.091	19122
903.21	19190
903.328	19050
903.446	19057
903.565	18894
903.683	18867
903.801	18791
903.919	18897
904.038	18825
904.156	18825
904.274	18764
904.392	18612
904.51	18650
904.627	18677
904.745	18658
904.863	18620
904.981	18429
905.098	18407
905.216	18319
905.334	18346
905.451	18273
905.569	18258
905.686	18292
905.803	18357
905.921	18155
906.038	18277
906.155	18213
906.272	18026
906.389	18041
906.506	17798
906.623	17996
906.74	17923
906.857	17642
906.974	17821
907.091	17950
907.208	18011
907.324	17866
907.441	17741
907.557	17611
907.674	17566
907.79	17562
907.907	17596
908.023	17585
908.139	17535
908.256	17501
908.372	17372
908.488	17376
908.604	17337
908.72	17220
908.836	17356
908.952	17208
909.068	17307
909.184	17459
909.3	17318
909.415	17265
909.531	17402
909.647	16980
909.762	16984
909.878	16850
909.993	16991
910.108	16885
910.224	16938
910.339	16968
910.454	16767
910.57	16790
910.685	16801
910.8	17010
910.915	16984
911.03	16809
911.145	16546
911.259	16615
911.374	16683
911.489	16504
911.604	16424
911.718	16325
911.833	16363
911.947	16268
912.062	16135
912.176	16314
912.291	16402
912.405	16287
912.519	16497
912.633	16390
912.748	16382
912.862	16318
912.976	16215
913.09	15979
913.204	16200
913.318	16112
913.431	16169
913.545	16105
913.659	16207
913.772	16135
913.886	15888
914	15953
914.113	15994
914.226	16006
914.34	15956
914.453	15823
914.566	15892
914.68	15770
914.793	15759
914.906	15622
915.019	15507
915.132	15416
915.245	15416
915.358	15450
915.47	15458
915.583	15458
915.696	15549
915.809	15603
915.921	15622
916.034	15382
916.146	15469
916.259	15443
916.371	15454
916.483	15542
916.595	15230
916.708	15374
916.82	15344
916.932	15317
917.044	15252
917.156	15363
917.268	15146
917.38	15203
917.491	15161
917.603	15123
917.715	15249
917.826	15279
917.938	15157
918.049	15081
918.161	15123
918.272	15287
918.384	15169
918.495	15104
918.606	14937
918.717	14864
918.828	14941
918.939	14853
919.05	14769
919.161	14925
919.272	14678
919.383	14750
919.494	14960
919.604	15146
919.715	14853
919.826	14750
919.936	14845
920.047	14891
920.157	14868
920.267	15123
920.378	14800
920.488	14826
920.598	15013
920.708	15131
920.818	15051
920.928	15005
921.038	15024
921.148	14994
921.258	14746
921.368	14762
921.477	14663
921.587	14590
921.697	14434
921.806	14602
921.916	14442
922.025	14282
922.134	14275
922.244	14199
922.353	14290
922.462	14107
922.571	14012
922.68	13860
922.789	13852
922.898	13814
923.007	13833
923.116	13826
923.224	13875
923.333	13856
923.442	13666
923.55	13628
923.659	13719
923.767	13818
923.876	13582
923.984	13704
924.092	13518
924.201	13624
924.309	13639
924.417	13563
924.525	13537
924.633	13548
924.741	14347
924.849	13362
924.956	13365
925.064	13278
925.172	13320
925.279	13316
925.387	13149
925.494	13312
925.602	13377
925.709	13209
925.816	13183
925.924	13244
926.031	13278
926.138	13137
926.245	13168
926.352	13156
926.459	13251
926.566	13297
926.673	13149
926.779	12996
926.886	12985
926.993	12871
927.099	12783
927.206	12821
927.312	12817
927.419	12856
927.525	12871
927.631	12825
927.737	12768
927.843	12677
927.95	12593
928.056	12635
928.162	12688
928.267	12730
928.373	13213
928.479	12719
928.585	12403
928.69	12513
928.796	12631
928.901	12528
929.007	12414
929.112	12513
929.218	12464
929.323	12311
929.428	12403
929.533	12388
929.638	12296
929.743	12296
929.848	12330
929.953	12353
930.058	12251
930.163	12045
930.267	11961
930.372	12155
930.477	12019
930.581	12190
930.685	12144
930.79	11847
930.894	11992
930.998	11980
931.103	12175
931.207	11661
931.311	11543
931.415	11535
931.519	11288
931.623	11292
