Data from test_V78500241_1434.txt Node
Date: Fri Mar 25 15:51:44 CST 2022
User: usil
Spectrometer: V785-0024
Trigger mode: 0
Integration Time (sec): 4.000000E-1
Scans to average: 1
Nonlinearity correction enabled: false
Boxcar width: 0
Storing dark spectrum: false
XAxis mode: Wavelengths
Number of Pixels in Spectrum: 1024
>>>>>Begin Spectral Data<<<<<
801.071	28177
801.214	28177
801.356	28044
801.499	27994
801.641	27842
801.783	27778
801.926	27770
802.068	27709
802.211	27728
802.353	27785
802.496	27519
802.638	27462
802.78	27572
802.923	27507
803.065	27393
803.208	27374
803.35	27500
803.492	27614
803.635	27766
803.777	27504
803.919	27682
804.061	27994
804.204	27850
804.346	27606
804.488	27431
804.63	27679
804.773	27759
804.915	27724
805.057	27816
805.199	27679
805.341	27789
805.483	27892
805.626	27888
805.768	27755
805.91	27888
806.052	27804
806.194	27766
806.336	28128
806.478	27949
806.62	27899
806.762	28048
806.904	28135
807.046	28436
807.188	28322
807.33	28367
807.472	28341
807.614	28200
807.756	28249
807.898	28116
808.04	28090
808.182	28063
808.324	28101
808.465	28226
808.607	28428
808.749	28554
808.891	28523
809.033	28694
809.174	28596
809.316	28630
809.458	28573
809.6	28489
809.741	28599
809.883	28626
810.025	28854
810.166	28812
810.308	28835
810.45	28847
810.591	28816
810.733	28504
810.875	28596
811.016	28497
811.158	28424
811.299	28550
811.441	28710
811.582	28740
811.724	28440
811.865	28462
812.007	28535
812.148	28367
812.29	28462
812.431	28725
812.573	28797
812.714	28949
812.855	28987
812.997	29067
813.138	29280
813.279	29117
813.421	29003
813.562	28873
813.703	28866
813.845	28710
813.986	28367
814.127	28299
814.268	28246
814.41	28280
814.551	28200
814.692	28337
814.833	28002
814.974	28185
815.115	28344
815.256	28109
815.397	28169
815.539	28090
815.68	28185
815.821	27930
815.962	27960
816.103	27941
816.244	27907
816.385	27812
816.526	27717
816.666	27614
816.807	27534
816.948	27591
817.089	27633
817.23	27450
817.371	27458
817.512	27485
817.653	27492
817.793	27454
817.934	27431
818.075	27557
818.216	27633
818.356	27313
818.497	27416
818.638	27104
818.778	27173
818.919	27283
819.06	27359
819.2	27397
819.341	27534
819.481	27492
819.622	27587
819.762	27880
819.903	27736
820.043	27724
820.184	27698
820.324	27618
820.465	27778
820.605	27808
820.746	27572
820.886	27515
821.026	27751
821.167	27572
821.307	27633
821.447	27633
821.588	27504
821.728	27214
821.868	27093
822.008	26914
822.149	27104
822.289	26967
822.429	26758
822.569	26606
822.709	26526
822.849	26514
822.99	26537
823.13	26381
823.27	26404
823.41	26317
823.55	26191
823.69	26370
823.83	26313
823.97	26210
824.11	26119
824.25	26035
824.389	25963
824.529	26210
824.669	26187
824.809	26218
824.949	26225
825.089	26206
825.228	26206
825.368	26073
825.508	26031
825.648	26103
825.787	26180
825.927	25982
826.067	25913
826.206	25906
826.346	26016
826.485	26142
826.625	26191
826.765	26084
826.904	25921
827.044	25780
827.183	25811
827.323	25643
827.462	25784
827.601	25738
827.741	25658
827.88	25693
828.02	25567
828.159	25674
828.298	25704
828.437	25712
828.577	25597
828.716	25811
828.855	25746
828.994	25304
829.134	25400
829.273	25624
829.412	25381
829.551	25384
829.69	25419
829.829	25525
829.968	25499
830.107	25487
830.246	25403
830.385	25335
830.524	25327
830.663	25285
830.802	25107
830.941	25110
831.08	24821
831.219	25004
831.357	24962
831.496	25327
831.635	25031
831.774	24875
831.913	24943
832.051	24909
832.19	24894
832.329	24890
832.467	24700
832.606	24639
832.744	24578
832.883	24776
833.022	24688
833.16	24669
833.299	24798
833.437	24715
833.576	24707
833.714	24730
833.852	24833
833.991	24791
834.129	24776
834.267	24749
834.406	24684
834.544	24700
834.682	24798
834.821	24719
834.959	24943
835.097	24566
835.235	24669
835.373	24768
835.511	24635
835.65	24578
835.788	24658
835.926	24456
836.064	24395
836.202	24338
836.34	24574
836.478	24654
836.615	24525
836.753	24692
836.891	24559
837.029	24540
837.167	24597
837.305	24528
837.443	24464
837.58	24388
837.718	24365
837.856	24327
837.993	24338
838.131	24350
838.269	24194
838.406	24285
838.544	24361
838.681	23885
838.819	23950
838.956	23882
839.094	23824
839.231	23942
839.369	24117
839.506	24254
839.643	24171
839.781	23817
839.918	23863
840.055	23882
840.193	23843
840.33	23813
840.467	23794
840.604	23710
840.742	23977
840.879	23691
841.016	23691
841.153	23710
841.29	23920
841.427	23684
841.564	23756
841.701	23794
841.838	23600
841.975	23566
842.112	23611
842.249	23600
842.385	23493
842.522	23775
842.659	23554
842.796	23535
842.933	23478
843.069	23448
843.206	23417
843.343	23512
843.479	23585
843.616	23562
843.752	23296
843.889	23360
844.025	23315
844.162	23345
844.298	23349
844.435	23254
844.571	23159
844.708	23402
844.844	23414
844.98	23528
845.117	23421
845.253	23143
845.389	23208
845.525	23261
845.661	23090
845.798	23018
845.934	23010
846.07	23014
846.206	23029
846.342	23140
846.478	22854
846.614	22793
846.75	22763
846.886	22854
847.022	22885
847.158	22778
847.294	22782
847.429	22774
847.565	22767
847.701	22847
847.837	22592
847.972	22455
848.108	22546
848.244	22637
848.379	22333
848.515	22459
848.65	22348
848.786	22413
848.921	22306
849.057	22443
849.192	22508
849.328	22249
849.463	22390
849.598	22413
849.734	22318
849.869	22265
850.004	22154
850.14	22169
850.275	22109
850.41	21998
850.545	22090
850.68	22010
850.815	22143
850.95	22090
851.085	22215
851.22	22158
851.355	22112
851.49	22078
851.625	22143
851.76	22131
851.895	22017
852.03	22078
852.165	22143
852.299	22131
852.434	22276
852.569	22261
852.703	22116
852.838	22185
852.973	22329
853.107	22188
853.242	22048
853.376	22025
853.511	21915
853.645	21968
853.78	22169
853.914	22002
854.048	21907
854.183	21983
854.317	22086
854.451	22048
854.585	21903
854.72	21880
854.854	21991
854.988	21926
855.122	21880
855.256	21831
855.39	21953
855.524	22040
855.658	21907
855.792	22032
855.926	21941
856.06	22029
856.194	22032
856.327	21880
856.461	21926
856.595	21816
856.729	21960
856.862	22120
856.996	21968
857.13	22059
857.263	22059
857.397	22063
857.53	21998
857.664	21918
857.797	22055
857.931	22017
858.064	21953
858.197	22097
858.331	21816
858.464	21895
858.597	21892
858.731	22017
858.864	21922
858.997	21918
859.13	21911
859.263	21979
859.396	21922
859.529	21972
859.662	21998
859.795	21812
859.928	21892
860.061	22154
860.194	22177
860.327	22059
860.46	21915
860.592	22135
860.725	21994
860.858	22128
860.99	21968
861.123	21755
861.256	21873
861.388	22017
861.521	22706
861.653	21812
861.786	21705
861.918	21739
862.05	21770
862.183	21854
862.315	21960
862.447	21850
862.58	21850
862.712	21591
862.844	21656
862.976	21755
863.108	21770
863.24	22204
863.372	21530
863.504	21576
863.636	21656
863.768	21804
863.9	21629
864.032	21583
864.164	21568
864.296	21641
864.428	21686
864.559	21793
864.691	21660
864.823	21641
864.954	21576
865.086	21736
865.217	21564
865.349	21515
865.48	21454
865.612	21523
865.743	21705
865.875	21622
866.006	21473
866.137	21526
866.269	21431
866.4	21572
866.531	21408
866.662	21485
866.793	21511
866.924	21469
867.055	21462
867.186	21443
867.317	21435
867.448	21313
867.579	21507
867.71	21412
867.841	21268
867.972	21526
868.103	21428
868.233	21469
868.364	21488
868.495	21701
868.625	21739
868.756	21804
868.886	21553
869.017	21747
869.147	21736
869.278	21850
869.408	21743
869.539	21656
869.669	21819
869.799	21694
869.929	21804
870.06	21854
870.19	22013
870.32	22154
870.45	22070
870.58	22124
870.71	22204
870.84	22169
870.97	22063
871.1	22055
871.23	22204
871.36	22394
871.489	22253
871.619	22196
871.749	22394
871.879	22341
872.008	22344
872.138	22322
872.267	22371
872.397	22215
872.526	22124
872.656	22162
872.785	22135
872.915	22367
873.044	22375
873.173	22310
873.303	22432
873.432	22421
873.561	22398
873.69	22261
873.819	22382
873.948	22512
874.077	22360
874.206	22314
874.335	22310
874.464	22436
874.593	22611
874.722	22538
874.851	22554
874.979	22603
875.108	22577
875.237	22554
875.365	22413
875.494	22523
875.623	22706
875.751	22504
875.88	22622
876.008	22702
876.136	22748
876.265	22869
876.393	23109
876.521	22938
876.65	23079
876.778	22968
876.906	22987
877.034	22953
877.162	22850
877.29	22927
877.418	22854
877.546	22938
877.674	22869
877.802	22961
877.93	22900
878.058	22839
878.185	22778
878.313	22782
878.441	22824
878.568	22668
878.696	22873
878.824	22915
878.951	22976
879.079	23086
879.206	23204
879.333	23166
879.461	22991
879.588	23003
879.715	23033
879.842	23121
879.97	23071
880.097	22778
880.224	22725
880.351	22900
880.478	22702
880.605	22683
880.732	22748
880.859	22797
880.986	22721
881.112	22740
881.239	22584
881.366	22470
881.493	22314
881.619	22303
881.746	22333
881.872	22284
881.999	22242
882.125	22105
882.252	22314
882.378	22215
882.505	22261
882.631	22128
882.757	22021
882.883	22044
883.01	22021
883.136	22006
883.262	21823
883.388	21774
883.514	21915
883.64	22090
883.766	21956
883.892	21709
884.018	21633
884.143	21964
884.269	22074
884.395	21705
884.52	21587
884.646	21656
884.772	21583
884.897	21389
885.023	21667
885.148	21694
885.274	21804
885.399	21679
885.524	21637
885.65	21587
885.775	21538
885.9	21576
886.025	21827
886.15	21732
886.275	21530
886.4	21515
886.525	21606
886.65	21606
886.775	21538
886.9	21663
887.025	21724
887.149	21561
887.274	21393
887.399	21405
887.523	21466
887.648	21302
887.773	21321
887.897	21450
888.021	21481
888.146	21165
888.27	21454
888.395	21511
888.519	21405
888.643	21359
888.767	21386
888.891	21256
889.015	21226
889.139	21279
889.263	21093
889.387	21329
889.511	21488
889.635	21378
889.759	21119
889.883	21138
890.006	21123
890.13	21176
890.254	20952
890.377	21043
890.501	20929
890.624	20872
890.748	20906
890.871	20785
890.995	20613
891.118	20644
891.241	20686
891.364	20701
891.488	20819
891.611	20845
891.734	20693
891.857	20720
891.98	20689
892.103	20845
892.226	20765
892.349	20659
892.471	20415
892.594	20629
892.717	20727
892.839	20560
892.962	20659
893.085	20674
893.207	20613
893.33	20522
893.452	20571
893.575	20602
893.697	20564
893.819	20754
893.941	20746
894.064	20773
894.186	20556
894.308	20648
894.43	20590
894.552	20796
894.674	20708
894.796	20484
894.918	20564
895.04	20640
895.161	20705
895.283	20575
895.405	20492
895.526	20617
895.648	20568
895.769	20689
895.891	20644
896.012	20632
896.134	20682
896.255	20777
896.376	20587
896.498	20705
896.619	20697
896.74	20571
896.861	20708
896.982	20971
897.103	21066
897.224	20876
897.345	20857
897.466	20834
897.587	20864
897.708	20956
897.828	20796
897.949	20697
898.07	20659
898.19	20777
898.311	20952
898.431	20765
898.552	20891
898.672	20880
898.792	20960
898.913	20880
899.033	20796
899.153	20686
899.273	20511
899.393	20594
899.513	20625
899.633	20583
899.753	20537
899.873	20530
899.993	20587
900.113	20427
900.232	20507
900.352	20522
900.472	20374
900.591	20366
900.711	20427
900.83	20286
900.95	20389
901.069	20465
901.189	20195
901.308	19993
901.427	19871
901.546	19898
901.665	19947
901.784	19955
901.904	19826
902.023	19849
902.141	19502
902.26	19468
902.379	19491
902.498	19426
902.617	19392
902.735	19521
902.854	19331
902.973	19396
903.091	19133
903.21	18913
903.328	19050
903.446	18939
903.565	18897
903.683	18901
903.801	18722
903.919	18905
904.038	18844
904.156	18544
904.274	18798
904.392	18665
904.51	18589
904.627	18582
904.745	18673
904.863	18703
904.981	18509
905.098	18407
905.216	18327
905.334	18372
905.451	18361
905.569	18262
905.686	18365
905.803	18319
905.921	18034
906.038	18232
906.155	18152
906.272	17950
906.389	18057
906.506	17809
906.623	17851
906.74	17783
906.857	17775
906.974	17703
907.091	17745
907.208	17965
907.324	17923
907.441	17760
907.557	17551
907.674	17585
907.79	17589
907.907	17562
908.023	17566
908.139	17657
908.256	17463
908.372	17433
908.488	17493
908.604	17254
908.72	17212
908.836	17356
908.952	17258
909.068	17303
909.184	17444
909.3	17250
909.415	17284
909.531	17345
909.647	16934
909.762	17048
909.878	16938
909.993	16995
910.108	16953
910.224	16881
910.339	16824
910.454	16892
910.57	16755
910.685	16664
910.8	16961
910.915	16919
911.03	16755
911.145	16592
911.259	16577
911.374	16618
911.489	16481
911.604	16485
911.718	16325
911.833	16325
911.947	16135
912.062	16048
912.176	16367
912.291	16287
912.405	16291
912.519	16424
912.633	16485
912.748	16344
912.862	16280
912.976	16059
913.09	15991
913.204	16055
913.318	16078
913.431	16116
913.545	16280
913.659	16246
913.772	16029
913.886	15994
914	15964
914.113	15903
914.226	16010
914.34	15857
914.453	15713
914.566	15918
914.68	15759
914.793	15682
914.906	15599
915.019	15412
915.132	15397
915.245	15466
915.358	15439
915.47	15530
915.583	15469
915.696	15587
915.809	15701
915.921	15488
916.034	15462
916.146	15397
916.259	15405
916.371	15473
916.483	15431
916.595	15386
916.708	15230
916.82	15283
916.932	15195
917.044	15287
917.156	15279
917.268	15192
917.38	15173
917.491	15169
917.603	15218
917.715	15138
917.826	15252
917.938	15013
918.049	14925
918.161	15077
918.272	15176
918.384	15127
918.495	15047
918.606	14956
918.717	14849
918.828	14895
918.939	15028
919.05	14765
919.161	14800
919.272	14575
919.383	14826
919.494	14910
919.604	15104
919.715	14979
919.826	14777
919.936	14765
920.047	14979
920.157	14883
920.267	15085
920.378	14895
920.488	14849
920.598	15001
920.708	15135
920.818	14948
920.928	14956
921.038	15077
921.148	15104
921.258	14739
921.368	14777
921.477	14689
921.587	14590
921.697	14358
921.806	14518
921.916	14419
922.025	14298
922.134	14195
922.244	14161
922.353	14252
922.462	14107
922.571	13902
922.68	13868
922.789	13837
922.898	13864
923.007	13784
923.116	13890
923.224	13818
923.333	13776
923.442	13704
923.55	13616
923.659	13693
923.767	13780
923.876	13651
923.984	13677
924.092	13636
924.201	13643
924.309	13613
924.417	13655
924.525	13525
924.633	13544
924.741	14256
924.849	13365
924.956	13426
925.064	13164
925.172	13145
925.279	13198
925.387	13263
925.494	13304
925.602	13369
925.709	13190
925.816	13080
925.924	13190
926.031	13221
926.138	13107
926.245	13190
926.352	13141
926.459	13160
926.566	13221
926.673	13088
926.779	12932
926.886	12966
926.993	12837
927.099	12829
927.206	12779
927.312	12798
927.419	12859
927.525	12783
927.631	12821
927.737	12696
927.843	12707
927.95	12513
928.056	12665
928.162	12608
928.267	12681
928.373	13270
928.479	12627
928.585	12471
928.69	12582
928.796	12578
928.901	12460
929.007	12445
929.112	12426
929.218	12475
929.323	12384
929.428	12330
929.533	12403
929.638	12254
929.743	12277
929.848	12334
929.953	12266
930.058	12140
930.163	12003
930.267	11939
930.372	12121
930.477	12064
930.581	12201
930.685	12038
930.79	11996
930.894	11939
930.998	11836
931.103	11958
931.207	11627
931.311	11554
931.415	11463
931.519	11318
931.623	11185
