Data from test_V78500241_3385.txt Node
Date: Fri Mar 25 16:05:15 CST 2022
User: usil
Spectrometer: V785-0024
Trigger mode: 0
Integration Time (sec): 4.000000E-1
Scans to average: 1
Nonlinearity correction enabled: false
Boxcar width: 0
Storing dark spectrum: false
XAxis mode: Wavelengths
Number of Pixels in Spectrum: 1024
>>>>>Begin Spectral Data<<<<<
801.071	28611
801.214	28538
801.356	28166
801.499	28276
801.641	28139
801.783	28124
801.926	28154
802.068	28006
802.211	28029
802.353	27926
802.496	27911
802.638	27895
802.78	27709
802.923	27793
803.065	27599
803.208	27656
803.35	27751
803.492	27964
803.635	28128
803.777	27941
803.919	28051
804.061	28382
804.204	27979
804.346	27884
804.488	27956
804.63	27937
804.773	27850
804.915	28101
805.057	28230
805.199	27857
805.341	28234
805.483	28162
805.626	28242
805.768	28147
805.91	28192
806.052	28154
806.194	28093
806.336	28230
806.478	28158
806.62	28074
806.762	28421
806.904	28557
807.046	28713
807.188	28634
807.33	28550
807.472	28831
807.614	28630
807.756	28516
807.898	28455
808.04	28367
808.182	28401
808.324	28546
808.465	28538
808.607	28679
808.749	28755
808.891	28866
809.033	29056
809.174	28980
809.316	28843
809.458	28835
809.6	28854
809.741	28976
809.883	29041
810.025	29064
810.166	29022
810.308	29109
810.45	29075
810.591	29075
810.733	28976
810.875	28816
811.016	28713
811.158	28759
811.299	28885
811.441	28995
811.582	29025
811.724	28980
811.865	28881
812.007	28828
812.148	28957
812.29	28858
812.431	29083
812.573	29181
812.714	29417
812.855	29356
812.997	29482
813.138	29471
813.279	29471
813.421	29425
813.562	29307
813.703	29181
813.845	29056
813.986	28748
814.127	28580
814.268	28535
814.41	28622
814.551	28607
814.692	28592
814.833	28535
814.974	28405
815.115	28618
815.256	28561
815.397	28500
815.539	28580
815.68	28417
815.821	28124
815.962	28314
816.103	28291
816.244	28268
816.385	28082
816.526	28169
816.666	27926
816.807	27911
816.948	27945
817.089	28040
817.23	27876
817.371	27812
817.512	27895
817.653	27850
817.793	27823
817.934	27732
818.075	27797
818.216	27888
818.356	27789
818.497	27644
818.638	27568
818.778	27568
818.919	27641
819.06	27698
819.2	27838
819.341	27949
819.481	27987
819.622	27941
819.762	28306
819.903	28135
820.043	28162
820.184	28059
820.324	28181
820.465	28219
820.605	28131
820.746	27888
820.886	27888
821.026	28040
821.167	27895
821.307	27987
821.447	27998
821.588	27774
821.728	27629
821.868	27511
822.008	27275
822.149	27408
822.289	27313
822.429	27062
822.569	27024
822.709	27081
822.849	26918
822.99	26845
823.13	26781
823.27	26910
823.41	26659
823.55	26705
823.69	26727
823.83	26727
823.97	26644
824.11	26457
824.25	26568
824.389	26602
824.529	26499
824.669	26522
824.809	26526
824.949	26644
825.089	26495
825.228	26598
825.368	26450
825.508	26412
825.648	26507
825.787	26381
825.927	26393
826.067	26347
826.206	26187
826.346	26461
826.485	26362
826.625	26317
826.765	26564
826.904	26480
827.044	26153
827.183	26214
827.323	26149
827.462	26157
827.601	26145
827.741	26111
827.88	26191
828.02	26027
828.159	26263
828.298	26157
828.437	26176
828.577	25974
828.716	26206
828.855	26081
828.994	25845
829.134	25826
829.273	25784
829.412	25791
829.551	25575
829.69	25811
829.829	25822
829.968	25791
830.107	25925
830.246	25871
830.385	25655
830.524	25757
830.663	25571
830.802	25510
830.941	25415
831.08	25392
831.219	25552
831.357	25548
831.496	25689
831.635	25331
831.774	25331
831.913	25183
832.051	25247
832.19	25259
832.329	25152
832.467	25145
832.606	24943
832.744	24924
832.883	25141
833.022	25099
833.16	25137
833.299	25110
833.437	25072
833.576	25293
833.714	25137
833.852	25103
833.991	25206
834.129	25225
834.267	25156
834.406	25129
834.544	25259
834.682	25148
834.821	25069
834.959	25282
835.097	25103
835.235	25084
835.373	25110
835.511	25107
835.65	24905
835.788	25031
835.926	24715
836.064	24897
836.202	24734
836.34	24943
836.478	24977
836.615	24947
836.753	25042
836.891	25084
837.029	25107
837.167	24939
837.305	24867
837.443	24791
837.58	24806
837.718	24962
837.856	24886
837.993	24897
838.131	24810
838.269	24681
838.406	24563
838.544	24658
838.681	24391
838.819	24414
838.956	24266
839.094	24235
839.231	24395
839.369	24479
839.506	24623
839.643	24509
839.781	24228
839.918	24117
840.055	24323
840.193	24182
840.33	24235
840.467	24323
840.604	24205
840.742	24479
840.879	24076
841.016	24167
841.153	24060
841.29	24182
841.427	24136
841.564	24361
841.701	24133
841.838	24087
841.975	23980
842.112	23969
842.249	24015
842.385	23961
842.522	24140
842.659	23973
842.796	23904
842.933	23809
843.069	23904
843.206	23874
843.343	23969
843.479	23916
843.616	23870
843.752	23752
843.889	23760
844.025	23707
844.162	23570
844.298	23809
844.435	23722
844.571	23619
844.708	23741
844.844	23885
844.98	23923
845.117	23874
845.253	23630
845.389	23592
845.525	23657
845.661	23653
845.798	23558
845.934	23547
846.07	23414
846.206	23501
846.342	23543
846.478	23524
846.614	23368
846.75	23181
846.886	23220
847.022	23246
847.158	23132
847.294	23227
847.429	23227
847.565	23208
847.701	23311
847.837	22946
847.972	22896
848.108	22923
848.244	22835
848.379	22965
848.515	22710
848.65	22767
848.786	22759
848.921	22778
849.057	22744
849.192	22767
849.328	22892
849.463	22637
849.598	22710
849.734	22626
849.869	22493
850.004	22561
850.14	22504
850.275	22550
850.41	22405
850.545	22462
850.68	22489
850.815	22596
850.95	22550
851.085	22649
851.22	22691
851.355	22615
851.49	22599
851.625	22474
851.76	22596
851.895	22470
852.03	22538
852.165	22436
852.299	22538
852.434	22531
852.569	22546
852.703	22367
852.838	22641
852.973	22679
853.107	22717
853.242	22402
853.376	22246
853.511	22230
853.645	22443
853.78	22394
853.914	22436
854.048	22333
854.183	22413
854.317	22348
854.451	22485
854.585	22386
854.72	22230
854.854	22287
854.988	22276
855.122	22474
855.256	22097
855.39	22337
855.524	22455
855.658	22291
855.792	22318
855.926	22371
856.06	22344
856.194	22356
856.327	22325
856.461	22352
856.595	22284
856.729	22268
856.862	22519
856.996	22360
857.13	22398
857.263	22459
857.397	22451
857.53	22367
857.664	22295
857.797	22344
857.931	22325
858.064	22272
858.197	22405
858.331	22280
858.464	22276
858.597	22299
858.731	22306
858.864	22135
858.997	22230
859.13	22291
859.263	22287
859.396	22337
859.529	22223
859.662	22223
859.795	22226
859.928	22405
860.061	22527
860.194	22466
860.327	22405
860.46	22295
860.592	22413
860.725	22432
860.858	22451
860.99	22348
861.123	22173
861.256	22204
861.388	22455
861.521	23067
861.653	22162
861.786	22097
861.918	22131
862.05	22215
862.183	22246
862.315	22242
862.447	22360
862.58	22204
862.712	22017
862.844	22055
862.976	22143
863.108	22173
863.24	22470
863.372	21972
863.504	21953
863.636	22097
863.768	22112
863.9	22010
864.032	22006
864.164	22082
864.296	22059
864.428	22158
864.559	22139
864.691	22150
864.823	22067
864.954	22013
865.086	21949
865.217	21945
865.349	21876
865.48	21854
865.612	21755
865.743	22078
865.875	21922
866.006	21895
866.137	21945
866.269	21968
866.4	21846
866.531	21827
866.662	21857
866.793	21808
866.924	21869
867.055	21865
867.186	21873
867.317	21739
867.448	21823
867.579	21838
867.71	21667
867.841	21747
867.972	21838
868.103	21774
868.233	21895
868.364	21869
868.495	22010
868.625	21979
868.756	22299
868.886	22070
869.017	22093
869.147	22246
869.278	22116
869.408	22200
869.539	22158
869.669	22177
869.799	22139
869.929	22192
870.06	22078
870.19	22322
870.32	22466
870.45	22455
870.58	22569
870.71	22645
870.84	22607
870.97	22622
871.1	22497
871.23	22687
871.36	22812
871.489	22653
871.619	22668
871.749	22668
871.879	22649
872.008	22900
872.138	22687
872.267	22702
872.397	22702
872.526	22516
872.656	22683
872.785	22656
872.915	22915
873.044	22797
873.173	22706
873.303	22820
873.432	22877
873.561	22767
873.69	22637
873.819	22596
873.948	22965
874.077	22790
874.206	22672
874.335	22721
874.464	22961
874.593	22869
874.722	22831
874.851	22885
874.979	22938
875.108	22957
875.237	22892
875.365	22889
875.494	22858
875.623	23083
875.751	22942
875.88	22965
876.008	23136
876.136	23071
876.265	23330
876.393	23459
876.521	23406
876.65	23493
876.778	23334
876.906	23368
877.034	23193
877.162	23174
877.29	23299
877.418	23140
877.546	23242
877.674	23337
877.802	23227
877.93	23330
878.058	23250
878.185	23105
878.313	23166
878.441	23239
878.568	23064
878.696	23277
878.824	23284
878.951	23349
879.079	23406
879.206	23623
879.333	23425
879.461	23170
879.588	23364
879.715	23478
879.842	23558
879.97	23376
880.097	23155
880.224	23052
880.351	23143
880.478	23090
880.605	22946
880.732	23102
880.859	23353
880.986	23170
881.112	23003
881.239	22961
881.366	22809
881.493	22790
881.619	22656
881.746	22824
881.872	22729
881.999	22630
882.125	22542
882.252	22645
882.378	22500
882.505	22660
882.631	22542
882.757	22253
882.883	22523
883.01	22405
883.136	22280
883.262	22219
883.388	22173
883.514	22440
883.64	22375
883.766	22185
883.892	22029
884.018	22177
884.143	22417
884.269	22276
884.395	22067
884.52	21979
884.646	21972
884.772	21949
884.897	21789
885.023	21972
885.148	22051
885.274	22131
885.399	22067
885.524	21911
885.65	21922
885.775	21945
885.9	21922
886.025	21979
886.15	22086
886.275	21994
886.4	21899
886.525	21842
886.65	21991
886.775	21861
886.9	22017
887.025	22139
887.149	21895
887.274	21667
887.399	21736
887.523	21713
887.648	21751
887.773	21618
887.897	21797
888.021	21747
888.146	21648
888.27	21766
888.395	21895
888.519	21785
888.643	21717
888.767	21816
888.891	21622
889.015	21500
889.139	21591
889.263	21378
889.387	21652
889.511	21660
889.635	21728
889.759	21603
889.883	21519
890.006	21526
890.13	21652
890.254	21340
890.377	21401
890.501	21275
890.624	21287
890.748	21336
890.871	21211
890.995	21043
891.118	21062
891.241	21096
891.364	20982
891.488	21199
891.611	21119
891.734	21028
891.857	21112
891.98	21036
892.103	21085
892.226	21047
892.349	21039
892.471	20868
892.594	20971
892.717	21043
892.839	20975
892.962	21089
893.085	21001
893.207	20979
893.33	20883
893.452	20910
893.575	21112
893.697	20887
893.819	21161
893.941	21165
894.064	21211
894.186	21032
894.308	20918
894.43	21055
894.552	21108
894.674	20925
894.796	20941
894.918	20975
895.04	20876
895.161	20998
895.283	20986
895.405	20872
895.526	20941
895.648	20899
895.769	20990
895.891	20941
896.012	21017
896.134	20963
896.255	20994
896.376	20994
896.498	20998
896.619	20925
896.74	20960
896.861	21093
896.982	21188
897.103	21279
897.224	21207
897.345	21150
897.466	21192
897.587	21138
897.708	21310
897.828	21214
897.949	21005
898.07	20933
898.19	21062
898.311	21112
898.431	21043
898.552	21176
898.672	21211
898.792	21298
898.913	21165
899.033	21066
899.153	21062
899.273	20807
899.393	20963
899.513	20914
899.633	20868
899.753	20998
899.873	20960
899.993	20925
900.113	20769
900.232	20902
900.352	20883
900.472	20674
900.591	20606
900.711	20674
900.83	20590
900.95	20777
901.069	20701
901.189	20492
901.308	20267
901.427	20328
901.546	20259
901.665	20320
901.784	20233
901.904	20092
902.023	20035
902.141	19712
902.26	19708
902.379	19887
902.498	19784
902.617	19674
902.735	19700
902.854	19689
902.973	19624
903.091	19343
903.21	19350
903.328	19381
903.446	19301
903.565	19160
903.683	19148
903.801	19103
903.919	19069
904.038	19122
904.156	19000
904.274	19053
904.392	18954
904.51	18825
904.627	18935
904.745	18935
904.863	18993
904.981	18802
905.098	18532
905.216	18574
905.334	18703
905.451	18536
905.569	18578
905.686	18570
905.803	18517
905.921	18426
906.038	18506
906.155	18399
906.272	18213
906.389	18346
906.506	18091
906.623	18186
906.74	18144
906.857	18098
906.974	18022
907.091	18243
907.208	18220
907.324	18076
907.441	18060
907.557	17855
907.674	17805
907.79	17764
907.907	17832
908.023	17885
908.139	17866
908.256	17745
908.372	17722
908.488	17745
908.604	17638
908.72	17505
908.836	17570
908.952	17608
909.068	17585
909.184	17615
909.3	17634
909.415	17566
909.531	17524
909.647	17269
909.762	17296
909.878	17265
909.993	17227
910.108	17159
910.224	17128
910.339	17223
910.454	17090
910.57	17117
910.685	17140
910.8	17250
910.915	17193
911.03	17022
911.145	16911
911.259	16835
911.374	16908
911.489	16881
911.604	16733
911.718	16592
911.833	16656
911.947	16512
912.062	16386
912.176	16508
912.291	16584
912.405	16615
912.519	16835
912.633	16843
912.748	16588
912.862	16497
912.976	16447
913.09	16329
913.204	16287
913.318	16527
913.431	16497
913.545	16417
913.659	16436
913.772	16379
913.886	16173
914	16074
914.113	16261
914.226	16226
914.34	16242
914.453	16120
914.566	16211
914.68	16082
914.793	16059
914.906	15953
915.019	15766
915.132	15724
915.245	15800
915.358	15644
915.47	15713
915.583	15793
915.696	15800
915.809	15884
915.921	15831
916.034	15736
916.146	15618
916.259	15622
916.371	15728
916.483	15705
916.595	15549
916.708	15538
916.82	15641
916.932	15603
917.044	15610
917.156	15507
917.268	15370
917.38	15454
917.491	15447
917.603	15428
917.715	15462
917.826	15492
917.938	15260
918.049	15127
918.161	15397
918.272	15496
918.384	15458
918.495	15249
918.606	15203
918.717	15214
918.828	15203
918.939	15135
919.05	15077
919.161	15146
919.272	14845
919.383	14998
919.494	15161
919.604	15359
919.715	15074
919.826	15070
919.936	15108
920.047	15077
920.157	15097
920.267	15283
920.378	15058
920.488	15165
920.598	15264
920.708	15344
920.818	15146
920.928	15176
921.038	15317
921.148	15283
921.258	14990
921.368	15017
921.477	14834
921.587	14739
921.697	14625
921.806	14743
921.916	14689
922.025	14442
922.134	14587
922.244	14381
922.353	14454
922.462	14374
922.571	14244
922.68	14149
922.789	14031
922.898	14187
923.007	14107
923.116	14111
923.224	14024
923.333	14123
923.442	13974
923.55	13902
923.659	13967
923.767	13959
923.876	13845
923.984	13928
924.092	13750
924.201	13807
924.309	13879
924.417	13879
924.525	13784
924.633	13700
924.741	14663
924.849	13597
924.956	13658
925.064	13559
925.172	13422
925.279	13457
925.387	13464
925.494	13434
925.602	13544
925.709	13487
925.816	13396
925.924	13434
926.031	13491
926.138	13335
926.245	13460
926.352	13327
926.459	13453
926.566	13472
926.673	13350
926.779	13149
926.886	13175
926.993	13019
927.099	13179
927.206	12993
927.312	12878
927.419	13069
927.525	13000
927.631	13084
927.737	12871
927.843	12916
927.95	12791
928.056	12848
928.162	12894
928.267	12920
928.373	13449
928.479	12867
928.585	12646
928.69	12871
928.796	12741
928.901	12753
929.007	12544
929.112	12738
929.218	12650
929.323	12601
929.428	12601
929.533	12684
929.638	12407
929.743	12486
929.848	12498
929.953	12509
930.058	12433
930.163	12213
930.267	12315
930.372	12270
930.477	12155
930.581	12464
930.685	12182
930.79	12003
930.894	12190
930.998	12030
931.103	12155
931.207	11912
931.311	11805
931.415	11623
931.519	11516
931.623	11535
