Data from test_V78500241_1615.txt Node
Date: Fri Mar 25 15:52:59 CST 2022
User: usil
Spectrometer: V785-0024
Trigger mode: 0
Integration Time (sec): 4.000000E-1
Scans to average: 1
Nonlinearity correction enabled: false
Boxcar width: 0
Storing dark spectrum: false
XAxis mode: Wavelengths
Number of Pixels in Spectrum: 1024
>>>>>Begin Spectral Data<<<<<
801.071	28478
801.214	28333
801.356	28078
801.499	28013
801.641	27804
801.783	27873
801.926	27930
802.068	27941
802.211	27808
802.353	27778
802.496	27720
802.638	27644
802.78	27595
802.923	27504
803.065	27473
803.208	27507
803.35	27648
803.492	27720
803.635	27717
803.777	27682
803.919	27774
804.061	28215
804.204	27907
804.346	27766
804.488	27660
804.63	27827
804.773	27770
804.915	27838
805.057	27979
805.199	27701
805.341	27941
805.483	27914
805.626	27994
805.768	27732
805.91	28013
806.052	28055
806.194	27888
806.336	28090
806.478	28017
806.62	27911
806.762	28074
806.904	28169
807.046	28489
807.188	28417
807.33	28436
807.472	28500
807.614	28314
807.756	28462
807.898	28219
808.04	28169
808.182	28280
808.324	28261
808.465	28375
808.607	28489
808.749	28660
808.891	28733
809.033	28710
809.174	28729
809.316	28683
809.458	28694
809.6	28637
809.741	28672
809.883	28733
810.025	28869
810.166	28957
810.308	28858
810.45	28915
810.591	28873
810.733	28752
810.875	28637
811.016	28474
811.158	28557
811.299	28744
811.441	28896
811.582	28793
811.724	28687
811.865	28447
812.007	28615
812.148	28717
812.29	28637
812.431	28710
812.573	28892
812.714	29155
812.855	29098
812.997	29250
813.138	29459
813.279	29181
813.421	29197
813.562	29083
813.703	29200
813.845	28866
813.986	28672
814.127	28421
814.268	28398
814.41	28341
814.551	28303
814.692	28371
814.833	28230
814.974	28188
815.115	28398
815.256	28154
815.397	28363
815.539	28131
815.68	28287
815.821	27964
815.962	28219
816.103	28013
816.244	27998
816.385	27991
816.526	27914
816.666	27743
816.807	27587
816.948	27629
817.089	27690
817.23	27762
817.371	27660
817.512	27610
817.653	27507
817.793	27587
817.934	27564
818.075	27679
818.216	27663
818.356	27587
818.497	27500
818.638	27313
818.778	27374
818.919	27443
819.06	27454
819.2	27401
819.341	27572
819.481	27583
819.622	27804
819.762	27922
819.903	27994
820.043	27770
820.184	27804
820.324	27903
820.465	27770
820.605	27747
820.746	27781
820.886	27660
821.026	27781
821.167	27701
821.307	27793
821.447	27496
821.588	27759
821.728	27485
821.868	27275
822.008	27020
822.149	27131
822.289	27070
822.429	26899
822.569	26823
822.709	26762
822.849	26701
822.99	26663
823.13	26556
823.27	26644
823.41	26488
823.55	26320
823.69	26457
823.83	26393
823.97	26396
824.11	26275
824.25	26134
824.389	26267
824.529	26290
824.669	26396
824.809	26404
824.949	26358
825.089	26275
825.228	26362
825.368	26134
825.508	26058
825.648	26062
825.787	26145
825.927	26309
826.067	26206
826.206	26043
826.346	26240
826.485	26142
826.625	26187
826.765	26187
826.904	26062
827.044	25951
827.183	25845
827.323	25921
827.462	25856
827.601	25890
827.741	25776
827.88	25959
828.02	25818
828.159	25902
828.298	25860
828.437	25856
828.577	25761
828.716	25955
828.855	25727
828.994	25556
829.134	25529
829.273	25491
829.412	25502
829.551	25540
829.69	25609
829.829	25499
829.968	25635
830.107	25510
830.246	25594
830.385	25548
830.524	25403
830.663	25411
830.802	25110
830.941	25065
831.08	25084
831.219	25194
831.357	25278
831.496	25381
831.635	25278
831.774	25076
831.913	25004
832.051	24913
832.19	24954
832.329	24760
832.467	24886
832.606	24749
832.744	24844
832.883	24817
833.022	24852
833.16	24829
833.299	24954
833.437	24616
833.576	24935
833.714	24863
833.852	25023
833.991	24962
834.129	24935
834.267	24821
834.406	24970
834.544	24909
834.682	24844
834.821	24787
834.959	25046
835.097	24867
835.235	24924
835.373	24856
835.511	24905
835.65	24779
835.788	24749
835.926	24513
836.064	24650
836.202	24395
836.34	24635
836.478	24821
836.615	24707
836.753	24673
836.891	24760
837.029	24669
837.167	24768
837.305	24658
837.443	24509
837.58	24566
837.718	24563
837.856	24593
837.993	24388
838.131	24437
838.269	24414
838.406	24445
838.544	24270
838.681	24258
838.819	24144
838.956	24018
839.094	24057
839.231	24030
839.369	24220
839.506	24391
839.643	24167
839.781	23984
839.918	24018
840.055	23935
840.193	23904
840.33	23901
840.467	23904
840.604	23901
840.742	24155
840.879	23786
841.016	23908
841.153	23870
841.29	23939
841.427	23939
841.564	23950
841.701	23954
841.838	23840
841.975	23901
842.112	23840
842.249	23707
842.385	23570
842.522	23901
842.659	23824
842.796	23695
842.933	23634
843.069	23615
843.206	23668
843.343	23630
843.479	23710
843.616	23741
843.752	23402
843.889	23463
844.025	23505
844.162	23429
844.298	23497
844.435	23520
844.571	23482
844.708	23387
844.844	23562
844.98	23600
845.117	23539
845.253	23410
845.389	23402
845.525	23402
845.661	23345
845.798	23121
845.934	23235
846.07	23113
846.206	23166
846.342	23235
846.478	23140
846.614	23102
846.75	22835
846.886	22847
847.022	23003
847.158	22858
847.294	22919
847.429	23044
847.565	22721
847.701	23075
847.837	22557
847.972	22691
848.108	22694
848.244	22618
848.379	22489
848.515	22459
848.65	22455
848.786	22535
848.921	22493
849.057	22512
849.192	22546
849.328	22535
849.463	22504
849.598	22459
849.734	22386
849.869	22318
850.004	22265
850.14	22215
850.275	22192
850.41	22249
850.545	22200
850.68	22280
850.815	22249
850.95	22299
851.085	22386
851.22	22436
851.355	22329
851.49	22272
851.625	22128
851.76	22382
851.895	22105
852.03	22211
852.165	22284
852.299	22204
852.434	22310
852.569	22215
852.703	22238
852.838	22204
852.973	22341
853.107	22352
853.242	22204
853.376	22082
853.511	21911
853.645	22006
853.78	22261
853.914	22101
854.048	22036
854.183	22120
854.317	21956
854.451	22371
854.585	22112
854.72	22181
854.854	22021
854.988	21994
855.122	22025
855.256	21998
855.39	22196
855.524	22032
855.658	22044
855.792	22093
855.926	22230
856.06	22162
856.194	22147
856.327	22070
856.461	21972
856.595	22093
856.729	22021
856.862	22162
856.996	22036
857.13	22249
857.263	22112
857.397	22116
857.53	22101
857.664	22021
857.797	22112
857.931	22242
858.064	22017
858.197	22090
858.331	22105
858.464	22101
858.597	22055
858.731	21983
858.864	21949
858.997	22013
859.13	22150
859.263	22055
859.396	22090
859.529	21964
859.662	22044
859.795	21998
859.928	22124
860.061	22177
860.194	22379
860.327	22006
860.46	22101
860.592	22166
860.725	22253
860.858	22242
860.99	22166
861.123	21895
861.256	22105
861.388	22131
861.521	22710
861.653	21816
861.786	21838
861.918	21755
862.05	21884
862.183	21972
862.315	22025
862.447	22101
862.58	22040
862.712	21819
862.844	21759
862.976	21911
863.108	21770
863.24	22162
863.372	21751
863.504	21747
863.636	21701
863.768	21781
863.9	21728
864.032	21751
864.164	21808
864.296	21789
864.428	21846
864.559	21781
864.691	21922
864.823	21804
864.954	21667
865.086	21846
865.217	21690
865.349	21644
865.48	21732
865.612	21747
865.743	21781
865.875	21690
866.006	21660
866.137	21644
866.269	21572
866.4	21781
866.531	21595
866.662	21576
866.793	21587
866.924	21542
867.055	21507
867.186	21564
867.317	21606
867.448	21325
867.579	21587
867.71	21492
867.841	21466
867.972	21679
868.103	21561
868.233	21641
868.364	21580
868.495	21633
868.625	21789
868.756	21861
868.886	21705
869.017	21930
869.147	21823
869.278	21918
869.408	21907
869.539	21812
869.669	21907
869.799	21823
869.929	21945
870.06	22036
870.19	22124
870.32	22204
870.45	22090
870.58	22211
870.71	22295
870.84	22409
870.97	22284
871.1	22299
871.23	22398
871.36	22398
871.489	22352
871.619	22402
871.749	22325
871.879	22375
872.008	22580
872.138	22394
872.267	22424
872.397	22337
872.526	22325
872.656	22238
872.785	22257
872.915	22519
873.044	22557
873.173	22375
873.303	22462
873.432	22527
873.561	22497
873.69	22519
873.819	22424
873.948	22569
874.077	22573
874.206	22527
874.335	22542
874.464	22538
874.593	22847
874.722	22615
874.851	22702
874.979	22706
875.108	22626
875.237	22694
875.365	22599
875.494	22618
875.623	22710
875.751	22630
875.88	22710
876.008	22767
876.136	22847
876.265	23067
876.393	23178
876.521	23159
876.65	23121
876.778	23200
876.906	23003
877.034	23064
877.162	22885
877.29	22850
877.418	23041
877.546	23033
877.674	23037
877.802	23041
877.93	23121
878.058	22771
878.185	22854
878.313	22930
878.441	22957
878.568	22889
878.696	22938
878.824	23128
878.951	23174
879.079	23109
879.206	23322
879.333	23273
879.461	22987
879.588	23060
879.715	23075
879.842	23387
879.97	22984
880.097	22752
880.224	22812
880.351	22896
880.478	22946
880.605	22687
880.732	22729
880.859	22881
880.986	22755
881.112	22816
881.239	22687
881.366	22531
881.493	22443
881.619	22386
881.746	22546
881.872	22390
881.999	22337
882.125	22424
882.252	22493
882.378	22386
882.505	22485
882.631	22223
882.757	22086
882.883	22211
883.01	22070
883.136	22135
883.262	21895
883.388	21846
883.514	21930
883.64	22093
883.766	22055
883.892	21915
884.018	21819
884.143	22029
884.269	22048
884.395	21903
884.52	21682
884.646	21770
884.772	21743
884.897	21660
885.023	21675
885.148	21625
885.274	21831
885.399	21854
885.524	21724
885.65	21774
885.775	21762
885.9	21690
886.025	21800
886.15	21713
886.275	21717
886.4	21641
886.525	21587
886.65	21663
886.775	21701
886.9	21785
887.025	21895
887.149	21652
887.274	21504
887.399	21462
887.523	21435
887.648	21424
887.773	21405
887.897	21485
888.021	21492
888.146	21447
888.27	21576
888.395	21606
888.519	21534
888.643	21496
888.767	21549
888.891	21481
889.015	21207
889.139	21260
889.263	21336
889.387	21359
889.511	21530
889.635	21405
889.759	21359
889.883	21211
890.006	21283
890.13	21367
890.254	21146
890.377	21188
890.501	21123
890.624	21001
890.748	21070
890.871	21062
890.995	20762
891.118	20826
891.241	20864
891.364	20842
891.488	20880
891.611	20826
891.734	20921
891.857	20906
891.98	20758
892.103	20899
892.226	20902
892.349	20826
892.471	20743
892.594	20781
892.717	20769
892.839	20796
892.962	20708
893.085	20792
893.207	20762
893.33	20648
893.452	20625
893.575	20781
893.697	20674
893.819	20868
893.941	20902
894.064	21013
894.186	20640
894.308	20712
894.43	20819
894.552	20941
894.674	20731
894.796	20731
894.918	20762
895.04	20739
895.161	20758
895.283	20826
895.405	20689
895.526	20739
895.648	20842
895.769	20781
895.891	20750
896.012	20899
896.134	20849
896.255	20750
896.376	20678
896.498	20678
896.619	20746
896.74	20731
896.861	20731
896.982	20998
897.103	21264
897.224	20990
897.345	20967
897.466	20921
897.587	20925
897.708	21047
897.828	20902
897.949	20868
898.07	20792
898.19	20963
898.311	21005
898.431	20868
898.552	20914
898.672	21013
898.792	21005
898.913	20883
899.033	20811
899.153	20674
899.273	20678
899.393	20686
899.513	20697
899.633	20667
899.753	20727
899.873	20625
899.993	20712
900.113	20617
900.232	20682
900.352	20640
900.472	20594
900.591	20389
900.711	20438
900.83	20362
900.95	20495
901.069	20598
901.189	20377
901.308	20122
901.427	20081
901.546	20092
901.665	20134
901.784	20024
901.904	19871
902.023	19868
902.141	19601
902.26	19563
902.379	19674
902.498	19575
902.617	19495
902.735	19521
902.854	19419
902.973	19400
903.091	19206
903.21	19232
903.328	19209
903.446	19126
903.565	19088
903.683	19019
903.801	18829
903.919	18947
904.038	18878
904.156	18840
904.274	18871
904.392	18795
904.51	18779
904.627	18810
904.745	18730
904.863	18833
904.981	18563
905.098	18574
905.216	18532
905.334	18528
905.451	18330
905.569	18391
905.686	18544
905.803	18464
905.921	18235
906.038	18247
906.155	18194
906.272	18182
906.389	18087
906.506	18026
906.623	17950
906.74	17916
906.857	17718
906.974	17847
907.091	17980
907.208	18121
907.324	18064
907.441	17767
907.557	17638
907.674	17760
907.79	17646
907.907	17642
908.023	17847
908.139	17627
908.256	17668
908.372	17573
908.488	17600
908.604	17368
908.72	17292
908.836	17315
908.952	17440
909.068	17372
909.184	17414
909.3	17341
909.415	17368
909.531	17356
909.647	17208
909.762	17132
909.878	17121
909.993	17064
910.108	16991
910.224	17022
910.339	17162
910.454	17022
910.57	16812
910.685	16873
910.8	17079
910.915	17014
911.03	16896
911.145	16744
911.259	16721
911.374	16580
911.489	16618
911.604	16622
911.718	16337
911.833	16447
911.947	16382
912.062	16162
912.176	16535
912.291	16443
912.405	16535
912.519	16592
912.633	16618
912.748	16535
912.862	16371
912.976	16280
913.09	16093
913.204	16253
913.318	16169
913.431	16249
913.545	16230
913.659	16299
913.772	16112
913.886	16147
914	15918
914.113	16074
914.226	16116
914.34	16074
914.453	15846
914.566	16036
914.68	15895
914.793	15861
914.906	15667
915.019	15553
915.132	15534
915.245	15591
915.358	15633
915.47	15564
915.583	15637
915.696	15717
915.809	15724
915.921	15724
916.034	15572
916.146	15477
916.259	15549
916.371	15561
916.483	15507
916.595	15401
916.708	15477
916.82	15351
916.932	15340
917.044	15329
917.156	15344
917.268	15279
917.38	15291
917.491	15161
917.603	15272
917.715	15374
917.826	15306
917.938	15176
918.049	15051
918.161	15237
918.272	15336
918.384	15355
918.495	15169
918.606	15062
918.717	14960
918.828	14963
918.939	15005
919.05	15013
919.161	15024
919.272	14762
919.383	14834
919.494	15100
919.604	15077
919.715	14960
919.826	14990
919.936	14857
920.047	15058
920.157	14925
920.267	15077
920.378	14880
920.488	14845
920.598	15077
920.708	15302
920.818	15043
920.928	15081
921.038	15169
921.148	15161
921.258	14872
921.368	14807
921.477	14724
921.587	14659
921.697	14560
921.806	14682
921.916	14514
922.025	14305
922.134	14313
922.244	14370
922.353	14374
922.462	14168
922.571	14134
922.68	13989
922.789	13906
922.898	14008
923.007	13906
923.116	14035
923.224	13864
923.333	13871
923.442	13795
923.55	13807
923.659	13776
923.767	13807
923.876	13639
923.984	13818
924.092	13708
924.201	13746
924.309	13719
924.417	13643
924.525	13563
924.633	13544
924.741	14575
924.849	13384
924.956	13563
925.064	13354
925.172	13183
925.279	13419
925.387	13392
925.494	13228
925.602	13510
925.709	13422
925.816	13244
925.924	13369
926.031	13293
926.138	13221
926.245	13259
926.352	13217
926.459	13289
926.566	13293
926.673	13213
926.779	13072
926.886	13038
926.993	12916
927.099	12829
927.206	12749
927.312	12798
927.419	12947
927.525	12814
927.631	12817
927.737	12772
927.843	12798
927.95	12662
928.056	12715
928.162	12795
928.267	12662
928.373	13430
928.479	12757
928.585	12532
928.69	12631
928.796	12738
928.901	12589
929.007	12502
929.112	12578
929.218	12544
929.323	12399
929.428	12479
929.533	12585
929.638	12300
929.743	12422
929.848	12380
929.953	12296
930.058	12323
930.163	12152
930.267	12163
930.372	12258
930.477	12011
930.581	12319
930.685	12205
930.79	11920
930.894	12045
930.998	11996
931.103	12095
931.207	11756
931.311	11638
931.415	11596
931.519	11414
931.623	11299
