Data from test_V78500241_3109.txt Node
Date: Fri Mar 25 16:03:20 CST 2022
User: usil
Spectrometer: V785-0024
Trigger mode: 0
Integration Time (sec): 4.000000E-1
Scans to average: 1
Nonlinearity correction enabled: false
Boxcar width: 0
Storing dark spectrum: false
XAxis mode: Wavelengths
Number of Pixels in Spectrum: 1024
>>>>>Begin Spectral Data<<<<<
801.071	28333
801.214	28310
801.356	28131
801.499	28044
801.641	27987
801.783	27991
801.926	27865
802.068	27804
802.211	27937
802.353	27762
802.496	27572
802.638	27572
802.78	27526
802.923	27401
803.065	27481
803.208	27557
803.35	27504
803.492	27652
803.635	27766
803.777	27793
803.919	27797
804.061	27949
804.204	27816
804.346	27652
804.488	27720
804.63	27850
804.773	27633
804.915	27994
805.057	27998
805.199	27766
805.341	27842
805.483	27857
805.626	27968
805.768	27994
805.91	27918
806.052	27998
806.194	27880
806.336	28162
806.478	27956
806.62	27922
806.762	28059
806.904	28272
807.046	28440
807.188	28291
807.33	28337
807.472	28466
807.614	28318
807.756	28440
807.898	28162
808.04	28192
808.182	28093
808.324	28223
808.465	28287
808.607	28375
808.749	28675
808.891	28691
809.033	28869
809.174	28729
809.316	28550
809.458	28561
809.6	28573
809.741	28561
809.883	28862
810.025	28892
810.166	28957
810.308	28915
810.45	28896
810.591	28824
810.733	28584
810.875	28611
811.016	28637
811.158	28409
811.299	28702
811.441	28869
811.582	28660
811.724	28634
811.865	28656
812.007	28618
812.148	28656
812.29	28580
812.431	28873
812.573	28965
812.714	29117
812.855	29052
812.997	29273
813.138	29410
813.279	29258
813.421	29178
813.562	29071
813.703	28896
813.845	28752
813.986	28538
814.127	28485
814.268	28356
814.41	28246
814.551	28379
814.692	28409
814.833	28401
814.974	28325
815.115	28257
815.256	28154
815.397	28234
815.539	28025
815.68	28090
815.821	28078
815.962	28246
816.103	28147
816.244	28070
816.385	27888
816.526	27975
816.666	27713
816.807	27690
816.948	27751
817.089	27751
817.23	27720
817.371	27713
817.512	27526
817.653	27698
817.793	27557
817.934	27576
818.075	27469
818.216	27747
818.356	27610
818.497	27477
818.638	27469
818.778	27260
818.919	27313
819.06	27454
819.2	27534
819.341	27618
819.481	27580
819.622	27857
819.762	27941
819.903	27964
820.043	27755
820.184	27743
820.324	27770
820.465	27937
820.605	27701
820.746	27606
820.886	27675
821.026	27861
821.167	27690
821.307	27873
821.447	27766
821.588	27557
821.728	27283
821.868	27230
822.008	27089
822.149	27089
822.289	27180
822.429	26735
822.569	26864
822.709	26750
822.849	26522
822.99	26648
823.13	26621
823.27	26617
823.41	26495
823.55	26320
823.69	26366
823.83	26358
823.97	26343
824.11	26183
824.25	26256
824.389	26252
824.529	26351
824.669	26248
824.809	26237
824.949	26427
825.089	26370
825.228	26263
825.368	26142
825.508	26191
825.648	26282
825.787	26107
825.927	26377
826.067	26199
826.206	26180
826.346	26202
826.485	26221
826.625	26142
826.765	26282
826.904	26191
827.044	26046
827.183	25955
827.323	25860
827.462	25898
827.601	25856
827.741	25852
827.88	25811
828.02	25765
828.159	25750
828.298	25742
828.437	25925
828.577	25765
828.716	25928
828.855	25734
828.994	25609
829.134	25521
829.273	25651
829.412	25586
829.551	25476
829.69	25700
829.829	25616
829.968	25529
830.107	25620
830.246	25445
830.385	25392
830.524	25476
830.663	25434
830.802	25209
830.941	25122
831.08	25244
831.219	25206
831.357	25236
831.496	25388
831.635	25183
831.774	24981
831.913	25034
832.051	24935
832.19	24970
832.329	24989
832.467	24806
832.606	24871
832.744	24700
832.883	24779
833.022	24814
833.16	24738
833.299	24890
833.437	24837
833.576	24954
833.714	24844
833.852	24798
833.991	24875
834.129	25053
834.267	24928
834.406	24829
834.544	24859
834.682	25031
834.821	24966
834.959	25084
835.097	24848
835.235	24852
835.373	24863
835.511	24806
835.65	24661
835.788	24749
835.926	24563
836.064	24384
836.202	24467
836.34	24783
836.478	24772
836.615	24707
836.753	24738
836.891	24749
837.029	24570
837.167	24604
837.305	24684
837.443	24555
837.58	24391
837.718	24612
837.856	24661
837.993	24475
838.131	24471
838.269	24388
838.406	24479
838.544	24338
838.681	24247
838.819	24285
838.956	24102
839.094	24110
839.231	24045
839.369	24125
839.506	24311
839.643	24254
839.781	23977
839.918	24060
840.055	23996
840.193	23874
840.33	23878
840.467	23935
840.604	23920
840.742	24327
840.879	23786
841.016	23813
841.153	23821
841.29	23988
841.427	23996
841.564	23961
841.701	23908
841.838	23866
841.975	23863
842.112	23699
842.249	23737
842.385	23642
842.522	23950
842.659	23843
842.796	23596
842.933	23699
843.069	23627
843.206	23608
843.343	23733
843.479	23680
843.616	23573
843.752	23497
843.889	23509
844.025	23695
844.162	23376
844.298	23493
844.435	23421
844.571	23452
844.708	23482
844.844	23566
844.98	23585
845.117	23539
845.253	23296
845.389	23254
845.525	23387
845.661	23322
845.798	23193
845.934	23140
846.07	23261
846.206	23246
846.342	23368
846.478	23181
846.614	23094
846.75	22873
846.886	22854
847.022	22949
847.158	22934
847.294	22942
847.429	22995
847.565	22873
847.701	23197
847.837	22664
847.972	22451
848.108	22656
848.244	22698
848.379	22542
848.515	22424
848.65	22405
848.786	22596
848.921	22443
849.057	22596
849.192	22565
849.328	22550
849.463	22481
849.598	22390
849.734	22371
849.869	22295
850.004	22276
850.14	22242
850.275	22287
850.41	22131
850.545	22249
850.68	22272
850.815	22272
850.95	22333
851.085	22481
851.22	22333
851.355	22367
851.49	22337
851.625	22192
851.76	22394
851.895	22162
852.03	22204
852.165	22276
852.299	22226
852.434	22314
852.569	22303
852.703	22169
852.838	22200
852.973	22291
853.107	22371
853.242	22272
853.376	22051
853.511	21991
853.645	22139
853.78	22341
853.914	22105
854.048	22063
854.183	22090
854.317	22101
854.451	22310
854.585	22112
854.72	22120
854.854	22158
854.988	22158
855.122	22032
855.256	21945
855.39	22200
855.524	22036
855.658	22131
855.792	22249
855.926	22097
856.06	22139
856.194	22109
856.327	22147
856.461	21911
856.595	22006
856.729	22029
856.862	22135
856.996	22177
857.13	22223
857.263	22211
857.397	22223
857.53	22109
857.664	22207
857.797	22109
857.931	22181
858.064	22154
858.197	22131
858.331	22059
858.464	22090
858.597	22013
858.731	22036
858.864	22044
858.997	22048
859.13	22139
859.263	22181
859.396	22070
859.529	22109
859.662	22070
859.795	22090
859.928	22093
860.061	22226
860.194	22318
860.327	22215
860.46	22101
860.592	22230
860.725	22318
860.858	22246
860.99	22249
861.123	21987
861.256	22029
861.388	22040
861.521	22702
861.653	21945
861.786	21972
861.918	21903
862.05	21953
862.183	21899
862.315	21941
862.447	22124
862.58	21983
862.712	21865
862.844	21781
862.976	21880
863.108	21876
863.24	22185
863.372	21915
863.504	21747
863.636	21637
863.768	21865
863.9	21895
864.032	21724
864.164	21728
864.296	21778
864.428	21842
864.559	21698
864.691	21842
864.823	21831
864.954	21854
865.086	21861
865.217	21812
865.349	21705
865.48	21720
865.612	21720
865.743	21880
865.875	21781
866.006	21701
866.137	21739
866.269	21675
866.4	21641
866.531	21633
866.662	21511
866.793	21549
866.924	21724
867.055	21618
867.186	21701
867.317	21523
867.448	21549
867.579	21644
867.71	21504
867.841	21488
867.972	21648
868.103	21523
868.233	21652
868.364	21709
868.495	21599
868.625	21873
868.756	21892
868.886	21823
869.017	21747
869.147	22032
869.278	21930
869.408	21884
869.539	21808
869.669	21895
869.799	21945
869.929	21934
870.06	21918
870.19	22036
870.32	22169
870.45	22204
870.58	22268
870.71	22481
870.84	22310
870.97	22272
871.1	22268
871.23	22455
871.36	22405
871.489	22348
871.619	22424
871.749	22455
871.879	22546
872.008	22653
872.138	22443
872.267	22371
872.397	22329
872.526	22265
872.656	22284
872.785	22348
872.915	22379
873.044	22527
873.173	22432
873.303	22466
873.432	22577
873.561	22592
873.69	22382
873.819	22577
873.948	22569
874.077	22367
874.206	22402
874.335	22478
874.464	22573
874.593	22538
874.722	22702
874.851	22733
874.979	22664
875.108	22767
875.237	22588
875.365	22523
875.494	22588
875.623	22839
875.751	22653
875.88	22702
876.008	22774
876.136	22972
876.265	23147
876.393	23178
876.521	23037
876.65	23235
876.778	23143
876.906	22995
877.034	23025
877.162	23037
877.29	22946
877.418	23170
877.546	23086
877.674	23117
877.802	23086
877.93	22968
878.058	22889
878.185	22965
878.313	22812
878.441	23010
878.568	22869
878.696	22984
878.824	23044
878.951	23189
879.079	23227
879.206	23368
879.333	23151
879.461	23121
879.588	23136
879.715	23117
879.842	23334
879.97	23044
880.097	22805
880.224	22767
880.351	22953
880.478	22877
880.605	22885
880.732	22782
880.859	23064
880.986	23018
881.112	22957
881.239	22774
881.366	22561
881.493	22580
881.619	22497
881.746	22478
881.872	22394
881.999	22470
882.125	22440
882.252	22455
882.378	22318
882.505	22527
882.631	22246
882.757	22105
882.883	22234
883.01	22268
883.136	22040
883.262	22059
883.388	21926
883.514	22158
883.64	22112
883.766	21991
883.892	21827
884.018	21854
884.143	22006
884.269	22097
884.395	21808
884.52	21743
884.646	21682
884.772	21717
884.897	21739
885.023	21781
885.148	21975
885.274	21873
885.399	21857
885.524	21713
885.65	21884
885.775	21736
885.9	21728
886.025	21827
886.15	21926
886.275	21637
886.4	21614
886.525	21576
886.65	21652
886.775	21599
886.9	21728
887.025	21983
887.149	21759
887.274	21500
887.399	21557
887.523	21603
887.648	21473
887.773	21462
887.897	21519
888.021	21549
888.146	21443
888.27	21679
888.395	21606
888.519	21507
888.643	21564
888.767	21507
888.891	21447
889.015	21378
889.139	21370
889.263	21287
889.387	21397
889.511	21443
889.635	21412
889.759	21367
889.883	21283
890.006	21344
890.13	21237
890.254	21245
890.377	21363
890.501	21070
890.624	20944
890.748	21036
890.871	21013
890.995	20849
891.118	20731
891.241	20944
891.364	20967
891.488	20979
891.611	20883
891.734	20769
891.857	20868
891.98	20899
892.103	20906
892.226	20906
892.349	20887
892.471	20518
892.594	20815
892.717	20811
892.839	20708
892.962	20735
893.085	20769
893.207	20720
893.33	20648
893.452	20552
893.575	20849
893.697	20693
893.819	20876
893.941	20868
894.064	20834
894.186	20758
894.308	20644
894.43	20804
894.552	20937
894.674	20811
894.796	20606
894.918	20701
895.04	20705
895.161	20792
895.283	20682
895.405	20655
895.526	20750
895.648	20701
895.769	20746
895.891	20777
896.012	20868
896.134	20735
896.255	20804
896.376	20750
896.498	20861
896.619	20781
896.74	20792
896.861	20792
896.982	21066
897.103	21195
897.224	21085
897.345	20941
897.466	20849
897.587	20948
897.708	21024
897.828	20948
897.949	20895
898.07	20861
898.19	20819
898.311	20948
898.431	20796
898.552	20880
898.672	21001
898.792	20990
898.913	20895
899.033	20819
899.153	20800
899.273	20720
899.393	20667
899.513	20727
899.633	20678
899.753	20686
899.873	20640
899.993	20777
900.113	20648
900.232	20724
900.352	20670
900.472	20530
900.591	20434
900.711	20511
900.83	20465
900.95	20609
901.069	20476
901.189	20374
901.308	20008
901.427	20005
901.546	20008
901.665	20065
901.784	20024
901.904	19936
902.023	19780
902.141	19552
902.26	19495
902.379	19647
902.498	19655
902.617	19426
902.735	19548
902.854	19529
902.973	19487
903.091	19263
903.21	19278
903.328	19240
903.446	19076
903.565	19046
903.683	18943
903.801	18871
903.919	18962
904.038	18905
904.156	18753
904.274	18688
904.392	18726
904.51	18802
904.627	18753
904.745	18856
904.863	18875
904.981	18559
905.098	18350
905.216	18422
905.334	18528
905.451	18540
905.569	18357
905.686	18490
905.803	18418
905.921	18319
906.038	18437
906.155	18277
906.272	18155
906.389	18136
906.506	17965
906.623	17958
906.74	18106
906.857	17840
906.974	17885
907.091	18015
907.208	18060
907.324	17939
907.441	17984
907.557	17665
907.674	17634
907.79	17703
907.907	17604
908.023	17680
908.139	17798
908.256	17611
908.372	17478
908.488	17600
908.604	17364
908.72	17315
908.836	17318
908.952	17353
909.068	17467
909.184	17551
909.3	17322
909.415	17490
909.531	17421
909.647	17090
909.762	17060
909.878	17166
909.993	17102
910.108	17083
910.224	16957
910.339	16968
910.454	16919
910.57	16915
910.685	16831
910.8	17102
910.915	17045
911.03	16862
911.145	16805
911.259	16630
911.374	16653
911.489	16653
911.604	16409
911.718	16459
911.833	16379
911.947	16299
912.062	16299
912.176	16325
912.291	16443
912.405	16413
912.519	16554
912.633	16611
912.748	16485
912.862	16386
912.976	16207
913.09	16063
913.204	16177
913.318	16303
913.431	16325
913.545	16280
913.659	16329
913.772	16253
913.886	16093
914	16067
914.113	16101
914.226	16097
914.34	16059
914.453	15903
914.566	16124
914.68	15812
914.793	15854
914.906	15663
915.019	15652
915.132	15485
915.245	15652
915.358	15572
915.47	15629
915.583	15629
915.696	15679
915.809	15728
915.921	15720
916.034	15572
916.146	15458
916.259	15431
916.371	15610
916.483	15564
916.595	15515
916.708	15481
916.82	15515
916.932	15386
917.044	15279
917.156	15298
917.268	15298
917.38	15382
917.491	15184
917.603	15256
917.715	15367
917.826	15363
917.938	15123
918.049	15123
918.161	15184
918.272	15310
918.384	15310
918.495	15116
918.606	15142
918.717	14948
918.828	15051
918.939	15009
919.05	14887
919.161	14998
919.272	14811
919.383	14853
919.494	15047
919.604	15329
919.715	14982
919.826	14902
919.936	14864
920.047	15062
920.157	14929
920.267	15237
920.378	15013
920.488	14906
920.598	15108
920.708	15336
920.818	15055
920.928	15036
921.038	15313
921.148	15138
921.258	14929
921.368	14849
921.477	14625
921.587	14708
921.697	14499
921.806	14606
921.916	14587
922.025	14336
922.134	14351
922.244	14176
922.353	14290
922.462	14187
922.571	14115
922.68	14031
922.789	13883
922.898	13963
923.007	13947
923.116	13970
923.224	13898
923.333	13822
923.442	13845
923.55	13700
923.659	13761
923.767	13849
923.876	13712
923.984	13738
924.092	13681
924.201	13632
924.309	13643
924.417	13693
924.525	13681
924.633	13578
924.741	14389
924.849	13426
924.956	13537
925.064	13308
925.172	13293
925.279	13278
925.387	13480
925.494	13324
925.602	13392
925.709	13426
925.816	13301
925.924	13312
926.031	13373
926.138	13213
926.245	13407
926.352	13232
926.459	13274
926.566	13339
926.673	13213
926.779	13088
926.886	13072
926.993	12947
927.099	12970
927.206	12848
927.312	12837
927.419	12897
927.525	12905
927.631	12825
927.737	12791
927.843	12757
927.95	12601
928.056	12760
928.162	12795
928.267	12833
928.373	13400
928.479	12707
928.585	12536
928.69	12707
928.796	12665
928.901	12631
929.007	12342
929.112	12563
929.218	12486
929.323	12422
929.428	12407
929.533	12570
929.638	12407
929.743	12437
929.848	12429
929.953	12418
930.058	12194
930.163	12114
930.267	12152
930.372	12110
930.477	12144
930.581	12281
930.685	12186
930.79	11935
930.894	11980
930.998	11870
931.103	12129
931.207	11771
931.311	11672
931.415	11528
931.519	11402
931.623	11368
