Data from test_V78500241_3133.txt Node
Date: Fri Mar 25 16:03:30 CST 2022
User: usil
Spectrometer: V785-0024
Trigger mode: 0
Integration Time (sec): 4.000000E-1
Scans to average: 1
Nonlinearity correction enabled: false
Boxcar width: 0
Storing dark spectrum: false
XAxis mode: Wavelengths
Number of Pixels in Spectrum: 1024
>>>>>Begin Spectral Data<<<<<
801.071	28873
801.214	28850
801.356	28675
801.499	28577
801.641	28493
801.783	28500
801.926	28603
802.068	28417
802.211	28344
802.353	28417
802.496	28333
802.638	28291
802.78	28147
802.923	28158
803.065	28166
803.208	28215
803.35	28280
803.492	28272
803.635	28405
803.777	28246
803.919	28379
804.061	28630
804.204	28386
804.346	28291
804.488	28344
804.63	28409
804.773	28478
804.915	28561
805.057	28424
805.199	28417
805.341	28592
805.483	28713
805.626	28580
805.768	28470
805.91	28637
806.052	28683
806.194	28626
806.336	28801
806.478	28660
806.62	28615
806.762	28778
806.904	28816
807.046	29079
807.188	29056
807.33	29014
807.472	29098
807.614	29105
807.756	29029
807.898	28915
808.04	28938
808.182	28847
808.324	28965
808.465	28938
808.607	29170
808.749	29299
808.891	29444
809.033	29429
809.174	29417
809.316	29250
809.458	29250
809.6	29204
809.741	29364
809.883	29353
810.025	29649
810.166	29623
810.308	29691
810.45	29600
810.591	29444
810.733	29402
810.875	29334
811.016	29265
811.158	29322
811.299	29440
811.441	29554
811.582	29581
811.724	29345
811.865	29200
812.007	29459
812.148	29311
812.29	29402
812.431	29433
812.573	29752
812.714	29741
812.855	29840
812.997	29942
813.138	29912
813.279	30091
813.421	29741
813.562	29756
813.703	29543
813.845	29474
813.986	29387
814.127	29208
814.268	29079
814.41	29109
814.551	29041
814.692	29189
814.833	29022
814.974	29006
815.115	29105
815.256	29075
815.397	28946
815.539	28866
815.68	28900
815.821	28782
815.962	28976
816.103	28888
816.244	28736
816.385	28668
816.526	28557
816.666	28497
816.807	28272
816.948	28398
817.089	28474
817.23	28459
817.371	28401
817.512	28287
817.653	28348
817.793	28230
817.934	28371
818.075	28379
818.216	28432
818.356	28367
818.497	28379
818.638	27937
818.778	28128
818.919	28166
819.06	28310
819.2	28352
819.341	28485
819.481	28455
819.622	28405
819.762	28786
819.903	28660
820.043	28626
820.184	28618
820.324	28706
820.465	28531
820.605	28588
820.746	28607
820.886	28295
821.026	28462
821.167	28413
821.307	28634
821.447	28497
821.588	28360
821.728	28261
821.868	28109
822.008	27914
822.149	27922
822.289	27838
822.429	27671
822.569	27515
822.709	27561
822.849	27488
822.99	27496
823.13	27313
823.27	27275
823.41	27222
823.55	27032
823.69	27154
823.83	27108
823.97	27131
824.11	26952
824.25	27070
824.389	26956
824.529	27089
824.669	27051
824.809	27230
824.949	27169
825.089	27142
825.228	27127
825.368	26979
825.508	27005
825.648	26918
825.787	27028
825.927	26998
826.067	26887
826.206	26777
826.346	26998
826.485	26963
826.625	26796
826.765	26956
826.904	27032
827.044	26777
827.183	26560
827.323	26568
827.462	26815
827.601	26602
827.741	26613
827.88	26773
828.02	26556
828.159	26602
828.298	26609
828.437	26712
828.577	26518
828.716	26815
828.855	26606
828.994	26282
829.134	26328
829.273	26400
829.412	26252
829.551	26134
829.69	26419
829.829	26374
829.968	26427
830.107	26355
830.246	26377
830.385	26161
830.524	26271
830.663	26149
830.802	26100
830.941	26035
831.08	25856
831.219	26050
831.357	25951
831.496	26161
831.635	25993
831.774	25852
831.913	25784
832.051	25689
832.19	25712
832.329	25731
832.467	25571
832.606	25552
832.744	25651
832.883	25495
833.022	25540
833.16	25662
833.299	25639
833.437	25616
833.576	25700
833.714	25609
833.852	25605
833.991	25597
834.129	25746
834.267	25784
834.406	25700
834.544	25632
834.682	25700
834.821	25647
834.959	25750
835.097	25578
835.235	25769
835.373	25578
835.511	25582
835.65	25419
835.788	25537
835.926	25255
836.064	25297
836.202	25301
836.34	25495
836.478	25548
836.615	25441
836.753	25533
836.891	25502
837.029	25533
837.167	25472
837.305	25297
837.443	25225
837.58	25228
837.718	25335
837.856	25285
837.993	25137
838.131	25327
838.269	25072
838.406	25263
838.544	25050
838.681	24943
838.819	24901
838.956	24913
839.094	24738
839.231	24867
839.369	24943
839.506	25160
839.643	24951
839.781	24844
839.918	24753
840.055	24700
840.193	24707
840.33	24574
840.467	24734
840.604	24688
840.742	24973
840.879	24513
841.016	24578
841.153	24521
841.29	24810
841.427	24601
841.564	24631
841.701	24620
841.838	24608
841.975	24719
842.112	24525
842.249	24486
842.385	24308
842.522	24582
842.659	24563
842.796	24376
842.933	24460
843.069	24403
843.206	24441
843.343	24327
843.479	24388
843.616	24391
843.752	24235
843.889	24232
844.025	24410
844.162	24266
844.298	24285
844.435	24209
844.571	24171
844.708	24243
844.844	24304
844.98	24304
845.117	24323
845.253	24209
845.389	24117
845.525	24121
845.661	24087
845.798	23920
845.934	23935
846.07	23878
846.206	23969
846.342	24034
846.478	23809
846.614	23764
846.75	23577
846.886	23562
847.022	23745
847.158	23718
847.294	23661
847.429	23520
847.565	23611
847.701	23942
847.837	23364
847.972	23288
848.108	23520
848.244	23459
848.379	23315
848.515	23280
848.65	23159
848.786	23273
848.921	23280
849.057	23360
849.192	23288
849.328	23277
849.463	23250
849.598	23128
849.734	23124
849.869	23102
850.004	23041
850.14	23048
850.275	23067
850.41	22885
850.545	22999
850.68	23025
850.815	23056
850.95	22995
851.085	23330
851.22	23128
851.355	23060
851.49	22881
851.625	22953
851.76	23010
851.895	22927
852.03	22828
852.165	23071
852.299	23025
852.434	23086
852.569	23071
852.703	22984
852.838	23003
852.973	23162
853.107	23132
853.242	22949
853.376	22904
853.511	22622
853.645	22679
853.78	22889
853.914	22862
854.048	22763
854.183	22885
854.317	22721
854.451	23014
854.585	22831
854.72	22858
854.854	22858
854.988	22858
855.122	22919
855.256	22721
855.39	22729
855.524	22957
855.658	22934
855.792	22717
855.926	22854
856.06	22896
856.194	22995
856.327	22809
856.461	22710
856.595	22717
856.729	22854
856.862	22835
856.996	22847
857.13	22801
857.263	23025
857.397	22828
857.53	22843
857.664	22881
857.797	22923
857.931	22999
858.064	22911
858.197	22831
858.331	22782
858.464	22736
858.597	22763
858.731	22713
858.864	22782
858.997	22828
859.13	22828
859.263	22934
859.396	22854
859.529	22717
859.662	22713
859.795	22862
859.928	22858
860.061	22927
860.194	23064
860.327	22824
860.46	22828
860.592	23029
860.725	22953
860.858	22995
860.99	22869
861.123	22721
861.256	22740
861.388	22805
861.521	23429
861.653	22778
861.786	22630
861.918	22645
862.05	22733
862.183	22653
862.315	22660
862.447	22820
862.58	22778
862.712	22622
862.844	22466
862.976	22618
863.108	22618
863.24	22968
863.372	22535
863.504	22493
863.636	22451
863.768	22417
863.9	22577
864.032	22634
864.164	22569
864.296	22698
864.428	22782
864.559	22782
864.691	22592
864.823	22428
864.954	22569
865.086	22459
865.217	22421
865.349	22325
865.48	22295
865.612	22306
865.743	22531
865.875	22379
866.006	22375
866.137	22367
866.269	22455
866.4	22261
866.531	22333
866.662	22299
866.793	22367
866.924	22329
867.055	22325
867.186	22382
867.317	22268
867.448	22223
867.579	22257
867.71	22242
867.841	22325
867.972	22246
868.103	22379
868.233	22382
868.364	22325
868.495	22546
868.625	22512
868.756	22691
868.886	22497
869.017	22542
869.147	22622
869.278	22831
869.408	22672
869.539	22523
869.669	22664
869.799	22561
869.929	22683
870.06	22748
870.19	22911
870.32	22915
870.45	22965
870.58	22930
870.71	23056
870.84	22999
870.97	23010
871.1	23006
871.23	23079
871.36	23102
871.489	23060
871.619	23018
871.749	23117
871.879	23140
872.008	23303
872.138	23288
872.267	23033
872.397	23060
872.526	22938
872.656	23018
872.785	23121
872.915	23231
873.044	23292
873.173	23250
873.303	23330
873.432	23239
873.561	23223
873.69	23136
873.819	23128
873.948	23239
874.077	23200
874.206	23235
874.335	23315
874.464	23261
874.593	23417
874.722	23356
874.851	23467
874.979	23364
875.108	23486
875.237	23349
875.365	23273
875.494	23360
875.623	23433
875.751	23395
875.88	23455
876.008	23512
876.136	23611
876.265	23961
876.393	23908
876.521	23790
876.65	23878
876.778	23893
876.906	23790
877.034	23745
877.162	23638
877.29	23642
877.418	23775
877.546	23733
877.674	23714
877.802	23775
877.93	23691
878.058	23718
878.185	23558
878.313	23649
878.441	23843
878.568	23535
878.696	23710
878.824	23775
878.951	23710
879.079	23878
879.206	23931
879.333	23916
879.461	23745
879.588	23874
879.715	23813
879.842	23935
879.97	23707
880.097	23672
880.224	23611
880.351	23455
880.478	23570
880.605	23520
880.732	23543
880.859	23828
880.986	23642
881.112	23509
881.239	23433
881.366	23189
881.493	23143
881.619	23113
881.746	23052
881.872	23083
881.999	23113
882.125	22900
882.252	23071
882.378	23056
882.505	23223
882.631	22946
882.757	22831
882.883	22965
883.01	22904
883.136	22748
883.262	22630
883.388	22683
883.514	22904
883.64	22812
883.766	22698
883.892	22527
884.018	22561
884.143	22618
884.269	22778
884.395	22615
884.52	22443
884.646	22421
884.772	22249
884.897	22337
885.023	22470
885.148	22485
885.274	22672
885.399	22474
885.524	22394
885.65	22428
885.775	22481
885.9	22348
886.025	22516
886.15	22519
886.275	22398
886.4	22280
886.525	22333
886.65	22272
886.775	22382
886.9	22478
887.025	22573
887.149	22303
887.274	22246
887.399	22192
887.523	22181
887.648	22025
887.773	22128
887.897	22143
888.021	22223
888.146	22116
888.27	22211
888.395	22314
888.519	22299
888.643	22147
888.767	22310
888.891	22086
889.015	21907
889.139	21945
889.263	22002
889.387	22010
889.511	22097
889.635	22109
889.759	21831
889.883	21918
890.006	21926
890.13	21991
890.254	21869
890.377	21975
890.501	21671
890.624	21660
890.748	21762
890.871	21583
890.995	21504
891.118	21378
891.241	21660
891.364	21500
891.488	21564
891.611	21488
891.734	21557
891.857	21523
891.98	21496
892.103	21507
892.226	21576
892.349	21370
892.471	21241
892.594	21313
892.717	21504
892.839	21545
892.962	21355
893.085	21443
893.207	21382
893.33	21310
893.452	21298
893.575	21382
893.697	21355
893.819	21603
893.941	21564
894.064	21614
894.186	21241
894.308	21294
894.43	21393
894.552	21405
894.674	21561
894.796	21226
894.918	21348
895.04	21485
895.161	21412
895.283	21378
895.405	21378
895.526	21367
895.648	21344
895.769	21408
895.891	21401
896.012	21477
896.134	21252
896.255	21351
896.376	21317
896.498	21344
896.619	21405
896.74	21492
896.861	21401
896.982	21652
897.103	21899
897.224	21671
897.345	21553
897.466	21496
897.587	21553
897.708	21652
897.828	21477
897.949	21488
898.07	21439
898.19	21492
898.311	21625
898.431	21485
898.552	21561
898.672	21576
898.792	21660
898.913	21473
899.033	21450
899.153	21348
899.273	21275
899.393	21291
899.513	21249
899.633	21302
899.753	21336
899.873	21184
899.993	21275
900.113	21154
900.232	21195
900.352	21233
900.472	20998
900.591	21066
900.711	21043
900.83	21005
900.95	21165
901.069	21146
901.189	20979
901.308	20674
901.427	20537
901.546	20598
901.665	20613
901.784	20682
901.904	20438
902.023	20374
902.141	20225
902.26	20206
902.379	20351
902.498	20103
902.617	20096
902.735	20058
902.854	20126
902.973	20039
903.091	19795
903.21	19715
903.328	19811
903.446	19662
903.565	19556
903.683	19590
903.801	19480
903.919	19487
904.038	19468
904.156	19426
904.274	19384
904.392	19312
904.51	19335
904.627	19259
904.745	19362
904.863	19297
904.981	19050
905.098	19031
905.216	18924
905.334	18932
905.451	18913
905.569	18958
905.686	19095
905.803	18935
905.921	18764
906.038	18844
906.155	18783
906.272	18566
906.389	18707
906.506	18582
906.623	18479
906.74	18597
906.857	18422
906.974	18330
907.091	18570
907.208	18555
907.324	18650
907.441	18441
907.557	18292
907.674	18095
907.79	18079
907.907	18205
908.023	18171
908.139	18152
908.256	18159
908.372	17939
908.488	18087
908.604	17992
908.72	17916
908.836	17958
908.952	17954
909.068	17954
909.184	18053
909.3	17965
909.415	17904
909.531	17904
909.647	17703
909.762	17638
909.878	17608
909.993	17642
910.108	17501
910.224	17558
910.339	17497
910.454	17554
910.57	17520
910.685	17299
910.8	17642
910.915	17592
911.03	17345
911.145	17216
911.259	17197
911.374	17178
911.489	17048
911.604	17033
911.718	16923
911.833	16930
911.947	16820
912.062	16854
912.176	16961
912.291	16976
912.405	16980
912.519	17075
912.633	17113
912.748	16972
912.862	16866
912.976	16675
913.09	16649
913.204	16733
913.318	16733
913.431	16702
913.545	16752
913.659	16828
913.772	16687
913.886	16592
914	16478
914.113	16603
914.226	16733
914.34	16717
914.453	16436
914.566	16554
914.68	16424
914.793	16356
914.906	16246
915.019	16109
915.132	16021
915.245	16082
915.358	16120
915.47	16131
915.583	16013
915.696	16158
915.809	16150
915.921	16154
916.034	16013
916.146	16006
916.259	15941
916.371	16124
916.483	16044
916.595	15911
916.708	15918
916.82	16055
916.932	15876
917.044	15945
917.156	15869
917.268	15797
917.38	15694
917.491	15682
917.603	15747
917.715	15808
917.826	15766
917.938	15656
918.049	15500
918.161	15591
918.272	15755
918.384	15717
918.495	15618
918.606	15526
918.717	15477
918.828	15511
918.939	15458
919.05	15329
919.161	15462
919.272	15272
919.383	15291
919.494	15462
919.604	15675
919.715	15397
919.826	15279
919.936	15393
920.047	15351
920.157	15389
920.267	15580
920.378	15408
920.488	15420
920.598	15599
920.708	15637
920.818	15549
920.928	15473
921.038	15690
921.148	15553
921.258	15275
921.368	15298
921.477	15146
921.587	15081
921.697	15036
921.806	15093
921.916	14994
922.025	14807
922.134	14712
922.244	14746
922.353	14804
922.462	14636
922.571	14545
922.68	14473
922.789	14355
922.898	14358
923.007	14332
923.116	14351
923.224	14396
923.333	14446
923.442	14221
923.55	14237
923.659	14256
923.767	14282
923.876	14134
923.984	14202
924.092	14115
924.201	14126
924.309	14039
924.417	14145
924.525	13959
924.633	14016
924.741	14823
924.849	13799
924.956	13928
925.064	13757
925.172	13658
925.279	13643
925.387	13715
925.494	13757
925.602	13814
925.709	13807
925.816	13696
925.924	13674
926.031	13803
926.138	13658
926.245	13666
926.352	13544
926.459	13715
926.566	13750
926.673	13643
926.779	13552
926.886	13438
926.993	13266
927.099	13343
927.206	13206
927.312	13301
927.419	13354
927.525	13259
927.631	13350
927.737	13088
927.843	13206
927.95	12966
928.056	13129
928.162	13076
928.267	13149
928.373	13742
928.479	13114
928.585	12939
928.69	13000
928.796	13107
928.901	12890
929.007	12890
929.112	12973
929.218	12943
929.323	12806
929.428	12715
929.533	12875
929.638	12806
929.743	12783
929.848	12753
929.953	12749
930.058	12578
930.163	12399
930.267	12403
930.372	12532
930.477	12422
930.581	12608
930.685	12566
930.79	12334
930.894	12384
930.998	12266
931.103	12369
931.207	12045
931.311	11980
931.415	11961
931.519	11786
931.623	11642
