Data from test_V78500241_2247.txt Node
Date: Fri Mar 25 15:57:22 CST 2022
User: usil
Spectrometer: V785-0024
Trigger mode: 0
Integration Time (sec): 4.000000E-1
Scans to average: 1
Nonlinearity correction enabled: false
Boxcar width: 0
Storing dark spectrum: false
XAxis mode: Wavelengths
Number of Pixels in Spectrum: 1024
>>>>>Begin Spectral Data<<<<<
801.071	28793
801.214	28820
801.356	28592
801.499	28531
801.641	28432
801.783	28379
801.926	28382
802.068	28554
802.211	28367
802.353	28322
802.496	28150
802.638	28177
802.78	28242
802.923	28139
803.065	28025
803.208	28055
803.35	28090
803.492	28337
803.635	28272
803.777	28246
803.919	28348
804.061	28626
804.204	28428
804.346	28371
804.488	28287
804.63	28401
804.773	28352
804.915	28386
805.057	28565
805.199	28344
805.341	28603
805.483	28538
805.626	28569
805.768	28360
805.91	28550
806.052	28641
806.194	28401
806.336	28733
806.478	28554
806.62	28512
806.762	28835
806.904	28854
807.046	29151
807.188	29044
807.33	28972
807.472	29086
807.614	28930
807.756	29018
807.898	28831
808.04	28634
808.182	28725
808.324	28809
808.465	29060
808.607	29052
808.749	29166
808.891	29315
809.033	29322
809.174	29379
809.316	29273
809.458	29197
809.6	29193
809.741	29265
809.883	29326
810.025	29505
810.166	29535
810.308	29630
810.45	29554
810.591	29356
810.733	29269
810.875	29250
811.016	29181
811.158	29220
811.299	29227
811.441	29501
811.582	29528
811.724	29250
811.865	29288
812.007	29208
812.148	29341
812.29	29277
812.431	29501
812.573	29752
812.714	29516
812.855	29779
812.997	29874
813.138	30182
813.279	29988
813.421	29809
813.562	29657
813.703	29623
813.845	29581
813.986	29250
814.127	29121
814.268	28763
814.41	28862
814.551	28961
814.692	28946
814.833	28930
814.974	28843
815.115	28980
815.256	28881
815.397	28782
815.539	28885
815.68	28862
815.821	28675
815.962	28759
816.103	28858
816.244	28740
816.385	28538
816.526	28512
816.666	28424
816.807	28287
816.948	28367
817.089	28519
817.23	28409
817.371	28276
817.512	28169
817.653	28177
817.793	28246
817.934	28261
818.075	28318
818.216	28310
818.356	28128
818.497	28173
818.638	28074
818.778	27983
818.919	28090
819.06	28097
819.2	28158
819.341	28211
819.481	28318
819.622	28303
819.762	28603
819.903	28615
820.043	28542
820.184	28379
820.324	28523
820.465	28478
820.605	28356
820.746	28417
820.886	28299
821.026	28481
821.167	28325
821.307	28234
821.447	28405
821.588	28238
821.728	28185
821.868	27979
822.008	27759
822.149	27876
822.289	27762
822.429	27496
822.569	27412
822.709	27485
822.849	27340
822.99	27325
823.13	27348
823.27	27112
823.41	27116
823.55	26937
823.69	27154
823.83	27119
823.97	27070
824.11	26845
824.25	26891
824.389	26906
824.529	26979
824.669	26940
824.809	27165
824.949	26975
825.089	26956
825.228	26998
825.368	26883
825.508	26853
825.648	26891
825.787	26982
825.927	26807
826.067	26705
826.206	26731
826.346	26769
826.485	26940
826.625	26868
826.765	26807
826.904	26868
827.044	26602
827.183	26598
827.323	26503
827.462	26686
827.601	26716
827.741	26465
827.88	26590
828.02	26541
828.159	26492
828.298	26594
828.437	26522
828.577	26389
828.716	26598
828.855	26492
828.994	26180
829.134	26214
829.273	26233
829.412	26111
829.551	26370
829.69	26187
829.829	26298
829.968	26298
830.107	26278
830.246	26210
830.385	26142
830.524	26100
830.663	25860
830.802	25997
830.941	25833
831.08	25894
831.219	26031
831.357	25909
831.496	25906
831.635	25921
831.774	25727
831.913	25734
832.051	25662
832.19	25635
832.329	25662
832.467	25693
832.606	25510
832.744	25434
832.883	25445
833.022	25537
833.16	25590
833.299	25605
833.437	25556
833.576	25510
833.714	25506
833.852	25674
833.991	25658
834.129	25708
834.267	25586
834.406	25571
834.544	25727
834.682	25499
834.821	25518
834.959	25639
835.097	25502
835.235	25613
835.373	25582
835.511	25613
835.65	25354
835.788	25556
835.926	25270
836.064	25202
836.202	25228
836.34	25472
836.478	25476
836.615	25343
836.753	25419
836.891	25453
837.029	25544
837.167	25278
837.305	25247
837.443	25247
837.58	25168
837.718	25247
837.856	25187
837.993	25194
838.131	25137
838.269	25122
838.406	25304
838.544	24901
838.681	24859
838.819	24878
838.956	24738
839.094	24566
839.231	24734
839.369	24840
839.506	25080
839.643	24973
839.781	24623
839.918	24563
840.055	24597
840.193	24722
840.33	24601
840.467	24521
840.604	24563
840.742	24867
840.879	24388
841.016	24479
841.153	24467
841.29	24540
841.427	24547
841.564	24612
841.701	24654
841.838	24513
841.975	24479
842.112	24574
842.249	24540
842.385	24346
842.522	24452
842.659	24388
842.796	24247
842.933	24380
843.069	24171
843.206	24235
843.343	24437
843.479	24334
843.616	24384
843.752	24125
843.889	24224
844.025	24235
844.162	24015
844.298	24266
844.435	24110
844.571	24057
844.708	24144
844.844	24418
844.98	24369
845.117	24159
845.253	24083
845.389	23942
845.525	24034
845.661	23961
845.798	23950
845.934	23950
846.07	23878
846.206	23847
846.342	23992
846.478	23764
846.614	23649
846.75	23558
846.886	23497
847.022	23627
847.158	23748
847.294	23562
847.429	23539
847.565	23543
847.701	23783
847.837	23334
847.972	23250
848.108	23425
848.244	23395
848.379	23307
848.515	23220
848.65	23136
848.786	23121
848.921	23208
849.057	23307
849.192	23242
849.328	23162
849.463	23143
849.598	23056
849.734	23064
849.869	23033
850.004	22782
850.14	22965
850.275	22965
850.41	22759
850.545	22946
850.68	22809
850.815	22923
850.95	22900
851.085	22980
851.22	23056
851.355	22995
851.49	22908
851.625	22885
851.76	22816
851.895	22748
852.03	22889
852.165	22919
852.299	22995
852.434	23044
852.569	23044
852.703	22892
852.838	22885
852.973	23064
853.107	23025
853.242	22797
853.376	22710
853.511	22557
853.645	22733
853.78	22938
853.914	22774
854.048	22717
854.183	22740
854.317	22778
854.451	22908
854.585	22744
854.72	22702
854.854	22778
854.988	22702
855.122	22752
855.256	22649
855.39	22733
855.524	22721
855.658	22675
855.792	22725
855.926	22759
856.06	22710
856.194	22771
856.327	22771
856.461	22687
856.595	22535
856.729	22641
856.862	22854
856.996	22752
857.13	22771
857.263	22854
857.397	22736
857.53	22675
857.664	22767
857.797	22793
857.931	22843
858.064	22755
858.197	22850
858.331	22801
858.464	22706
858.597	22561
858.731	22687
858.864	22660
858.997	22698
859.13	22713
859.263	22801
859.396	22812
859.529	22653
859.662	22835
859.795	22679
859.928	22759
860.061	22904
860.194	22927
860.327	22706
860.46	22698
860.592	22828
860.725	22873
860.858	22976
860.99	22854
861.123	22615
861.256	22649
861.388	22713
861.521	23395
861.653	22618
861.786	22462
861.918	22538
862.05	22736
862.183	22706
862.315	22569
862.447	22835
862.58	22740
862.712	22314
862.844	22447
862.976	22588
863.108	22615
863.24	22946
863.372	22287
863.504	22341
863.636	22424
863.768	22466
863.9	22459
864.032	22371
864.164	22299
864.296	22394
864.428	22455
864.559	22531
864.691	22485
864.823	22367
864.954	22390
865.086	22363
865.217	22390
865.349	22215
865.48	22363
865.612	22325
865.743	22405
865.875	22386
866.006	22188
866.137	22478
866.269	22360
866.4	22116
866.531	22284
866.662	22211
866.793	22086
866.924	22200
867.055	22284
867.186	22242
867.317	22291
867.448	22120
867.579	22131
867.71	22215
867.841	22150
867.972	22185
868.103	22128
868.233	22276
868.364	22234
868.495	22234
868.625	22386
868.756	22622
868.886	22466
869.017	22546
869.147	22565
869.278	22653
869.408	22584
869.539	22470
869.669	22592
869.799	22588
869.929	22592
870.06	22596
870.19	22805
870.32	22733
870.45	22885
870.58	22797
870.71	22934
870.84	22942
870.97	22835
871.1	22908
871.23	23056
871.36	23052
871.489	22957
871.619	22976
871.749	23151
871.879	23121
872.008	23136
872.138	23071
872.267	23098
872.397	22972
872.526	22908
872.656	22908
872.785	22889
872.915	23010
873.044	23227
873.173	23197
873.303	23204
873.432	23041
873.561	23200
873.69	23105
873.819	23178
873.948	23117
874.077	23124
874.206	23006
874.335	23056
874.464	23250
874.593	23410
874.722	23345
874.851	23383
874.979	23337
875.108	23315
875.237	23280
875.365	23220
875.494	23307
875.623	23402
875.751	23280
875.88	23250
876.008	23402
876.136	23379
876.265	23691
876.393	23851
876.521	23874
876.65	23798
876.778	23585
876.906	23573
877.034	23809
877.162	23543
877.29	23611
877.418	23619
877.546	23604
877.674	23539
877.802	23653
877.93	23516
878.058	23600
878.185	23585
878.313	23547
878.441	23699
878.568	23379
878.696	23551
878.824	23608
878.951	23790
879.079	23805
879.206	23961
879.333	23764
879.461	23649
879.588	23764
879.715	23710
879.842	23996
879.97	23638
880.097	23417
880.224	23493
880.351	23486
880.478	23459
880.605	23528
880.732	23543
880.859	23718
880.986	23406
881.112	23444
881.239	23246
881.366	23231
881.493	23067
881.619	23018
881.746	23071
881.872	23113
881.999	22873
882.125	22946
882.252	23159
882.378	22999
882.505	23056
882.631	22847
882.757	22748
882.883	22675
883.01	22634
883.136	22744
883.262	22554
883.388	22462
883.514	22729
883.64	22679
883.766	22637
883.892	22379
884.018	22542
884.143	22599
884.269	22672
884.395	22318
884.52	22367
884.646	22356
884.772	22192
884.897	22238
885.023	22200
885.148	22303
885.274	22421
885.399	22421
885.524	22367
885.65	22356
885.775	22280
885.9	22257
886.025	22409
886.15	22344
886.275	22284
886.4	22131
886.525	22261
886.65	22200
886.775	22124
886.9	22436
887.025	22474
887.149	22192
887.274	22097
887.399	22074
887.523	22128
887.648	22044
887.773	21987
887.897	22154
888.021	22078
888.146	22059
888.27	22120
888.395	22093
888.519	22147
888.643	22097
888.767	22112
888.891	22074
889.015	21930
889.139	21956
889.263	21762
889.387	21983
889.511	22013
889.635	22029
889.759	21751
889.883	21835
890.006	21812
890.13	21907
890.254	21743
890.377	21698
890.501	21534
890.624	21747
890.748	21618
890.871	21420
890.995	21370
891.118	21241
891.241	21370
891.364	21477
891.488	21580
891.611	21393
891.734	21408
891.857	21469
891.98	21416
892.103	21294
892.226	21485
892.349	21329
892.471	21123
892.594	21348
892.717	21351
892.839	21222
892.962	21310
893.085	21332
893.207	21214
893.33	21150
893.452	21192
893.575	21287
893.697	21340
893.819	21363
893.941	21477
894.064	21504
894.186	21176
894.308	21207
894.43	21275
894.552	21454
894.674	21374
894.796	21207
894.918	21249
895.04	21203
895.161	21302
895.283	21370
895.405	21142
895.526	21313
895.648	21222
895.769	21222
895.891	21313
896.012	21435
896.134	21283
896.255	21203
896.376	21188
896.498	21188
896.619	21310
896.74	21237
896.861	21336
896.982	21595
897.103	21682
897.224	21576
897.345	21431
897.466	21252
897.587	21386
897.708	21671
897.828	21416
897.949	21310
898.07	21367
898.19	21294
898.311	21466
898.431	21317
898.552	21420
898.672	21538
898.792	21507
898.913	21397
899.033	21287
899.153	21275
899.273	21089
899.393	21237
899.513	21135
899.633	21241
899.753	21241
899.873	21112
899.993	21104
900.113	21096
900.232	21070
900.352	21108
900.472	21047
900.591	20811
900.711	20887
900.83	20842
900.95	21070
901.069	20883
901.189	20769
901.308	20571
901.427	20507
901.546	20526
901.665	20590
901.784	20442
901.904	20362
902.023	20324
902.141	19947
902.26	20115
902.379	20069
902.498	19959
902.617	19978
902.735	19982
902.854	19959
902.973	19955
903.091	19723
903.21	19712
903.328	19502
903.446	19556
903.565	19392
903.683	19483
903.801	19480
903.919	19415
904.038	19384
904.156	19190
904.274	19377
904.392	19179
904.51	19156
904.627	19145
904.745	19365
904.863	19308
904.981	18943
905.098	18993
905.216	18890
905.334	18996
905.451	18905
905.569	18878
905.686	18875
905.803	18878
905.921	18620
906.038	18700
906.155	18681
906.272	18506
906.389	18555
906.506	18471
906.623	18376
906.74	18330
906.857	18289
906.974	18308
907.091	18540
907.208	18498
907.324	18403
907.441	18300
907.557	18216
907.674	18129
907.79	18121
907.907	18068
908.023	18106
908.139	18106
908.256	17973
908.372	18045
908.488	17931
908.604	17901
908.72	17878
908.836	17790
908.952	17726
909.068	17859
909.184	17912
909.3	17809
909.415	17794
909.531	17737
909.647	17680
909.762	17577
909.878	17535
909.993	17554
910.108	17471
910.224	17444
910.339	17455
910.454	17383
910.57	17322
910.685	17254
910.8	17497
910.915	17486
911.03	17330
911.145	17162
911.259	17155
911.374	17143
911.489	17003
911.604	17029
911.718	16797
911.833	16835
911.947	16767
912.062	16675
912.176	16805
912.291	16835
912.405	16668
912.519	17025
912.633	17102
912.748	16843
912.862	16892
912.976	16782
913.09	16603
913.204	16535
913.318	16653
913.431	16816
913.545	16660
913.659	16748
913.772	16611
913.886	16531
914	16432
914.113	16497
914.226	16531
914.34	16386
914.453	16242
914.566	16413
914.68	16341
914.793	16246
914.906	16150
915.019	16067
915.132	15975
915.245	16044
915.358	15991
915.47	15983
915.583	15998
915.696	16013
915.809	16143
915.921	16109
916.034	15922
916.146	15918
916.259	15918
916.371	15907
916.483	15861
916.595	15781
916.708	15835
916.82	15808
916.932	15778
917.044	15667
917.156	15724
917.268	15591
917.38	15694
917.491	15603
917.603	15739
917.715	15751
917.826	15686
917.938	15511
918.049	15435
918.161	15584
918.272	15739
918.384	15774
918.495	15603
918.606	15485
918.717	15325
918.828	15511
918.939	15405
919.05	15351
919.161	15306
919.272	15047
919.383	15207
919.494	15492
919.604	15496
919.715	15275
919.826	15302
919.936	15226
920.047	15329
920.157	15340
920.267	15610
920.378	15397
920.488	15363
920.598	15504
920.708	15576
920.818	15435
920.928	15416
921.038	15538
921.148	15545
921.258	15336
921.368	15188
921.477	15085
921.587	15005
921.697	14982
921.806	15077
921.916	14986
922.025	14697
922.134	14701
922.244	14579
922.353	14678
922.462	14518
922.571	14488
922.68	14438
922.789	14358
922.898	14278
923.007	14301
923.116	14336
923.224	14362
923.333	14301
923.442	14199
923.55	14096
923.659	14073
923.767	14164
923.876	14050
923.984	14161
924.092	14031
924.201	14126
924.309	13989
924.417	14077
924.525	13940
924.633	13890
924.741	14568
924.849	13765
924.956	13864
925.064	13708
925.172	13715
925.279	13624
925.387	13681
925.494	13769
925.602	13864
925.709	13620
925.816	13559
925.924	13609
926.031	13639
926.138	13605
926.245	13704
926.352	13510
926.459	13590
926.566	13647
926.673	13609
926.779	13407
926.886	13373
926.993	13251
927.099	13278
927.206	13183
927.312	13236
927.419	13209
927.525	13156
927.631	13247
927.737	13091
927.843	13027
927.95	13015
928.056	13107
928.162	12973
928.267	13023
928.373	13655
928.479	13133
928.585	12802
928.69	12985
928.796	13015
928.901	12833
929.007	12715
929.112	12867
929.218	12825
929.323	12730
929.428	12738
929.533	12852
929.638	12608
929.743	12711
929.848	12730
929.953	12692
930.058	12604
930.163	12391
930.267	12429
930.372	12570
930.477	12403
930.581	12627
930.685	12483
930.79	12304
930.894	12167
930.998	12247
931.103	12361
931.207	11980
931.311	11882
931.415	11828
931.519	11642
931.623	11611
