Data from test_V78500241_1390.txt Node
Date: Fri Mar 25 15:51:25 CST 2022
User: usil
Spectrometer: V785-0024
Trigger mode: 0
Integration Time (sec): 4.000000E-1
Scans to average: 1
Nonlinearity correction enabled: false
Boxcar width: 0
Storing dark spectrum: false
XAxis mode: Wavelengths
Number of Pixels in Spectrum: 1024
>>>>>Begin Spectral Data<<<<<
801.071	28120
801.214	27960
801.356	27884
801.499	27865
801.641	27648
801.783	27534
801.926	27641
802.068	27739
802.211	27622
802.353	27500
802.496	27374
802.638	27389
802.78	27329
802.923	27222
803.065	27226
803.208	27332
803.35	27473
803.492	27583
803.635	27515
803.777	27443
803.919	27595
804.061	27846
804.204	27732
804.346	27408
804.488	27542
804.63	27519
804.773	27431
804.915	27595
805.057	27724
805.199	27469
805.341	27583
805.483	27648
805.626	27652
805.768	27701
805.91	27599
806.052	27648
806.194	27564
806.336	27960
806.478	27686
806.62	27800
806.762	27888
806.904	27987
807.046	28230
807.188	28074
807.33	28067
807.472	28246
807.614	28150
807.756	28025
807.898	27930
808.04	27911
808.182	27953
808.324	27918
808.465	27949
808.607	28131
808.749	28379
808.891	28379
809.033	28474
809.174	28531
809.316	28371
809.458	28352
809.6	28325
809.741	28436
809.883	28611
810.025	28634
810.166	28653
810.308	28645
810.45	28596
810.591	28516
810.733	28386
810.875	28265
811.016	28204
811.158	28375
811.299	28432
811.441	28508
811.582	28409
811.724	28356
811.865	28276
812.007	28306
812.148	28268
812.29	28390
812.431	28440
812.573	28725
812.714	28793
812.855	28957
812.997	28946
813.138	29162
813.279	28862
813.421	28752
813.562	28755
813.703	28828
813.845	28584
813.986	28268
814.127	28139
814.268	28040
814.41	28067
814.551	28021
814.692	28101
814.833	27922
814.974	28051
815.115	27983
815.256	27987
815.397	27918
815.539	27846
815.68	27956
815.821	27854
815.962	27861
816.103	27857
816.244	27637
816.385	27648
816.526	27606
816.666	27530
816.807	27348
816.948	27439
817.089	27454
817.23	27283
817.371	27340
817.512	27260
817.653	27382
817.793	27264
817.934	27264
818.075	27454
818.216	27233
818.356	27310
818.497	27108
818.638	27062
818.778	27039
818.919	27043
819.06	27131
819.2	27127
819.341	27450
819.481	27340
819.622	27466
819.762	27747
819.903	27690
820.043	27542
820.184	27603
820.324	27545
820.465	27515
820.605	27427
820.746	27458
820.886	27203
821.026	27492
821.167	27481
821.307	27549
821.447	27348
821.588	27214
821.728	27203
821.868	27096
822.008	26937
822.149	26937
822.289	26682
822.429	26564
822.569	26533
822.709	26560
822.849	26339
822.99	26278
823.13	26381
823.27	26267
823.41	26001
823.55	26187
823.69	26153
823.83	26210
823.97	26130
824.11	25978
824.25	25909
824.389	25966
824.529	26126
824.669	26005
824.809	26096
824.949	26225
825.089	26088
825.228	25974
825.368	25788
825.508	25757
825.648	25894
825.787	25955
825.927	25833
826.067	25894
826.206	25791
826.346	25761
826.485	25944
826.625	25826
826.765	25898
826.904	25833
827.044	25643
827.183	25624
827.323	25643
827.462	25567
827.601	25670
827.741	25556
827.88	25590
828.02	25350
828.159	25514
828.298	25525
828.437	25567
828.577	25567
828.716	25696
828.855	25445
828.994	25251
829.134	25301
829.273	25251
829.412	25259
829.551	25320
829.69	25080
829.829	25232
829.968	25434
830.107	25274
830.246	25259
830.385	25255
830.524	25076
830.663	24947
830.802	24859
830.941	24928
831.08	24825
831.219	25019
831.357	24909
831.496	24935
831.635	24943
831.774	24681
831.913	24757
832.051	24608
832.19	24646
832.329	24650
832.467	24585
832.606	24418
832.744	24593
832.883	24361
833.022	24513
833.16	24604
833.299	24574
833.437	24654
833.576	24563
833.714	24612
833.852	24700
833.991	24738
834.129	24692
834.267	24650
834.406	24620
834.544	24639
834.682	24757
834.821	24521
834.959	24764
835.097	24486
835.235	24627
835.373	24483
835.511	24555
835.65	24384
835.788	24426
835.926	24323
836.064	24243
836.202	24289
836.34	24319
836.478	24502
836.615	24422
836.753	24418
836.891	24452
837.029	24422
837.167	24311
837.305	24300
837.443	24247
837.58	24262
837.718	24266
837.856	24216
837.993	24125
838.131	24304
838.269	24140
838.406	24163
838.544	24079
838.681	23927
838.819	23863
838.956	23764
839.094	23756
839.231	23752
839.369	23863
839.506	24106
839.643	23958
839.781	23779
839.918	23714
840.055	23634
840.193	23707
840.33	23661
840.467	23718
840.604	23752
840.742	23813
840.879	23592
841.016	23600
841.153	23471
841.29	23695
841.427	23600
841.564	23570
841.701	23630
841.838	23490
841.975	23600
842.112	23634
842.249	23433
842.385	23402
842.522	23611
842.659	23429
842.796	23360
842.933	23322
843.069	23372
843.206	23376
843.343	23376
843.479	23379
843.616	23372
843.752	23227
843.889	23280
844.025	23315
844.162	23109
844.298	23315
844.435	23166
844.571	23083
844.708	23181
844.844	23383
844.98	23140
845.117	23261
845.253	23159
845.389	23022
845.525	23003
845.661	23025
845.798	22839
845.934	22980
846.07	22946
846.206	22934
846.342	23029
846.478	22957
846.614	22736
846.75	22557
846.886	22500
847.022	22683
847.158	22656
847.294	22527
847.429	22611
847.565	22672
847.701	22881
847.837	22348
847.972	22382
848.108	22329
848.244	22436
848.379	22192
848.515	22200
848.65	22257
848.786	22185
848.921	22112
849.057	22371
849.192	22333
849.328	22204
849.463	22181
849.598	22211
849.734	22051
849.869	22097
850.004	21968
850.14	21994
850.275	21975
850.41	21869
850.545	21998
850.68	21922
850.815	21972
850.95	22006
851.085	22162
851.22	21994
851.355	22032
851.49	22006
851.625	21922
851.76	22040
851.895	21846
852.03	21831
852.165	22002
852.299	22055
852.434	22040
852.569	22044
852.703	21998
852.838	22097
852.973	22192
853.107	22109
853.242	21926
853.376	21808
853.511	21755
853.645	21762
853.78	22013
853.914	21876
854.048	21724
854.183	21842
854.317	21861
854.451	21949
854.585	21945
854.72	21728
854.854	21823
854.988	21713
855.122	21876
855.256	21572
855.39	21743
855.524	21903
855.658	21793
855.792	21808
855.926	21854
856.06	21857
856.194	21835
856.327	21808
856.461	21739
856.595	21759
856.729	21793
856.862	21930
856.996	21785
857.13	21846
857.263	21987
857.397	21926
857.53	21842
857.664	21759
857.797	21854
857.931	21854
858.064	21770
858.197	21869
858.331	21911
858.464	21808
858.597	21785
858.731	21724
858.864	21838
858.997	21690
859.13	21823
859.263	21778
859.396	21888
859.529	21831
859.662	21732
859.795	21819
859.928	21789
860.061	22036
860.194	21968
860.327	21861
860.46	21793
860.592	21983
860.725	22101
860.858	21907
860.99	21850
861.123	21686
861.256	21739
861.388	21812
861.521	22481
861.653	21656
861.786	21690
861.918	21751
862.05	21709
862.183	21717
862.315	21774
862.447	21770
862.58	21663
862.712	21618
862.844	21496
862.976	21511
863.108	21496
863.24	21964
863.372	21412
863.504	21450
863.636	21515
863.768	21610
863.9	21447
864.032	21420
864.164	21405
864.296	21561
864.428	21610
864.559	21568
864.691	21504
864.823	21431
864.954	21462
865.086	21359
865.217	21435
865.349	21302
865.48	21367
865.612	21340
865.743	21477
865.875	21412
866.006	21283
866.137	21367
866.269	21511
866.4	21534
866.531	21401
866.662	21214
866.793	21370
866.924	21378
867.055	21367
867.186	21340
867.317	21233
867.448	21294
867.579	21203
867.71	21272
867.841	21291
867.972	21260
868.103	21359
868.233	21294
868.364	21439
868.495	21416
868.625	21393
868.756	21652
868.886	21462
869.017	21496
869.147	21732
869.278	21679
869.408	21549
869.539	21583
869.669	21694
869.799	21610
869.929	21690
870.06	21652
870.19	21911
870.32	21816
870.45	21915
870.58	22021
870.71	22101
870.84	22101
870.97	21949
871.1	21869
871.23	22147
871.36	22192
871.489	22185
871.619	22181
871.749	22234
871.879	22162
872.008	22310
872.138	22112
872.267	22150
872.397	21998
872.526	22025
872.656	22097
872.785	21975
872.915	22219
873.044	22265
873.173	22185
873.303	22356
873.432	22363
873.561	22291
873.69	22082
873.819	22204
873.948	22196
874.077	22249
874.206	22147
874.335	22101
874.464	22306
874.593	22428
874.722	22394
874.851	22470
874.979	22421
875.108	22379
875.237	22379
875.365	22303
875.494	22390
875.623	22607
875.751	22485
875.88	22348
876.008	22569
876.136	22588
876.265	22774
876.393	22915
876.521	22896
876.65	22946
876.778	22820
876.906	22778
877.034	22660
877.162	22599
877.29	22683
877.418	22812
877.546	22839
877.674	22782
877.802	22729
877.93	22698
878.058	22771
878.185	22580
878.313	22649
878.441	22694
878.568	22573
878.696	22694
878.824	22771
878.951	22858
879.079	22904
879.206	23052
879.333	22919
879.461	22752
879.588	22797
879.715	23003
879.842	23033
879.97	22904
880.097	22641
880.224	22706
880.351	22569
880.478	22588
880.605	22519
880.732	22683
880.859	22752
880.986	22508
881.112	22656
881.239	22356
881.366	22325
881.493	22276
881.619	22093
881.746	22169
881.872	22238
881.999	22021
882.125	22051
882.252	22219
882.378	22029
882.505	22249
882.631	22013
882.757	21724
882.883	21899
883.01	21793
883.136	21766
883.262	21701
883.388	21671
883.514	21816
883.64	21819
883.766	21694
883.892	21576
884.018	21595
884.143	21736
884.269	21888
884.395	21576
884.52	21462
884.646	21458
884.772	21355
884.897	21325
885.023	21428
885.148	21545
885.274	21652
885.399	21618
885.524	21336
885.65	21397
885.775	21485
885.9	21477
886.025	21633
886.15	21488
886.275	21405
886.4	21344
886.525	21351
886.65	21359
886.775	21386
886.9	21568
887.025	21675
887.149	21363
887.274	21370
887.399	21226
887.523	21264
887.648	21275
887.773	21237
887.897	21294
888.021	21233
888.146	21154
888.27	21351
888.395	21306
888.519	21302
888.643	21218
888.767	21275
888.891	21222
889.015	21081
889.139	21214
889.263	21047
889.387	21165
889.511	21214
889.635	21207
889.759	20887
889.883	20895
890.006	21112
890.13	21214
890.254	21074
890.377	21036
890.501	20804
890.624	20823
890.748	20864
890.871	20659
890.995	20651
891.118	20549
891.241	20564
891.364	20587
891.488	20678
891.611	20594
891.734	20724
891.857	20823
891.98	20564
892.103	20659
892.226	20606
892.349	20674
892.471	20465
892.594	20549
892.717	20590
892.839	20594
892.962	20583
893.085	20556
893.207	20495
893.33	20408
893.452	20389
893.575	20640
893.697	20514
893.819	20712
893.941	20655
894.064	20613
894.186	20480
894.308	20396
894.43	20583
894.552	20667
894.674	20708
894.796	20423
894.918	20541
895.04	20438
895.161	20575
895.283	20560
895.405	20492
895.526	20526
895.648	20579
895.769	20457
895.891	20598
896.012	20644
896.134	20644
896.255	20469
896.376	20526
896.498	20480
896.619	20568
896.74	20434
896.861	20644
896.982	20804
897.103	20979
897.224	20724
897.345	20796
897.466	20640
897.587	20667
897.708	20830
897.828	20811
897.949	20533
898.07	20613
898.19	20769
898.311	20823
898.431	20651
898.552	20758
898.672	20697
898.792	20712
898.913	20720
899.033	20632
899.153	20484
899.273	20393
899.393	20530
899.513	20663
899.633	20560
899.753	20587
899.873	20404
899.993	20541
900.113	20400
900.232	20526
900.352	20381
900.472	20301
900.591	20180
900.711	20313
900.83	20229
900.95	20290
901.069	20275
901.189	20092
901.308	19883
901.427	19894
901.546	19788
901.665	19978
901.784	19917
901.904	19715
902.023	19651
902.141	19426
902.26	19403
902.379	19369
902.498	19285
902.617	19384
902.735	19472
902.854	19187
902.973	19308
903.091	19027
903.21	19099
903.328	18924
903.446	18878
903.565	18886
903.683	18875
903.801	18669
903.919	18798
904.038	18753
904.156	18563
904.274	18570
904.392	18570
904.51	18547
904.627	18544
904.745	18563
904.863	18665
904.981	18395
905.098	18330
905.216	18296
905.334	18357
905.451	18197
905.569	18224
905.686	18239
905.803	18270
905.921	18072
906.038	18060
906.155	17992
906.272	18022
906.389	17954
906.506	17851
906.623	17828
906.74	17855
906.857	17710
906.974	17687
907.091	17836
907.208	17832
907.324	17771
907.441	17596
907.557	17490
907.674	17512
907.79	17395
907.907	17356
908.023	17486
908.139	17440
908.256	17425
908.372	17379
908.488	17383
908.604	17136
908.72	17250
908.836	17261
908.952	17086
909.068	17284
909.184	17288
909.3	17231
909.415	17124
909.531	17216
909.647	16892
909.762	16900
909.878	16934
909.993	16923
910.108	16889
910.224	16831
910.339	16797
910.454	16744
910.57	16691
910.685	16607
910.8	16915
910.915	16847
911.03	16660
911.145	16546
911.259	16519
911.374	16379
911.489	16363
911.604	16341
911.718	16242
911.833	16169
911.947	16169
912.062	16112
912.176	16238
912.291	16226
912.405	16249
912.519	16428
912.633	16489
912.748	16242
912.862	16082
912.976	16124
913.09	15941
913.204	16010
913.318	16177
913.431	16097
913.545	16139
913.659	16093
913.772	16006
913.886	15789
914	15846
914.113	15907
914.226	16013
914.34	15808
914.453	15747
914.566	15861
914.68	15778
914.793	15747
914.906	15488
915.019	15473
915.132	15504
915.245	15435
915.358	15454
915.47	15393
915.583	15485
915.696	15443
915.809	15542
915.921	15561
916.034	15401
916.146	15233
916.259	15378
916.371	15359
916.483	15382
916.595	15340
916.708	15233
916.82	15256
916.932	15173
917.044	15211
917.156	15222
917.268	15131
917.38	15104
917.491	15138
917.603	15146
917.715	15157
917.826	15222
917.938	15062
918.049	14925
918.161	14941
918.272	15146
918.384	15199
918.495	15028
918.606	14891
918.717	14743
918.828	14861
918.939	14956
919.05	14731
919.161	14785
919.272	14583
919.383	14625
919.494	14815
919.604	15039
919.715	14743
919.826	14708
919.936	14781
920.047	14899
920.157	14792
920.267	14921
920.378	14857
920.488	14838
920.598	14895
920.708	15154
920.818	14994
920.928	14933
921.038	15058
921.148	15074
921.258	14724
921.368	14655
921.477	14644
921.587	14465
921.697	14476
921.806	14533
921.916	14377
922.025	14210
922.134	14134
922.244	14115
922.353	14195
922.462	14012
922.571	14054
922.68	13791
922.789	13818
922.898	13826
923.007	13666
923.116	13830
923.224	13742
923.333	13757
923.442	13567
923.55	13605
923.659	13681
923.767	13685
923.876	13563
923.984	13578
924.092	13476
924.201	13605
924.309	13605
924.417	13525
924.525	13407
924.633	13468
924.741	14191
924.849	13312
924.956	13373
925.064	13297
925.172	13206
925.279	13285
925.387	13320
925.494	13228
925.602	13324
925.709	13266
925.816	13122
925.924	13145
926.031	13194
926.138	13164
926.245	13206
926.352	13110
926.459	13137
926.566	13198
926.673	13088
926.779	12935
926.886	12920
926.993	12829
927.099	12673
927.206	12684
927.312	12688
927.419	12730
927.525	12791
927.631	12829
927.737	12612
927.843	12650
927.95	12536
928.056	12521
928.162	12570
928.267	12574
928.373	13240
928.479	12662
928.585	12448
928.69	12448
928.796	12616
928.901	12517
929.007	12281
929.112	12353
929.218	12445
929.323	12384
929.428	12281
929.533	12456
929.638	12235
929.743	12194
929.848	12232
929.953	12235
930.058	12121
930.163	11961
930.267	11946
930.372	12197
930.477	11954
930.581	12270
930.685	12007
930.79	11882
930.894	11851
930.998	11821
931.103	11980
931.207	11566
931.311	11551
931.415	11482
931.519	11315
931.623	11269
