Data from test_V78500241_2020.txt Node
Date: Fri Mar 25 15:55:47 CST 2022
User: usil
Spectrometer: V785-0024
Trigger mode: 0
Integration Time (sec): 4.000000E-1
Scans to average: 1
Nonlinearity correction enabled: false
Boxcar width: 0
Storing dark spectrum: false
XAxis mode: Wavelengths
Number of Pixels in Spectrum: 1024
>>>>>Begin Spectral Data<<<<<
801.071	28493
801.214	28417
801.356	28242
801.499	28093
801.641	28013
801.783	28059
801.926	27956
802.068	28109
802.211	27888
802.353	27888
802.496	27785
802.638	27812
802.78	27637
802.923	27595
803.065	27587
803.208	27599
803.35	27724
803.492	27857
803.635	27823
803.777	27789
803.919	28002
804.061	28223
804.204	27895
804.346	27884
804.488	27774
804.63	27732
804.773	27759
804.915	27922
805.057	27998
805.199	27892
805.341	27930
805.483	28112
805.626	28192
805.768	27823
805.91	28093
806.052	28025
806.194	27975
806.336	28143
806.478	28032
806.62	27975
806.762	28177
806.904	28413
807.046	28474
807.188	28440
807.33	28413
807.472	28459
807.614	28478
807.756	28535
807.898	28295
808.04	28261
808.182	28337
808.324	28413
808.465	28436
808.607	28679
808.749	28637
808.891	28927
809.033	28961
809.174	28793
809.316	28683
809.458	28740
809.6	28679
809.741	28835
809.883	28831
810.025	28911
810.166	29079
810.308	28980
810.45	28949
810.591	28885
810.733	28672
810.875	28672
811.016	28713
811.158	28744
811.299	28790
811.441	28801
811.582	28934
811.724	28527
811.865	28546
812.007	28645
812.148	28710
812.29	28740
812.431	28847
812.573	29083
812.714	29200
812.855	29166
812.997	29246
813.138	29440
813.279	29375
813.421	29334
813.562	29094
813.703	29048
813.845	28869
813.986	28592
814.127	28519
814.268	28440
814.41	28417
814.551	28329
814.692	28337
814.833	28352
814.974	28272
815.115	28504
815.256	28291
815.397	28348
815.539	28287
815.68	28219
815.821	28078
815.962	28196
816.103	28173
816.244	27991
816.385	27888
816.526	28093
816.666	27926
816.807	27717
816.948	27724
817.089	27679
817.23	27686
817.371	27705
817.512	27793
817.653	27610
817.793	27747
817.934	27747
818.075	27599
818.216	27591
818.356	27587
818.497	27553
818.638	27564
818.778	27454
818.919	27416
819.06	27679
819.2	27667
819.341	27583
819.481	27751
819.622	27838
819.762	28070
819.903	27968
820.043	27914
820.184	27899
820.324	27922
820.465	27979
820.605	27854
820.746	27797
820.886	27648
821.026	27930
821.167	27717
821.307	27941
821.447	27816
821.588	27713
821.728	27496
821.868	27291
822.008	27260
822.149	27214
822.289	27184
822.429	26929
822.569	26815
822.709	26918
822.849	26762
822.99	26750
823.13	26686
823.27	26640
823.41	26571
823.55	26309
823.69	26370
823.83	26377
823.97	26434
824.11	26225
824.25	26393
824.389	26492
824.529	26400
824.669	26332
824.809	26609
824.949	26362
825.089	26450
825.228	26446
825.368	26305
825.508	26187
825.648	26282
825.787	26206
825.927	26267
826.067	26195
826.206	26111
826.346	26210
826.485	26290
826.625	26199
826.765	26328
826.904	26294
827.044	25944
827.183	26050
827.323	25791
827.462	25913
827.601	25966
827.741	25906
827.88	26016
828.02	25947
828.159	25887
828.298	25951
828.437	25989
828.577	25791
828.716	25951
828.855	25875
828.994	25575
829.134	25575
829.273	25639
829.412	25647
829.551	25605
829.69	25666
829.829	25666
829.968	25700
830.107	25742
830.246	25632
830.385	25674
830.524	25468
830.663	25369
830.802	25346
830.941	25110
831.08	25122
831.219	25240
831.357	25422
831.496	25426
831.635	25221
831.774	25145
831.913	25179
832.051	24951
832.19	25080
832.329	24977
832.467	24837
832.606	24970
832.744	24932
832.883	24833
833.022	24783
833.16	24779
833.299	24825
833.437	24856
833.576	24962
833.714	25000
833.852	25050
833.991	25038
834.129	25057
834.267	25202
834.406	25023
834.544	24745
834.682	24966
834.821	25050
834.959	25099
835.097	24890
835.235	24970
835.373	24863
835.511	25008
835.65	24909
835.788	24825
835.926	24620
836.064	24486
836.202	24559
836.34	24890
836.478	24837
836.615	24776
836.753	24776
836.891	24798
837.029	24700
837.167	24806
837.305	24669
837.443	24711
837.58	24593
837.718	24707
837.856	24829
837.993	24646
838.131	24566
838.269	24464
838.406	24483
838.544	24395
838.681	24365
838.819	24258
838.956	24053
839.094	24072
839.231	24148
839.369	24194
839.506	24551
839.643	24239
839.781	24091
839.918	23973
840.055	24007
840.193	24045
840.33	23912
840.467	23988
840.604	23996
840.742	24342
840.879	24030
841.016	23954
841.153	23851
841.29	24121
841.427	23832
841.564	24117
841.701	24026
841.838	24015
841.975	23939
842.112	24026
842.249	23722
842.385	23809
842.522	23843
842.659	23904
842.796	23665
842.933	23840
843.069	23642
843.206	23680
843.343	23817
843.479	23680
843.616	23714
843.752	23535
843.889	23528
844.025	23737
844.162	23478
844.298	23604
844.435	23524
844.571	23497
844.708	23539
844.844	23710
844.98	23737
845.117	23676
845.253	23402
845.389	23440
845.525	23406
845.661	23436
845.798	23250
845.934	23280
846.07	23136
846.206	23376
846.342	23277
846.478	23216
846.614	23121
846.75	22938
846.886	22968
847.022	22972
847.158	23056
847.294	23033
847.429	23075
847.565	22923
847.701	23223
847.837	22748
847.972	22698
848.108	22736
848.244	22725
848.379	22478
848.515	22470
848.65	22577
848.786	22538
848.921	22554
849.057	22611
849.192	22664
849.328	22573
849.463	22493
849.598	22546
849.734	22432
849.869	22371
850.004	22314
850.14	22322
850.275	22363
850.41	22162
850.545	22185
850.68	22196
850.815	22341
850.95	22363
851.085	22462
851.22	22409
851.355	22531
851.49	22261
851.625	22257
851.76	22322
851.895	22299
852.03	22181
852.165	22341
852.299	22284
852.434	22348
852.569	22394
852.703	22443
852.838	22314
852.973	22474
853.107	22459
853.242	22272
853.376	22006
853.511	22067
853.645	22006
853.78	22223
853.914	22135
854.048	22116
854.183	22177
854.317	22070
854.451	22348
854.585	22040
854.72	22006
854.854	22204
854.988	22097
855.122	22207
855.256	22086
855.39	22070
855.524	22196
855.658	22204
855.792	22253
855.926	22116
856.06	22234
856.194	22204
856.327	22116
856.461	22086
856.595	22162
856.729	22063
856.862	22219
856.996	22029
857.13	22261
857.263	22249
857.397	22223
857.53	22188
857.664	22223
857.797	22284
857.931	22215
858.064	22261
858.197	22272
858.331	22086
858.464	22154
858.597	22055
858.731	22067
858.864	22044
858.997	22070
859.13	22101
859.263	22135
859.396	22124
859.529	22200
859.662	22169
859.795	22158
859.928	22120
860.061	22375
860.194	22363
860.327	22211
860.46	22135
860.592	22306
860.725	22215
860.858	22409
860.99	22219
861.123	21926
861.256	22055
861.388	22169
861.521	22854
861.653	21953
861.786	21949
861.918	21865
862.05	22124
862.183	21994
862.315	22032
862.447	21991
862.58	22002
862.712	21816
862.844	21747
862.976	21907
863.108	21911
863.24	22238
863.372	21835
863.504	21797
863.636	21797
863.768	21793
863.9	21907
864.032	21762
864.164	21865
864.296	21812
864.428	22021
864.559	21823
864.691	21941
864.823	21816
864.954	21876
865.086	21755
865.217	21785
865.349	21652
865.48	21800
865.612	21766
865.743	21812
865.875	21793
866.006	21732
866.137	21728
866.269	21667
866.4	21667
866.531	21739
866.662	21736
866.793	21679
866.924	21720
867.055	21770
867.186	21629
867.317	21549
867.448	21644
867.579	21663
867.71	21652
867.841	21530
867.972	21644
868.103	21629
868.233	21637
868.364	21690
868.495	21861
868.625	21983
868.756	21998
868.886	21770
869.017	21831
869.147	21987
869.278	21949
869.408	21876
869.539	21903
869.669	21907
869.799	21991
869.929	21953
870.06	22063
870.19	22154
870.32	22299
870.45	22291
870.58	22211
870.71	22276
870.84	22405
870.97	22211
871.1	22280
871.23	22523
871.36	22417
871.489	22337
871.619	22481
871.749	22455
871.879	22466
872.008	22565
872.138	22504
872.267	22519
872.397	22295
872.526	22360
872.656	22386
872.785	22440
872.915	22577
873.044	22626
873.173	22516
873.303	22645
873.432	22649
873.561	22698
873.69	22538
873.819	22588
873.948	22538
874.077	22569
874.206	22485
874.335	22485
874.464	22622
874.593	22831
874.722	22561
874.851	22839
874.979	22793
875.108	22759
875.237	22698
875.365	22580
875.494	22908
875.623	22702
875.751	22630
875.88	22824
876.008	22812
876.136	22938
876.265	23147
876.393	23242
876.521	23239
876.65	23273
876.778	23094
876.906	23067
877.034	22896
877.162	23121
877.29	23018
877.418	23204
877.546	23124
877.674	23048
877.802	23052
877.93	23075
878.058	23025
878.185	22930
878.313	23006
878.441	23143
878.568	22915
878.696	23075
878.824	23083
878.951	23147
879.079	23250
879.206	23467
879.333	23296
879.461	23197
879.588	23193
879.715	23341
879.842	23296
879.97	23094
880.097	22881
880.224	22930
880.351	22976
880.478	22881
880.605	22786
880.732	22885
880.859	23159
880.986	22995
881.112	22908
881.239	22763
881.366	22694
881.493	22573
881.619	22379
881.746	22474
881.872	22341
881.999	22451
882.125	22432
882.252	22390
882.378	22421
882.505	22561
882.631	22398
882.757	22143
882.883	22253
883.01	22196
883.136	21998
883.262	21968
883.388	22010
883.514	22105
883.64	22207
883.766	21949
883.892	21880
884.018	21956
884.143	22059
884.269	22192
884.395	21918
884.52	21778
884.646	21804
884.772	21709
884.897	21625
885.023	21755
885.148	21861
885.274	21884
885.399	21922
885.524	21793
885.65	21918
885.775	21770
885.9	21705
886.025	21899
886.15	21823
886.275	21785
886.4	21644
886.525	21728
886.65	21523
886.775	21686
886.9	21781
887.025	21880
887.149	21755
887.274	21572
887.399	21511
887.523	21492
887.648	21580
887.773	21523
887.897	21553
888.021	21530
888.146	21473
888.27	21656
888.395	21644
888.519	21720
888.643	21572
888.767	21663
888.891	21454
889.015	21279
889.139	21298
889.263	21355
889.387	21329
889.511	21515
889.635	21473
889.759	21363
889.883	21233
890.006	21386
890.13	21526
890.254	21264
890.377	21298
890.501	21104
890.624	21058
890.748	21043
890.871	21070
890.995	20769
891.118	20830
891.241	20861
891.364	20853
891.488	21070
891.611	20906
891.734	20895
891.857	20979
891.98	20895
892.103	20948
892.226	20914
892.349	20754
892.471	20682
892.594	20899
892.717	20838
892.839	20804
892.962	20895
893.085	20826
893.207	20697
893.33	20651
893.452	20811
893.575	20796
893.697	20674
893.819	20902
893.941	20994
894.064	20857
894.186	20686
894.308	20663
894.43	20960
894.552	20982
894.674	20887
894.796	20659
894.918	20773
895.04	20792
895.161	20815
895.283	20861
895.405	20750
895.526	20800
895.648	20708
895.769	20826
895.891	20792
896.012	20792
896.134	20910
896.255	20746
896.376	20826
896.498	20830
896.619	20842
896.74	20731
896.861	20811
896.982	21154
897.103	21146
897.224	21028
897.345	21024
897.466	21062
897.587	20975
897.708	21024
897.828	21028
897.949	20826
898.07	20686
898.19	20918
898.311	21032
898.431	20982
898.552	21020
898.672	21081
898.792	20864
898.913	20994
899.033	20918
899.153	20845
899.273	20746
899.393	20739
899.513	20781
899.633	20659
899.753	20762
899.873	20636
899.993	20712
900.113	20613
900.232	20602
900.352	20674
900.472	20526
900.591	20522
900.711	20518
900.83	20434
900.95	20594
901.069	20598
901.189	20374
901.308	20199
901.427	19997
901.546	20077
901.665	20035
901.784	20111
901.904	19947
902.023	19795
902.141	19620
902.26	19620
902.379	19727
902.498	19537
902.617	19529
902.735	19628
902.854	19468
902.973	19487
903.091	19289
903.21	19285
903.328	19213
903.446	19107
903.565	19015
903.683	19133
903.801	18962
903.919	19088
904.038	18932
904.156	18760
904.274	18932
904.392	18840
904.51	18749
904.627	18722
904.745	18795
904.863	18783
904.981	18540
905.098	18494
905.216	18452
905.334	18441
905.451	18418
905.569	18532
905.686	18380
905.803	18521
905.921	18296
906.038	18315
906.155	18266
906.272	18129
906.389	18041
906.506	17942
906.623	17984
906.74	17950
906.857	17809
906.974	17935
907.091	18060
907.208	18106
907.324	17916
907.441	17870
907.557	17748
907.674	17699
907.79	17638
907.907	17608
908.023	17699
908.139	17741
908.256	17558
908.372	17570
908.488	17589
908.604	17421
908.72	17436
908.836	17372
908.952	17360
909.068	17417
909.184	17520
909.3	17448
909.415	17490
909.531	17364
909.647	17143
909.762	17121
909.878	17048
909.993	17071
910.108	17170
910.224	17060
910.339	17064
910.454	16908
910.57	17037
910.685	16816
910.8	17147
910.915	16980
911.03	16984
911.145	16679
911.259	16767
911.374	16740
911.489	16672
911.604	16698
911.718	16363
911.833	16459
911.947	16280
912.062	16333
912.176	16363
912.291	16398
912.405	16481
912.519	16607
912.633	16497
912.748	16489
912.862	16417
912.976	16295
913.09	16112
913.204	16166
913.318	16329
913.431	16333
913.545	16284
913.659	16348
913.772	16158
913.886	16021
914	15949
914.113	16105
914.226	16249
914.34	16139
914.453	15869
914.566	15964
914.68	15869
914.793	15842
914.906	15644
915.019	15671
915.132	15542
915.245	15679
915.358	15656
915.47	15549
915.583	15667
915.696	15644
915.809	15690
915.921	15743
916.034	15564
916.146	15538
916.259	15492
916.371	15629
916.483	15584
916.595	15443
916.708	15462
916.82	15500
916.932	15408
917.044	15321
917.156	15382
917.268	15283
917.38	15355
917.491	15233
917.603	15283
917.715	15386
917.826	15351
917.938	15199
918.049	15055
918.161	15218
918.272	15241
918.384	15329
918.495	15230
918.606	15077
918.717	15001
918.828	15062
918.939	14990
919.05	14864
919.161	14956
919.272	14781
919.383	14872
919.494	14937
919.604	15252
919.715	14925
919.826	14815
919.936	14902
920.047	14975
920.157	14899
920.267	15055
920.378	15017
920.488	14944
920.598	15135
920.708	15291
920.818	15051
920.928	15104
921.038	15241
921.148	15249
921.258	14876
921.368	14758
921.477	14724
921.587	14674
921.697	14549
921.806	14788
921.916	14522
922.025	14404
922.134	14385
922.244	14286
922.353	14381
922.462	14138
922.571	14180
922.68	14081
922.789	14031
922.898	14027
923.007	13925
923.116	13967
923.224	13921
923.333	13890
923.442	13864
923.55	13845
923.659	13765
923.767	13818
923.876	13693
923.984	13837
924.092	13658
924.201	13780
924.309	13689
924.417	13727
924.525	13624
924.633	13582
924.741	14393
924.849	13445
924.956	13575
925.064	13407
925.172	13320
925.279	13285
925.387	13327
925.494	13411
925.602	13514
925.709	13369
925.816	13240
925.924	13339
926.031	13343
926.138	13282
926.245	13335
926.352	13156
926.459	13343
926.566	13316
926.673	13240
926.779	13126
926.886	13042
926.993	12901
927.099	12875
927.206	12840
927.312	12901
927.419	12916
927.525	12913
927.631	12962
927.737	12848
927.843	12810
927.95	12639
928.056	12692
928.162	12696
928.267	12806
928.373	13346
928.479	12810
928.585	12551
928.69	12642
928.796	12734
928.901	12555
929.007	12429
929.112	12650
929.218	12532
929.323	12536
929.428	12544
929.533	12574
929.638	12391
929.743	12437
929.848	12494
929.953	12338
930.058	12182
930.163	12098
930.267	12125
930.372	12251
930.477	12133
930.581	12258
930.685	12102
930.79	12045
930.894	12079
930.998	11946
931.103	12060
931.207	11802
931.311	11653
931.415	11627
931.519	11360
931.623	11364
