Data from test_V78500241_3092.txt Node
Date: Fri Mar 25 16:03:13 CST 2022
User: usil
Spectrometer: V785-0024
Trigger mode: 0
Integration Time (sec): 4.000000E-1
Scans to average: 1
Nonlinearity correction enabled: false
Boxcar width: 0
Storing dark spectrum: false
XAxis mode: Wavelengths
Number of Pixels in Spectrum: 1024
>>>>>Begin Spectral Data<<<<<
801.071	28516
801.214	28466
801.356	28124
801.499	28181
801.641	28143
801.783	28086
801.926	28139
802.068	27994
802.211	28070
802.353	28063
802.496	27861
802.638	27724
802.78	27800
802.923	27542
803.065	27496
803.208	27648
803.35	27850
803.492	27972
803.635	27949
803.777	27876
803.919	27903
804.061	28268
804.204	28097
804.346	27873
804.488	27926
804.63	28017
804.773	27918
804.915	27926
805.057	28329
805.199	28109
805.341	28029
805.483	28013
805.626	28242
805.768	27994
805.91	28177
806.052	28154
806.194	28101
806.336	28398
806.478	28067
806.62	28135
806.762	28268
806.904	28284
807.046	28656
807.188	28577
807.33	28519
807.472	28550
807.614	28481
807.756	28622
807.898	28459
808.04	28276
808.182	28443
808.324	28462
808.465	28618
808.607	28710
808.749	28828
808.891	28858
809.033	28991
809.174	28953
809.316	28820
809.458	28839
809.6	28733
809.741	28900
809.883	28862
810.025	29052
810.166	29128
810.308	29086
810.45	28984
810.591	28919
810.733	28854
810.875	28713
811.016	28630
811.158	28618
811.299	28824
811.441	28934
811.582	28919
811.724	28847
811.865	28687
812.007	28824
812.148	28820
812.29	28843
812.431	29033
812.573	29124
812.714	29223
812.855	29280
812.997	29436
813.138	29596
813.279	29383
813.421	29398
813.562	29311
813.703	29025
813.845	29060
813.986	28774
814.127	28790
814.268	28607
814.41	28535
814.551	28436
814.692	28588
814.833	28512
814.974	28284
815.115	28596
815.256	28211
815.397	28413
815.539	28455
815.68	28303
815.821	28280
815.962	28253
816.103	28344
816.244	28211
816.385	28010
816.526	28188
816.666	27876
816.807	27781
816.948	27880
817.089	27717
817.23	27842
817.371	27812
817.512	27759
817.653	27701
817.793	27774
817.934	27869
818.075	27789
818.216	27842
818.356	27850
818.497	27743
818.638	27431
818.778	27606
818.919	27637
819.06	27625
819.2	27675
819.341	27888
819.481	27785
819.622	27945
819.762	28143
819.903	28272
820.043	27991
820.184	28006
820.324	27861
820.465	28029
820.605	27972
820.746	27922
820.886	27823
821.026	27918
821.167	27857
821.307	27903
821.447	27972
821.588	27759
821.728	27606
821.868	27408
822.008	27344
822.149	27264
822.289	27291
822.429	27051
822.569	26975
822.709	27047
822.849	26769
822.99	26891
823.13	26724
823.27	26727
823.41	26632
823.55	26594
823.69	26545
823.83	26617
823.97	26621
824.11	26488
824.25	26374
824.389	26366
824.529	26461
824.669	26434
824.809	26575
824.949	26560
825.089	26701
825.228	26598
825.368	26267
825.508	26282
825.648	26328
825.787	26366
825.927	26457
826.067	26389
826.206	26259
826.346	26351
826.485	26343
826.625	26320
826.765	26453
826.904	26434
827.044	26180
827.183	26115
827.323	26008
827.462	25974
827.601	26115
827.741	26103
827.88	26122
828.02	26020
828.159	26050
828.298	26062
828.437	26054
828.577	25944
828.716	26008
828.855	25944
828.994	25704
829.134	25715
829.273	25677
829.412	25613
829.551	25670
829.69	25788
829.829	25727
829.968	25921
830.107	25757
830.246	25681
830.385	25712
830.524	25582
830.663	25525
830.802	25597
830.941	25346
831.08	25392
831.219	25434
831.357	25438
831.496	25495
831.635	25312
831.774	25350
831.913	25255
832.051	25190
832.19	25004
832.329	25190
832.467	25202
832.606	25050
832.744	24939
832.883	25031
833.022	24890
833.16	25057
833.299	25164
833.437	25110
833.576	25217
833.714	25050
833.852	25145
833.991	25183
834.129	25206
834.267	25171
834.406	25110
834.544	25095
834.682	25122
834.821	25008
834.959	25198
835.097	25057
835.235	25202
835.373	25069
835.511	25164
835.65	24916
835.788	24905
835.926	24848
836.064	24711
836.202	24817
836.34	25008
836.478	25110
836.615	24878
836.753	24962
836.891	24970
837.029	24973
837.167	24795
837.305	24757
837.443	24779
837.58	24726
837.718	24848
837.856	24806
837.993	24768
838.131	24757
838.269	24563
838.406	24639
838.544	24585
838.681	24380
838.819	24258
838.956	24270
839.094	24235
839.231	24232
839.369	24365
839.506	24654
839.643	24353
839.781	24330
839.918	24041
840.055	24235
840.193	24216
840.33	24064
840.467	24197
840.604	24098
840.742	24300
840.879	23992
841.016	24011
841.153	23984
841.29	24266
841.427	24098
841.564	24079
841.701	24083
841.838	24007
841.975	24030
842.112	24129
842.249	23916
842.385	24018
842.522	24098
842.659	23950
842.796	23889
842.933	23961
843.069	23726
843.206	23859
843.343	23923
843.479	23863
843.616	23893
843.752	23672
843.889	23737
844.025	23840
844.162	23604
844.298	23729
844.435	23714
844.571	23581
844.708	23748
844.844	23707
844.98	23760
845.117	23722
845.253	23672
845.389	23452
845.525	23512
845.661	23493
845.798	23436
845.934	23455
846.07	23261
846.206	23471
846.342	23482
846.478	23372
846.614	23178
846.75	22995
846.886	23121
847.022	23162
847.158	23151
847.294	23102
847.429	23212
847.565	22911
847.701	23345
847.837	22930
847.972	22744
848.108	22953
848.244	22896
848.379	22729
848.515	22801
848.65	22721
848.786	22672
848.921	22618
849.057	22885
849.192	22664
849.328	22866
849.463	22592
849.598	22691
849.734	22626
849.869	22527
850.004	22584
850.14	22405
850.275	22459
850.41	22508
850.545	22432
850.68	22527
850.815	22428
850.95	22546
851.085	22653
851.22	22577
851.355	22497
851.49	22341
851.625	22421
851.76	22424
851.895	22360
852.03	22481
852.165	22440
852.299	22474
852.434	22485
852.569	22462
852.703	22485
852.838	22557
852.973	22618
853.107	22596
853.242	22367
853.376	22253
853.511	22181
853.645	22386
853.78	22386
853.914	22352
854.048	22211
854.183	22257
854.317	22284
854.451	22542
854.585	22382
854.72	22272
854.854	22265
854.988	22299
855.122	22284
855.256	22234
855.39	22303
855.524	22188
855.658	22287
855.792	22306
855.926	22337
856.06	22280
856.194	22291
856.327	22246
856.461	22135
856.595	22223
856.729	22344
856.862	22398
856.996	22344
857.13	22306
857.263	22432
857.397	22413
857.53	22196
857.664	22367
857.797	22382
857.931	22409
858.064	22356
858.197	22504
858.331	22150
858.464	22265
858.597	22196
858.731	22390
858.864	22276
858.997	22287
859.13	22234
859.263	22379
859.396	22371
859.529	22253
859.662	22329
859.795	22341
859.928	22432
860.061	22592
860.194	22573
860.327	22287
860.46	22272
860.592	22455
860.725	22371
860.858	22417
860.99	22382
861.123	22131
861.256	22238
861.388	22303
861.521	23060
861.653	22067
861.786	22055
861.918	22074
862.05	22276
862.183	22261
862.315	22162
862.447	22318
862.58	22204
862.712	21926
862.844	21968
862.976	22128
863.108	22128
863.24	22344
863.372	21911
863.504	22013
863.636	21907
863.768	22090
863.9	21945
864.032	21888
864.164	21953
864.296	22112
864.428	22097
864.559	22059
864.691	22059
864.823	21964
864.954	21873
865.086	21983
865.217	21949
865.349	21873
865.48	21884
865.612	21998
865.743	21941
865.875	21835
866.006	21880
866.137	21804
866.269	21873
866.4	21850
866.531	21835
866.662	21759
866.793	21865
866.924	21854
867.055	21835
867.186	21789
867.317	21755
867.448	21728
867.579	21774
867.71	21778
867.841	21709
867.972	21819
868.103	21846
868.233	21876
868.364	21895
868.495	21880
868.625	22044
868.756	22223
868.886	21998
869.017	22097
869.147	22082
869.278	22124
869.408	22029
869.539	22169
869.669	22078
869.799	22021
869.929	22200
870.06	22219
870.19	22424
870.32	22386
870.45	22485
870.58	22371
870.71	22531
870.84	22508
870.97	22421
871.1	22500
871.23	22626
871.36	22603
871.489	22516
871.619	22679
871.749	22691
871.879	22702
872.008	22854
872.138	22634
872.267	22679
872.397	22622
872.526	22432
872.656	22493
872.785	22455
872.915	22675
873.044	22748
873.173	22691
873.303	22778
873.432	22721
873.561	22843
873.69	22744
873.819	22839
873.948	22774
874.077	22759
874.206	22622
874.335	22588
874.464	22782
874.593	22946
874.722	22805
874.851	22961
874.979	22934
875.108	23052
875.237	23003
875.365	22790
875.494	22976
875.623	22862
875.751	22862
875.88	22938
876.008	23025
876.136	23071
876.265	23337
876.393	23516
876.521	23364
876.65	23353
876.778	23337
876.906	23231
877.034	23220
877.162	23258
877.29	23265
877.418	23197
877.546	23200
877.674	23235
877.802	23265
877.93	23189
878.058	23269
878.185	23166
878.313	23166
878.441	23143
878.568	23060
878.696	23140
878.824	23353
878.951	23132
879.079	23402
879.206	23471
879.333	23326
879.461	23299
879.588	23269
879.715	23277
879.842	23486
879.97	23315
880.097	23151
880.224	23185
880.351	22991
880.478	23056
880.605	23060
880.732	23060
880.859	23311
880.986	23025
881.112	23041
881.239	22930
881.366	22828
881.493	22713
881.619	22698
881.746	22634
881.872	22611
881.999	22573
882.125	22569
882.252	22668
882.378	22512
882.505	22687
882.631	22474
882.757	22329
882.883	22409
883.01	22367
883.136	22322
883.262	22139
883.388	22143
883.514	22405
883.64	22322
883.766	22010
883.892	22051
884.018	22173
884.143	22284
884.269	22249
884.395	21953
884.52	21979
884.646	21861
884.772	21892
884.897	21842
885.023	21964
885.148	22078
885.274	22040
885.399	21994
885.524	21831
885.65	21983
885.775	21903
885.9	21907
886.025	21998
886.15	22086
886.275	21880
886.4	21766
886.525	21915
886.65	21903
886.775	21808
886.9	21949
887.025	22211
887.149	21835
887.274	21682
887.399	21720
887.523	21629
887.648	21701
887.773	21705
887.897	21819
888.021	21583
888.146	21553
888.27	21846
888.395	21808
888.519	21774
888.643	21800
888.767	21736
888.891	21587
889.015	21477
889.139	21603
889.263	21561
889.387	21614
889.511	21701
889.635	21591
889.759	21367
889.883	21507
890.006	21458
890.13	21515
890.254	21416
890.377	21378
890.501	21138
890.624	21161
890.748	21207
890.871	21104
890.995	20990
891.118	20933
891.241	21070
891.364	21024
891.488	21161
891.611	21081
891.734	21108
891.857	21108
891.98	21074
892.103	21135
892.226	20960
892.349	20963
892.471	20811
892.594	20960
892.717	21032
892.839	20807
892.962	21036
893.085	21119
893.207	20845
893.33	20826
893.452	20849
893.575	20986
893.697	20853
893.819	21001
893.941	21104
894.064	21135
894.186	20842
894.308	20769
894.43	20899
894.552	21047
894.674	21066
894.796	20868
894.918	20872
895.04	20979
895.161	21020
895.283	20921
895.405	20929
895.526	20963
895.648	21001
895.769	20933
895.891	20883
896.012	20963
896.134	20933
896.255	20902
896.376	20834
896.498	21020
896.619	21043
896.74	20918
896.861	20979
896.982	21230
897.103	21313
897.224	21119
897.345	21207
897.466	21013
897.587	21135
897.708	21165
897.828	21173
897.949	21013
898.07	20883
898.19	21058
898.311	21169
898.431	21039
898.552	21055
898.672	21203
898.792	21180
898.913	21146
899.033	21024
899.153	20895
899.273	20823
899.393	20834
899.513	20899
899.633	20864
899.753	20868
899.873	20682
899.993	20807
900.113	20807
900.232	20762
900.352	20758
900.472	20617
900.591	20594
900.711	20602
900.83	20511
900.95	20606
901.069	20762
901.189	20419
901.308	20233
901.427	20248
901.546	20191
901.665	20256
901.784	20221
901.904	20130
902.023	19963
902.141	19757
902.26	19830
902.379	19811
902.498	19674
902.617	19628
902.735	19693
902.854	19632
902.973	19521
903.091	19438
903.21	19438
903.328	19365
903.446	19194
903.565	19213
903.683	19213
903.801	19027
903.919	19095
904.038	19114
904.156	18867
904.274	19023
904.392	18787
904.51	18779
904.627	18954
904.745	19008
904.863	19065
904.981	18711
905.098	18585
905.216	18570
905.334	18677
905.451	18669
905.569	18517
905.686	18646
905.803	18521
905.921	18445
906.038	18540
906.155	18361
906.272	18300
906.389	18270
906.506	18072
906.623	18053
906.74	18209
906.857	18003
906.974	18049
907.091	18083
907.208	18220
907.324	18068
907.441	18076
907.557	17927
907.674	17878
907.79	17699
907.907	17931
908.023	17885
908.139	17961
908.256	17687
908.372	17665
908.488	17745
908.604	17589
908.72	17589
908.836	17539
908.952	17566
909.068	17566
909.184	17668
909.3	17501
909.415	17516
909.531	17581
909.647	17322
909.762	17269
909.878	17250
909.993	17337
910.108	17216
910.224	17189
910.339	17170
910.454	17204
910.57	17025
910.685	16911
910.8	17261
910.915	17155
911.03	17079
911.145	16923
911.259	16771
911.374	16911
911.489	16809
911.604	16683
911.718	16561
911.833	16527
911.947	16538
912.062	16443
912.176	16660
912.291	16694
912.405	16523
912.519	16793
912.633	16733
912.748	16565
912.862	16500
912.976	16382
913.09	16360
913.204	16329
913.318	16489
913.431	16432
913.545	16489
913.659	16474
913.772	16348
913.886	16215
914	16173
914.113	16242
914.226	16188
914.34	16379
914.453	16063
914.566	16143
914.68	16010
914.793	16086
914.906	15804
915.019	15732
915.132	15698
915.245	15667
915.358	15816
915.47	15762
915.583	15728
915.696	15660
915.809	15846
915.921	15876
916.034	15682
916.146	15679
916.259	15705
916.371	15694
916.483	15728
916.595	15538
916.708	15629
916.82	15458
916.932	15553
917.044	15530
917.156	15538
917.268	15378
917.38	15488
917.491	15439
917.603	15416
917.715	15511
917.826	15466
917.938	15313
918.049	15264
918.161	15393
918.272	15431
918.384	15469
918.495	15302
918.606	15138
918.717	15104
918.828	15135
918.939	15161
919.05	14948
919.161	15138
919.272	14937
919.383	15039
919.494	15188
919.604	15237
919.715	15154
919.826	15108
919.936	15066
920.047	15222
920.157	15116
920.267	15203
920.378	15089
920.488	15032
920.598	15313
920.708	15397
920.818	15245
920.928	15230
921.038	15222
921.148	15351
921.258	15017
921.368	14929
921.477	14838
921.587	14823
921.697	14632
921.806	14933
921.916	14602
922.025	14480
922.134	14423
922.244	14419
922.353	14465
922.462	14313
922.571	14252
922.68	14123
922.789	14081
922.898	14069
923.007	13997
923.116	14161
923.224	14126
923.333	14058
923.442	13947
923.55	13894
923.659	13997
923.767	14008
923.876	13909
923.984	13906
924.092	13799
924.201	13849
924.309	13860
924.417	13849
924.525	13757
924.633	13811
924.741	14465
924.849	13632
924.956	13636
925.064	13426
925.172	13483
925.279	13415
925.387	13525
925.494	13483
925.602	13563
925.709	13502
925.816	13434
925.924	13441
926.031	13506
926.138	13339
926.245	13468
926.352	13297
926.459	13487
926.566	13502
926.673	13293
926.779	13133
926.886	13122
926.993	13000
927.099	13023
927.206	13027
927.312	12916
927.419	13065
927.525	13099
927.631	13103
927.737	12886
927.843	12894
927.95	12730
928.056	12798
928.162	12852
928.267	12920
928.373	13499
928.479	13015
928.585	12715
928.69	12779
928.796	12757
928.901	12722
929.007	12574
929.112	12783
929.218	12684
929.323	12578
929.428	12566
929.533	12658
929.638	12517
929.743	12513
929.848	12471
929.953	12467
930.058	12414
930.163	12243
930.267	12171
930.372	12380
930.477	12243
930.581	12441
930.685	12194
930.79	12045
930.894	12175
930.998	12102
931.103	12258
931.207	11870
931.311	11794
931.415	11699
931.519	11490
931.623	11497
