Data from test_V78500241_1738.txt Node
Date: Fri Mar 25 15:53:50 CST 2022
User: usil
Spectrometer: V785-0024
Trigger mode: 0
Integration Time (sec): 4.000000E-1
Scans to average: 1
Nonlinearity correction enabled: false
Boxcar width: 0
Storing dark spectrum: false
XAxis mode: Wavelengths
Number of Pixels in Spectrum: 1024
>>>>>Begin Spectral Data<<<<<
801.071	28485
801.214	28485
801.356	28276
801.499	28090
801.641	28013
801.783	28051
801.926	27983
802.068	27823
802.211	27895
802.353	27880
802.496	27679
802.638	27694
802.78	27660
802.923	27644
803.065	27568
803.208	27686
803.35	27663
803.492	27953
803.635	27941
803.777	27861
803.919	27865
804.061	28207
804.204	28032
804.346	27892
804.488	27838
804.63	27895
804.773	27895
804.915	28010
805.057	27983
805.199	27793
805.341	27869
805.483	28207
805.626	28006
805.768	28158
805.91	28139
806.052	28029
806.194	28082
806.336	28215
806.478	28150
806.62	28025
806.762	28226
806.904	28295
807.046	28481
807.188	28436
807.33	28542
807.472	28565
807.614	28352
807.756	28618
807.898	28436
808.04	28337
808.182	28211
808.324	28447
808.465	28440
808.607	28588
808.749	28717
808.891	28953
809.033	28919
809.174	28972
809.316	28683
809.458	28637
809.6	28759
809.741	28786
809.883	28972
810.025	28995
810.166	29033
810.308	29060
810.45	28881
810.591	28858
810.733	28915
810.875	28584
811.016	28622
811.158	28736
811.299	28828
811.441	28946
811.582	28900
811.724	28790
811.865	28733
812.007	28717
812.148	28797
812.29	28782
812.431	28968
812.573	28968
812.714	29200
812.855	29261
812.997	29337
813.138	29452
813.279	29356
813.421	29265
813.562	29155
813.703	29170
813.845	29037
813.986	28759
814.127	28508
814.268	28535
814.41	28584
814.551	28512
814.692	28367
814.833	28470
814.974	28322
815.115	28440
815.256	28329
815.397	28314
815.539	28306
815.68	28253
815.821	28272
815.962	28253
816.103	28333
816.244	28112
816.385	28006
816.526	28002
816.666	27991
816.807	27732
816.948	27759
817.089	27789
817.23	27816
817.371	27713
817.512	27682
817.653	27675
817.793	27682
817.934	27895
818.075	27732
818.216	27846
818.356	27644
818.497	27564
818.638	27504
818.778	27401
818.919	27477
819.06	27515
819.2	27713
819.341	27743
819.481	27663
819.622	27934
819.762	28173
819.903	28017
820.043	27994
820.184	27892
820.324	27865
820.465	27941
820.605	27873
820.746	27827
820.886	27713
821.026	27861
821.167	27899
821.307	27926
821.447	27789
821.588	27709
821.728	27610
821.868	27378
822.008	27233
822.149	27260
822.289	27256
822.429	27047
822.569	26933
822.709	26967
822.849	26826
822.99	26720
823.13	26731
823.27	26636
823.41	26465
823.55	26571
823.69	26476
823.83	26549
823.97	26389
824.11	26393
824.25	26362
824.389	26427
824.529	26434
824.669	26309
824.809	26404
824.949	26377
825.089	26450
825.228	26442
825.368	26256
825.508	26263
825.648	26343
825.787	26233
825.927	26282
826.067	26221
826.206	26263
826.346	26320
826.485	26415
826.625	26278
826.765	26453
826.904	26336
827.044	26069
827.183	25963
827.323	25978
827.462	26046
827.601	26001
827.741	25913
827.88	26024
828.02	25814
828.159	25932
828.298	26016
828.437	26081
828.577	25982
828.716	26012
828.855	26020
828.994	25677
829.134	25559
829.273	25780
829.412	25514
829.551	25620
829.69	25624
829.829	25647
829.968	25776
830.107	25765
830.246	25651
830.385	25556
830.524	25499
830.663	25449
830.802	25453
830.941	25331
831.08	25198
831.219	25419
831.357	25510
831.496	25445
831.635	25225
831.774	25160
831.913	25270
832.051	24989
832.19	25004
832.329	25137
832.467	24954
832.606	24882
832.744	24992
832.883	24928
833.022	24829
833.16	24928
833.299	24977
833.437	25042
833.576	24996
833.714	24924
833.852	24992
833.991	25145
834.129	25038
834.267	25042
834.406	25015
834.544	25034
834.682	24905
834.821	24875
834.959	25084
835.097	24920
835.235	24992
835.373	24886
835.511	24992
835.65	24802
835.788	24802
835.926	24757
836.064	24665
836.202	24669
836.34	24757
836.478	24753
836.615	24848
836.753	24875
836.891	24810
837.029	24749
837.167	24760
837.305	24623
837.443	24646
837.58	24677
837.718	24692
837.856	24726
837.993	24486
838.131	24642
838.269	24551
838.406	24464
838.544	24426
838.681	24308
838.819	24304
838.956	24205
839.094	24087
839.231	24194
839.369	24277
839.506	24369
839.643	24418
839.781	24121
839.918	23935
840.055	24121
840.193	24053
840.33	23969
840.467	24133
840.604	24068
840.742	24247
840.879	23889
841.016	23950
841.153	23969
841.29	24015
841.427	23946
841.564	23999
841.701	23973
841.838	23939
841.975	23897
842.112	23897
842.249	23821
842.385	23824
842.522	23885
842.659	23897
842.796	23722
842.933	23653
843.069	23543
843.206	23653
843.343	23935
843.479	23707
843.616	23729
843.752	23562
843.889	23505
844.025	23687
844.162	23653
844.298	23570
844.435	23577
844.571	23520
844.708	23608
844.844	23642
844.98	23710
845.117	23547
845.253	23570
845.389	23433
845.525	23531
845.661	23467
845.798	23258
845.934	23273
846.07	23273
846.206	23189
846.342	23425
846.478	23239
846.614	23022
846.75	22965
846.886	23022
847.022	22965
847.158	23048
847.294	23003
847.429	22987
847.565	23006
847.701	23193
847.837	22805
847.972	22725
848.108	22793
848.244	22763
848.379	22653
848.515	22607
848.65	22497
848.786	22618
848.921	22611
849.057	22683
849.192	22618
849.328	22592
849.463	22474
849.598	22432
849.734	22474
849.869	22421
850.004	22352
850.14	22402
850.275	22207
850.41	22257
850.545	22295
850.68	22322
850.815	22310
850.95	22382
851.085	22360
851.22	22341
851.355	22462
851.49	22314
851.625	22272
851.76	22257
851.895	22261
852.03	22306
852.165	22386
852.299	22257
852.434	22493
852.569	22322
852.703	22386
852.838	22459
852.973	22538
853.107	22409
853.242	22295
853.376	22124
853.511	21972
853.645	22090
853.78	22310
853.914	22143
854.048	22200
854.183	22192
854.317	22131
854.451	22363
854.585	22185
854.72	22188
854.854	22207
854.988	22078
855.122	22211
855.256	22105
855.39	22169
855.524	22352
855.658	22280
855.792	22253
855.926	22131
856.06	22196
856.194	22147
856.327	22128
856.461	22093
856.595	22150
856.729	22192
856.862	22280
856.996	22173
857.13	22265
857.263	22238
857.397	22257
857.53	22055
857.664	22249
857.797	22223
857.931	22249
858.064	22150
858.197	22242
858.331	22074
858.464	22124
858.597	22090
858.731	22147
858.864	22131
858.997	22131
859.13	22226
859.263	22074
859.396	22291
859.529	22116
859.662	22207
859.795	22162
859.928	22196
860.061	22238
860.194	22344
860.327	22265
860.46	22181
860.592	22234
860.725	22325
860.858	22310
860.99	22299
861.123	22036
861.256	22070
861.388	22131
861.521	22995
861.653	22036
861.786	22021
861.918	22036
862.05	21964
862.183	22143
862.315	22177
862.447	22200
862.58	21998
862.712	21899
862.844	21918
862.976	21987
863.108	21960
863.24	22246
863.372	21899
863.504	21759
863.636	21922
863.768	21903
863.9	21816
864.032	21819
864.164	21728
864.296	21953
864.428	22006
864.559	21865
864.691	21838
864.823	21842
864.954	21930
865.086	21850
865.217	21804
865.349	21728
865.48	21743
865.612	21755
865.743	21812
865.875	21759
866.006	21793
866.137	21762
866.269	21709
866.4	21743
866.531	21633
866.662	21477
866.793	21591
866.924	21637
867.055	21774
867.186	21656
867.317	21751
867.448	21671
867.579	21610
867.71	21614
867.841	21622
867.972	21747
868.103	21660
868.233	21720
868.364	21736
868.495	21842
868.625	21937
868.756	22017
868.886	21838
869.017	21960
869.147	22017
869.278	21991
869.408	21987
869.539	21854
869.669	22048
869.799	22044
869.929	22078
870.06	22154
870.19	22299
870.32	22196
870.45	22242
870.58	22352
870.71	22538
870.84	22489
870.97	22299
871.1	22314
871.23	22500
871.36	22527
871.489	22432
871.619	22527
871.749	22500
871.879	22554
872.008	22656
872.138	22565
872.267	22478
872.397	22527
872.526	22360
872.656	22348
872.785	22375
872.915	22554
873.044	22626
873.173	22535
873.303	22603
873.432	22634
873.561	22622
873.69	22554
873.819	22546
873.948	22622
874.077	22531
874.206	22577
874.335	22588
874.464	22717
874.593	22706
874.722	22668
874.851	22885
874.979	22782
875.108	22862
875.237	22721
875.365	22580
875.494	22710
875.623	22801
875.751	22740
875.88	22771
876.008	22896
876.136	22850
876.265	23147
876.393	23254
876.521	23208
876.65	23284
876.778	23185
876.906	23155
877.034	22999
877.162	23029
877.29	23056
877.418	23086
877.546	23124
877.674	22987
877.802	23075
877.93	23018
878.058	23006
878.185	22999
878.313	23052
878.441	22980
878.568	22889
878.696	22968
878.824	23178
878.951	23083
879.079	23216
879.206	23368
879.333	23223
879.461	23056
879.588	23075
879.715	23261
879.842	23463
879.97	23132
880.097	22961
880.224	22847
880.351	22976
880.478	22923
880.605	22892
880.732	22949
880.859	23140
880.986	23018
881.112	22858
881.239	22767
881.366	22660
881.493	22569
881.619	22554
881.746	22527
881.872	22603
881.999	22489
882.125	22466
882.252	22538
882.378	22436
882.505	22596
882.631	22333
882.757	22086
882.883	22192
883.01	22150
883.136	22048
883.262	21998
883.388	21991
883.514	22173
883.64	22196
883.766	22116
883.892	21998
884.018	22021
884.143	22074
884.269	22128
884.395	21861
884.52	21797
884.646	21720
884.772	21732
884.897	21709
885.023	21838
885.148	21972
885.274	21979
885.399	22010
885.524	21930
885.65	21762
885.775	21705
885.9	21816
886.025	21937
886.15	21842
886.275	21751
886.4	21679
886.525	21857
886.65	21663
886.775	21644
886.9	21941
887.025	22010
887.149	21793
887.274	21591
887.399	21507
887.523	21545
887.648	21420
887.773	21523
887.897	21595
888.021	21576
888.146	21591
888.27	21644
888.395	21557
888.519	21553
888.643	21564
888.767	21679
888.891	21466
889.015	21359
889.139	21416
889.263	21325
889.387	21458
889.511	21466
889.635	21633
889.759	21329
889.883	21355
890.006	21382
890.13	21424
890.254	21313
890.377	21325
890.501	21157
890.624	21116
890.748	21085
890.871	20998
890.995	20876
891.118	20902
891.241	20800
891.364	20952
891.488	21024
891.611	20807
891.734	20963
891.857	20963
891.98	20902
892.103	20986
892.226	20948
892.349	20864
892.471	20686
892.594	20819
892.717	20731
892.839	20689
892.962	20735
893.085	20956
893.207	20750
893.33	20686
893.452	20716
893.575	20815
893.697	20792
893.819	20842
893.941	20990
894.064	20971
894.186	20678
894.308	20636
894.43	20864
894.552	20925
894.674	20921
894.796	20758
894.918	20762
895.04	20678
895.161	20785
895.283	20853
895.405	20830
895.526	20785
895.648	20864
895.769	20861
895.891	20921
896.012	20883
896.134	20830
896.255	20910
896.376	20689
896.498	20842
896.619	20838
896.74	20800
896.861	20948
896.982	21184
897.103	21332
897.224	21096
897.345	20891
897.466	20982
897.587	20986
897.708	21230
897.828	21089
897.949	21032
898.07	20887
898.19	21020
898.311	21051
898.431	20994
898.552	21028
898.672	21024
898.792	21188
898.913	20982
899.033	20933
899.153	20895
899.273	20773
899.393	20727
899.513	20754
899.633	20720
899.753	20731
899.873	20651
899.993	20876
900.113	20705
900.232	20632
900.352	20754
900.472	20609
900.591	20457
900.711	20476
900.83	20560
900.95	20724
901.069	20575
901.189	20419
901.308	20339
901.427	20088
901.546	20149
901.665	20218
901.784	20191
901.904	20012
902.023	19875
902.141	19647
902.26	19643
902.379	19616
902.498	19677
902.617	19548
902.735	19575
902.854	19750
902.973	19590
903.091	19251
903.21	19316
903.328	19312
903.446	19278
903.565	19194
903.683	19099
903.801	18947
903.919	19042
904.038	19012
904.156	18901
904.274	18951
904.392	18848
904.51	18840
904.627	18837
904.745	18920
904.863	18913
904.981	18601
905.098	18448
905.216	18456
905.334	18582
905.451	18563
905.569	18410
905.686	18517
905.803	18509
905.921	18315
906.038	18247
906.155	18334
906.272	18129
906.389	18232
906.506	18064
906.623	18011
906.74	18007
906.857	18026
906.974	17954
907.091	18125
907.208	18110
907.324	17977
907.441	17893
907.557	17817
907.674	17653
907.79	17638
907.907	17642
908.023	17718
908.139	17764
908.256	17642
908.372	17657
908.488	17562
908.604	17509
908.72	17410
908.836	17467
908.952	17421
909.068	17440
909.184	17657
909.3	17532
909.415	17440
909.531	17455
909.647	17258
909.762	17060
909.878	17136
909.993	17121
910.108	17136
910.224	17102
910.339	17121
910.454	16938
910.57	16904
910.685	16915
910.8	17109
910.915	17155
911.03	17006
911.145	16763
911.259	16691
911.374	16729
911.489	16721
911.604	16550
911.718	16459
911.833	16527
911.947	16360
912.062	16375
912.176	16451
912.291	16447
912.405	16519
912.519	16649
912.633	16679
912.748	16424
912.862	16474
912.976	16291
913.09	16261
913.204	16230
913.318	16314
913.431	16341
913.545	16379
913.659	16310
913.772	16272
913.886	16067
914	16082
914.113	16185
914.226	16063
914.34	16135
914.453	15994
914.566	16150
914.68	15937
914.793	15911
914.906	15751
915.019	15682
915.132	15553
915.245	15644
915.358	15701
915.47	15698
915.583	15660
915.696	15759
915.809	15793
915.921	15686
916.034	15606
916.146	15557
916.259	15606
916.371	15660
916.483	15572
916.595	15428
916.708	15523
916.82	15591
916.932	15477
917.044	15401
917.156	15382
917.268	15321
917.38	15378
917.491	15306
917.603	15382
917.715	15298
917.826	15382
917.938	15218
918.049	15188
918.161	15268
918.272	15332
918.384	15348
918.495	15207
918.606	15112
918.717	15093
918.828	15127
918.939	15051
919.05	14941
919.161	15009
919.272	14842
919.383	14845
919.494	15108
919.604	15249
919.715	14979
919.826	14895
919.936	14914
920.047	15066
920.157	15020
920.267	15165
920.378	14971
920.488	14998
920.598	15131
920.708	15370
920.818	15165
920.928	15146
921.038	15279
921.148	15218
921.258	14963
921.368	14857
921.477	14720
921.587	14651
921.697	14594
921.806	14743
921.916	14537
922.025	14423
922.134	14214
922.244	14351
922.353	14324
922.462	14294
922.571	14294
922.68	14107
922.789	13982
922.898	13997
923.007	14027
923.116	14046
923.224	13978
923.333	13928
923.442	13776
923.55	13883
923.659	13921
923.767	13833
923.876	13685
923.984	13784
924.092	13750
924.201	13708
924.309	13689
924.417	13719
924.525	13651
924.633	13632
924.741	14389
924.849	13460
924.956	13571
925.064	13381
925.172	13384
925.279	13464
925.387	13445
925.494	13388
925.602	13510
925.709	13422
925.816	13343
925.924	13354
926.031	13403
926.138	13365
926.245	13350
926.352	13168
926.459	13362
926.566	13327
926.673	13312
926.779	13213
926.886	13156
926.993	13027
927.099	12981
927.206	12867
927.312	12886
927.419	12924
927.525	12909
927.631	12989
927.737	12806
927.843	12833
927.95	12745
928.056	12631
928.162	12700
928.267	12749
928.373	13434
928.479	12730
928.585	12623
928.69	12681
928.796	12707
928.901	12623
929.007	12471
929.112	12639
929.218	12498
929.323	12509
929.428	12536
929.533	12620
929.638	12380
929.743	12509
929.848	12513
929.953	12429
930.058	12315
930.163	12125
930.267	12163
930.372	12289
930.477	12152
930.581	12266
930.685	12209
930.79	11908
930.894	12064
930.998	11973
931.103	12136
931.207	11752
931.311	11680
931.415	11600
931.519	11364
931.623	11387
