Data from test_V78500241_1354.txt Node
Date: Fri Mar 25 15:51:10 CST 2022
User: usil
Spectrometer: V785-0024
Trigger mode: 0
Integration Time (sec): 4.000000E-1
Scans to average: 1
Nonlinearity correction enabled: false
Boxcar width: 0
Storing dark spectrum: false
XAxis mode: Wavelengths
Number of Pixels in Spectrum: 1024
>>>>>Begin Spectral Data<<<<<
801.071	28097
801.214	28131
801.356	27865
801.499	27759
801.641	27625
801.783	27644
801.926	27591
802.068	27637
802.211	27561
802.353	27580
802.496	27275
802.638	27184
802.78	27230
802.923	27192
803.065	27123
803.208	27089
803.35	27165
803.492	27386
803.635	27481
803.777	27298
803.919	27405
804.061	27709
804.204	27523
804.346	27340
804.488	27332
804.63	27534
804.773	27374
804.915	27454
805.057	27473
805.199	27450
805.341	27481
805.483	27622
805.626	27568
805.768	27485
805.91	27633
806.052	27606
806.194	27481
806.336	27660
806.478	27812
806.62	27629
806.762	27644
806.904	27911
807.046	28074
807.188	28055
807.33	27998
807.472	28048
807.614	28013
807.756	27972
807.898	27838
808.04	27835
808.182	27781
808.324	27972
808.465	27968
808.607	28147
808.749	28234
808.891	28291
809.033	28417
809.174	28352
809.316	28226
809.458	28086
809.6	28246
809.741	28306
809.883	28413
810.025	28573
810.166	28516
810.308	28569
810.45	28462
810.591	28284
810.733	28215
810.875	28363
811.016	28032
811.158	28188
811.299	28246
811.441	28363
811.582	28519
811.724	28219
811.865	28200
812.007	28204
812.148	28128
812.29	28246
812.431	28485
812.573	28554
812.714	28744
812.855	28900
812.997	28733
813.138	28949
813.279	28801
813.421	28713
813.562	28793
813.703	28542
813.845	28459
813.986	28287
814.127	27998
814.268	27994
814.41	27964
814.551	28013
814.692	28086
814.833	27888
814.974	27949
815.115	27945
815.256	27648
815.397	27991
815.539	27808
815.68	27808
815.821	27660
815.962	27800
816.103	27705
816.244	27500
816.385	27427
816.526	27401
816.666	27313
816.807	27233
816.948	27283
817.089	27359
817.23	27256
817.371	27226
817.512	27329
817.653	27207
817.793	27214
817.934	27245
818.075	27211
818.216	27252
818.356	27199
818.497	27116
818.638	26868
818.778	26998
818.919	26967
819.06	27047
819.2	27138
819.341	27241
819.481	27268
819.622	27355
819.762	27641
819.903	27564
820.043	27374
820.184	27397
820.324	27450
820.465	27310
820.605	27344
820.746	27393
820.886	27180
821.026	27378
821.167	27359
821.307	27439
821.447	27180
821.588	27157
821.728	26986
821.868	26727
822.008	26785
822.149	26617
822.289	26697
822.429	26419
822.569	26537
822.709	26438
822.849	26267
822.99	26282
823.13	26206
823.27	26195
823.41	26058
823.55	25887
823.69	26046
823.83	26183
823.97	26107
824.11	25731
824.25	25917
824.389	25738
824.529	25913
824.669	25765
824.809	25849
824.949	25883
825.089	25936
825.228	25932
825.368	25670
825.508	25822
825.648	25719
825.787	25723
825.927	25750
826.067	25681
826.206	25807
826.346	25712
826.485	25765
826.625	25635
826.765	25803
826.904	25811
827.044	25525
827.183	25518
827.323	25529
827.462	25377
827.601	25544
827.741	25441
827.88	25460
828.02	25365
828.159	25335
828.298	25449
828.437	25552
828.577	25449
828.716	25521
828.855	25343
828.994	25069
829.134	25088
829.273	25072
829.412	25126
829.551	25232
829.69	25110
829.829	25232
829.968	25187
830.107	25263
830.246	25145
830.385	25141
830.524	25057
830.663	24882
830.802	24947
830.941	24779
831.08	24726
831.219	24829
831.357	24779
831.496	24958
831.635	24840
831.774	24802
831.913	24635
832.051	24604
832.19	24521
832.329	24597
832.467	24353
832.606	24460
832.744	24391
832.883	24407
833.022	24323
833.16	24448
833.299	24502
833.437	24391
833.576	24456
833.714	24464
833.852	24445
833.991	24521
834.129	24601
834.267	24593
834.406	24631
834.544	24525
834.682	24536
834.821	24483
834.959	24673
835.097	24410
835.235	24597
835.373	24517
835.511	24395
835.65	24471
835.788	24308
835.926	24117
836.064	24285
836.202	24178
836.34	24308
836.478	24304
836.615	24281
836.753	24365
836.891	24441
837.029	24399
837.167	24213
837.305	24140
837.443	24232
837.58	24190
837.718	24163
837.856	24125
837.993	24072
838.131	24117
838.269	24041
838.406	24049
838.544	23946
838.681	23741
838.819	23756
838.956	23764
839.094	23672
839.231	23604
839.369	23764
839.506	24098
839.643	23912
839.781	23615
839.918	23623
840.055	23520
840.193	23627
840.33	23581
840.467	23630
840.604	23623
840.742	23805
840.879	23444
841.016	23535
841.153	23490
841.29	23558
841.427	23573
841.564	23577
841.701	23520
841.838	23440
841.975	23280
842.112	23452
842.249	23296
842.385	23326
842.522	23474
842.659	23349
842.796	23239
842.933	23334
843.069	23189
843.206	23273
843.343	23372
843.479	23174
843.616	23326
843.752	23113
843.889	23189
844.025	23155
844.162	23022
844.298	23166
844.435	23124
844.571	23064
844.708	23014
844.844	23265
844.98	23185
845.117	23079
845.253	23006
845.389	22889
845.525	22991
845.661	22782
845.798	22824
845.934	22793
846.07	22839
846.206	22881
846.342	22927
846.478	22717
846.614	22664
846.75	22500
846.886	22523
847.022	22656
847.158	22538
847.294	22538
847.429	22565
847.565	22577
847.701	22713
847.837	22226
847.972	22131
848.108	22478
848.244	22413
848.379	22204
848.515	22105
848.65	22017
848.786	22223
848.921	22063
849.057	22261
849.192	22303
849.328	22196
849.463	22124
849.598	22055
849.734	21998
849.869	22032
850.004	21899
850.14	21934
850.275	22010
850.41	21869
850.545	21755
850.68	21709
850.815	21804
850.95	21800
851.085	22124
851.22	22002
851.355	21816
851.49	21835
851.625	21903
851.76	21937
851.895	21724
852.03	21812
852.165	21876
852.299	21865
852.434	21956
852.569	21972
852.703	21865
852.838	21842
852.973	22025
853.107	21907
853.242	21846
853.376	21652
853.511	21724
853.645	21629
853.78	21819
853.914	21698
854.048	21766
854.183	21629
854.317	21686
854.451	21865
854.585	21644
854.72	21747
854.854	21736
854.988	21599
855.122	21644
855.256	21603
855.39	21641
855.524	21785
855.658	21755
855.792	21732
855.926	21751
856.06	21785
856.194	21785
856.327	21705
856.461	21762
856.595	21690
856.729	21587
856.862	21857
856.996	21648
857.13	21747
857.263	21827
857.397	21762
857.53	21675
857.664	21739
857.797	21804
857.931	21842
858.064	21656
858.197	21899
858.331	21671
858.464	21572
858.597	21641
858.731	21679
858.864	21667
858.997	21686
859.13	21648
859.263	21705
859.396	21778
859.529	21625
859.662	21641
859.795	21652
859.928	21694
860.061	21816
860.194	21975
860.327	21850
860.46	21732
860.592	21873
860.725	21926
860.858	21819
860.99	21743
861.123	21580
861.256	21580
861.388	21652
861.521	22344
861.653	21519
861.786	21466
861.918	21504
862.05	21656
862.183	21485
862.315	21660
862.447	21690
862.58	21728
862.712	21367
862.844	21416
862.976	21622
863.108	21507
863.24	21888
863.372	21294
863.504	21412
863.636	21405
863.768	21408
863.9	21469
864.032	21275
864.164	21313
864.296	21401
864.428	21454
864.559	21408
864.691	21367
864.823	21389
864.954	21378
865.086	21355
865.217	21321
865.349	21268
865.48	21211
865.612	21351
865.743	21416
865.875	21287
866.006	21264
866.137	21321
866.269	21302
866.4	21298
866.531	21214
866.662	21142
866.793	21184
866.924	21188
867.055	21230
867.186	21237
867.317	21173
867.448	21123
867.579	21096
867.71	21211
867.841	21062
867.972	21260
868.103	21157
868.233	21203
868.364	21157
868.495	21249
868.625	21435
868.756	21515
868.886	21424
869.017	21435
869.147	21530
869.278	21622
869.408	21561
869.539	21454
869.669	21526
869.799	21492
869.929	21500
870.06	21633
870.19	21823
870.32	21774
870.45	21876
870.58	21850
870.71	21956
870.84	21968
870.97	21911
871.1	21876
871.23	21964
871.36	22013
871.489	21975
871.619	22086
871.749	22013
871.879	22154
872.008	22078
872.138	22116
872.267	22074
872.397	21873
872.526	21903
872.656	21953
872.785	21884
872.915	22032
873.044	22310
873.173	22070
873.303	22124
873.432	22219
873.561	22150
873.69	22158
873.819	22048
873.948	22139
874.077	22120
874.206	22070
874.335	22029
874.464	22188
874.593	22310
874.722	22272
874.851	22306
874.979	22344
875.108	22405
875.237	22424
875.365	22105
875.494	22200
875.623	22447
875.751	22207
875.88	22200
876.008	22462
876.136	22470
876.265	22771
876.393	22911
876.521	22839
876.65	22786
876.778	22660
876.906	22577
877.034	22546
877.162	22531
877.29	22447
877.418	22725
877.546	22687
877.674	22569
877.802	22691
877.93	22687
878.058	22497
878.185	22592
878.313	22672
878.441	22668
878.568	22398
878.696	22580
878.824	22672
878.951	22565
879.079	22763
879.206	22873
879.333	22892
879.461	22675
879.588	22831
879.715	22839
879.842	23010
879.97	22847
880.097	22504
880.224	22546
880.351	22470
880.478	22542
880.605	22535
880.732	22443
880.859	22611
880.986	22474
881.112	22580
881.239	22272
881.366	22109
881.493	22059
881.619	22040
881.746	21998
881.872	22021
881.999	21975
882.125	21911
882.252	21895
882.378	21857
882.505	22074
882.631	21812
882.757	21804
882.883	21857
883.01	21842
883.136	21690
883.262	21633
883.388	21553
883.514	21717
883.64	21747
883.766	21652
883.892	21401
884.018	21435
884.143	21595
884.269	21713
884.395	21351
884.52	21329
884.646	21340
884.772	21264
884.897	21211
885.023	21416
885.148	21401
885.274	21469
885.399	21450
885.524	21359
885.65	21466
885.775	21321
885.9	21431
886.025	21363
886.15	21447
886.275	21313
886.4	21294
886.525	21382
886.65	21165
886.775	21275
886.9	21473
887.025	21534
887.149	21275
887.274	21241
887.399	20994
887.523	21222
887.648	21051
887.773	21100
887.897	21154
888.021	21226
888.146	21047
888.27	21165
888.395	21272
888.519	21146
888.643	21104
888.767	21169
888.891	21066
889.015	20990
889.139	20994
889.263	20914
889.387	21127
889.511	21100
889.635	21142
889.759	20914
889.883	20872
890.006	20941
890.13	21043
890.254	20910
890.377	20887
890.501	20731
890.624	20697
890.748	20552
890.871	20598
890.995	20480
891.118	20473
891.241	20511
891.364	20545
891.488	20686
891.611	20556
891.734	20495
891.857	20583
891.98	20461
892.103	20575
892.226	20476
892.349	20355
892.471	20275
892.594	20545
892.717	20412
892.839	20400
892.962	20412
893.085	20442
893.207	20320
893.33	20320
893.452	20377
893.575	20495
893.697	20434
893.819	20648
893.941	20674
894.064	20518
894.186	20351
894.308	20343
894.43	20408
894.552	20560
894.674	20385
894.796	20419
894.918	20362
895.04	20343
895.161	20446
895.283	20419
895.405	20244
895.526	20366
895.648	20313
895.769	20355
895.891	20473
896.012	20579
896.134	20442
896.255	20282
896.376	20377
896.498	20541
896.619	20366
896.74	20358
896.861	20533
896.982	20716
897.103	20769
897.224	20659
897.345	20518
897.466	20613
897.587	20518
897.708	20705
897.828	20663
897.949	20507
898.07	20427
898.19	20499
898.311	20655
898.431	20621
898.552	20640
898.672	20621
898.792	20678
898.913	20670
899.033	20476
899.153	20465
899.273	20271
899.393	20442
899.513	20454
899.633	20328
899.753	20362
899.873	20301
899.993	20271
900.113	20290
900.232	20248
900.352	20191
900.472	20199
900.591	20119
900.711	20259
900.83	20130
900.95	20199
901.069	20176
901.189	20024
901.308	19757
901.427	19704
901.546	19620
901.665	19731
901.784	19769
901.904	19597
902.023	19438
902.141	19259
902.26	19373
902.379	19259
902.498	19221
902.617	19236
902.735	19304
902.854	19168
902.973	19107
903.091	18875
903.21	18878
903.328	18993
903.446	18726
903.565	18635
903.683	18627
903.801	18612
903.919	18722
904.038	18646
904.156	18429
904.274	18502
904.392	18456
904.51	18384
904.627	18407
904.745	18608
904.863	18369
904.981	18216
905.098	18178
905.216	18011
905.334	18148
905.451	18125
905.569	18095
905.686	18121
905.803	18083
905.921	17805
906.038	17999
906.155	17954
906.272	17821
906.389	17790
906.506	17691
906.623	17794
906.74	17687
906.857	17425
906.974	17520
907.091	17630
907.208	17760
907.324	17745
907.441	17505
907.557	17402
907.674	17372
907.79	17330
907.907	17258
908.023	17444
908.139	17425
908.256	17337
908.372	17330
908.488	17258
908.604	17037
908.72	17105
908.836	17113
908.952	17003
909.068	17098
909.184	17147
909.3	17121
909.415	17037
909.531	17113
909.647	16816
909.762	16786
909.878	16729
909.993	16820
910.108	16706
910.224	16668
910.339	16649
910.454	16649
910.57	16527
910.685	16478
910.8	16782
910.915	16733
911.03	16641
911.145	16436
911.259	16295
911.374	16417
911.489	16329
911.604	16265
911.718	16147
911.833	16150
911.947	16150
912.062	15998
912.176	16188
912.291	16162
912.405	16173
912.519	16306
912.633	16261
912.748	16078
912.862	16078
912.976	16025
913.09	15857
913.204	15850
913.318	15945
913.431	15983
913.545	15987
913.659	16063
913.772	15983
913.886	15720
914	15690
914.113	15857
914.226	15876
914.34	15808
914.453	15584
914.566	15755
914.68	15603
914.793	15534
914.906	15435
915.019	15298
915.132	15237
915.245	15351
915.358	15378
915.47	15230
915.583	15264
915.696	15344
915.809	15401
915.921	15462
916.034	15256
916.146	15157
916.259	15184
916.371	15344
916.483	15260
916.595	15245
916.708	15142
916.82	15097
916.932	15116
917.044	15135
917.156	15112
917.268	14944
917.38	15001
917.491	14952
917.603	15036
917.715	15017
917.826	15032
917.938	14883
918.049	14834
918.161	14929
918.272	15009
918.384	15081
918.495	14960
918.606	14876
918.717	14640
918.828	14788
918.939	14674
919.05	14625
919.161	14746
919.272	14545
919.383	14552
919.494	14807
919.604	14891
919.715	14705
919.826	14708
919.936	14651
920.047	14838
920.157	14720
920.267	14895
920.378	14697
920.488	14625
920.598	14876
920.708	14918
920.818	14807
920.928	14724
921.038	15001
921.148	14982
921.258	14644
921.368	14560
921.477	14385
921.587	14358
921.697	14298
921.806	14450
921.916	14305
922.025	14195
922.134	14100
922.244	14084
922.353	14100
922.462	13947
922.571	13925
922.68	13761
922.789	13803
922.898	13738
923.007	13613
923.116	13704
923.224	13594
923.333	13620
923.442	13590
923.55	13491
923.659	13594
923.767	13601
923.876	13453
923.984	13491
924.092	13487
924.201	13476
924.309	13472
924.417	13430
924.525	13289
924.633	13301
924.741	14248
924.849	13183
924.956	13270
925.064	13129
925.172	13091
925.279	13114
925.387	13202
925.494	13046
925.602	13255
925.709	13156
925.816	13065
925.924	13042
926.031	13091
926.138	13065
926.245	13069
926.352	12973
926.459	13004
926.566	13141
926.673	12935
926.779	12814
926.886	12840
926.993	12734
927.099	12658
927.206	12669
927.312	12635
927.419	12791
927.525	12673
927.631	12631
927.737	12467
927.843	12551
927.95	12422
928.056	12479
928.162	12506
928.267	12494
928.373	13126
928.479	12570
928.585	12262
928.69	12376
928.796	12494
928.901	12342
929.007	12182
929.112	12350
929.218	12281
929.323	12243
929.428	12205
929.533	12273
929.638	12068
929.743	12216
929.848	12228
929.953	12129
930.058	11988
930.163	11893
930.267	11901
930.372	12030
930.477	11878
930.581	12182
930.685	11935
930.79	11821
930.894	11836
930.998	11741
931.103	11878
931.207	11516
931.311	11478
931.415	11265
931.519	11242
931.623	11105
