Data from test_V78500241_1476.txt Node
Date: Fri Mar 25 15:52:01 CST 2022
User: usil
Spectrometer: V785-0024
Trigger mode: 0
Integration Time (sec): 4.000000E-1
Scans to average: 1
Nonlinearity correction enabled: false
Boxcar width: 0
Storing dark spectrum: false
XAxis mode: Wavelengths
Number of Pixels in Spectrum: 1024
>>>>>Begin Spectral Data<<<<<
801.071	27770
801.214	27709
801.356	27466
801.499	27561
801.641	27431
801.783	27367
801.926	27275
802.068	27294
802.211	27146
802.353	27039
802.496	27009
802.638	26948
802.78	26902
802.923	26838
803.065	26765
803.208	26845
803.35	26940
803.492	27123
803.635	27157
803.777	27081
803.919	27283
804.061	27351
804.204	27241
804.346	27116
804.488	26933
804.63	27020
804.773	27116
804.915	27138
805.057	27184
805.199	27036
805.341	27211
805.483	27298
805.626	27272
805.768	27161
805.91	27218
806.052	27226
806.194	27138
806.336	27488
806.478	27192
806.62	27306
806.762	27184
806.904	27458
807.046	27774
807.188	27732
807.33	27682
807.472	27819
807.614	27736
807.756	27717
807.898	27408
808.04	27466
808.182	27553
808.324	27507
808.465	27580
808.607	27804
808.749	27884
808.891	27937
809.033	28013
809.174	27998
809.316	27918
809.458	27819
809.6	28006
809.741	28116
809.883	28067
810.025	28261
810.166	28272
810.308	28101
810.45	28082
810.591	28002
810.733	27926
810.875	27861
811.016	27663
811.158	27785
811.299	27945
811.441	27949
811.582	28010
811.724	27914
811.865	27728
812.007	27846
812.148	27854
812.29	27880
812.431	28048
812.573	28169
812.714	28207
812.855	28367
812.997	28519
813.138	28691
813.279	28550
813.421	28542
813.562	28390
813.703	28147
813.845	28070
813.986	27747
814.127	27603
814.268	27496
814.41	27553
814.551	27625
814.692	27618
814.833	27553
814.974	27439
815.115	27519
815.256	27473
815.397	27321
815.539	27359
815.68	27431
815.821	27332
815.962	27340
816.103	27291
816.244	27173
816.385	27237
816.526	27150
816.666	27150
816.807	26864
816.948	26956
817.089	27020
817.23	26929
817.371	26876
817.512	26838
817.653	26819
817.793	26746
817.934	26857
818.075	26796
818.216	26910
818.356	26796
818.497	26864
818.638	26575
818.778	26598
818.919	26708
819.06	26670
819.2	26750
819.341	26826
819.481	26849
819.622	27043
819.762	27268
819.903	27100
820.043	27024
820.184	26834
820.324	26781
820.465	26982
820.605	26880
820.746	26929
820.886	26842
821.026	26899
821.167	26910
821.307	26891
821.447	26994
821.588	26861
821.728	26648
821.868	26499
822.008	26450
822.149	26457
822.289	26286
822.429	25997
822.569	25963
822.709	25947
822.849	25708
822.99	25757
823.13	25791
823.27	25681
823.41	25723
823.55	25460
823.69	25597
823.83	25727
823.97	25616
824.11	25518
824.25	25426
824.389	25430
824.529	25525
824.669	25495
824.809	25632
824.949	25457
825.089	25556
825.228	25457
825.368	25346
825.508	25335
825.648	25373
825.787	25457
825.927	25392
826.067	25236
826.206	25308
826.346	25377
826.485	25304
826.625	25499
826.765	25510
826.904	25335
827.044	25050
827.183	25034
827.323	24973
827.462	25114
827.601	25053
827.741	24924
827.88	25057
828.02	24943
828.159	24989
828.298	24939
828.437	25031
828.577	24958
828.716	25213
828.855	24871
828.994	24757
829.134	24772
829.273	24749
829.412	24730
829.551	24604
829.69	24669
829.829	24814
829.968	24776
830.107	24734
830.246	24745
830.385	24669
830.524	24745
830.663	24475
830.802	24559
830.941	24342
831.08	24251
831.219	24266
831.357	24509
831.496	24452
831.635	24369
831.774	24251
831.913	24171
832.051	24026
832.19	24121
832.329	24121
832.467	24049
832.606	24121
832.744	24007
832.883	24038
833.022	23836
833.16	24079
833.299	24106
833.437	24072
833.576	24045
833.714	23942
833.852	24106
833.991	24152
834.129	24045
834.267	24098
834.406	24114
834.544	24072
834.682	24030
834.821	23999
834.959	24171
835.097	23999
835.235	24110
835.373	23992
835.511	24003
835.65	23912
835.788	23824
835.926	23767
836.064	23771
836.202	23634
836.34	23980
836.478	24034
836.615	23809
836.753	23977
836.891	23965
837.029	23954
837.167	23874
837.305	23775
837.443	23737
837.58	23756
837.718	23863
837.856	23866
837.993	23684
838.131	23760
838.269	23615
838.406	23665
838.544	23543
838.681	23410
838.819	23326
838.956	23246
839.094	23235
839.231	23189
839.369	23490
839.506	23600
839.643	23493
839.781	23296
839.918	23204
840.055	23296
840.193	23037
840.33	23147
840.467	23189
840.604	23117
840.742	23547
840.879	23060
841.016	23151
841.153	23022
841.29	23193
841.427	23064
841.564	23223
841.701	23079
841.838	23143
841.975	22892
842.112	23090
842.249	22991
842.385	22858
842.522	23010
842.659	22889
842.796	22873
842.933	22740
843.069	22885
843.206	22812
843.343	22828
843.479	22923
843.616	22896
843.752	22618
843.889	22622
844.025	22736
844.162	22687
844.298	22641
844.435	22630
844.571	22546
844.708	22645
844.844	22881
844.98	22786
845.117	22740
845.253	22615
845.389	22508
845.525	22459
845.661	22500
845.798	22417
845.934	22424
846.07	22382
846.206	22436
846.342	22432
846.478	22459
846.614	22249
846.75	22109
846.886	22070
847.022	22253
847.158	22139
847.294	22253
847.429	22219
847.565	22051
847.701	22333
847.837	21785
847.972	21755
848.108	21907
848.244	21880
848.379	21614
848.515	21698
848.65	21778
848.786	21652
848.921	21625
849.057	21888
849.192	21717
849.328	21774
849.463	21823
849.598	21599
849.734	21538
849.869	21622
850.004	21378
850.14	21458
850.275	21447
850.41	21424
850.545	21313
850.68	21386
850.815	21447
850.95	21439
851.085	21564
851.22	21633
851.355	21523
851.49	21561
851.625	21458
851.76	21500
851.895	21325
852.03	21466
852.165	21587
852.299	21557
852.434	21431
852.569	21450
852.703	21420
852.838	21492
852.973	21660
853.107	21675
853.242	21424
853.376	21428
853.511	21108
853.645	21401
853.78	21367
853.914	21355
854.048	21283
854.183	21222
854.317	21374
854.451	21542
854.585	21393
854.72	21397
854.854	21363
854.988	21272
855.122	21298
855.256	21127
855.39	21241
855.524	21374
855.658	21351
855.792	21287
855.926	21370
856.06	21431
856.194	21405
856.327	21294
856.461	21256
856.595	21325
856.729	21237
856.862	21241
856.996	21336
857.13	21363
857.263	21397
857.397	21249
857.53	21336
857.664	21237
857.797	21378
857.931	21519
858.064	21454
858.197	21374
858.331	21287
858.464	21176
858.597	21233
858.731	21150
858.864	21294
858.997	21249
859.13	21294
859.263	21329
859.396	21367
859.529	21325
859.662	21321
859.795	21279
859.928	21355
860.061	21393
860.194	21389
860.327	21466
860.46	21291
860.592	21363
860.725	21378
860.858	21416
860.99	21389
861.123	21252
861.256	21199
861.388	21344
861.521	22067
861.653	21104
861.786	21066
861.918	21180
862.05	21135
862.183	21222
862.315	21264
862.447	21291
862.58	21268
862.712	21062
862.844	20804
862.976	21032
863.108	21192
863.24	21481
863.372	20937
863.504	20929
863.636	21013
863.768	20963
863.9	21062
864.032	20979
864.164	21020
864.296	21135
864.428	21157
864.559	21043
864.691	21116
864.823	21032
864.954	21062
865.086	21032
865.217	20902
865.349	20823
865.48	20971
865.612	20883
865.743	21043
865.875	20834
866.006	20880
866.137	20781
866.269	20933
866.4	20971
866.531	20902
866.662	20899
866.793	20952
866.924	20910
867.055	20842
867.186	20895
867.317	20887
867.448	20807
867.579	20864
867.71	20781
867.841	20716
867.972	20842
868.103	20754
868.233	20891
868.364	20773
868.495	20929
868.625	21036
868.756	21096
868.886	21024
869.017	20998
869.147	21116
869.278	21150
869.408	21211
869.539	20914
869.669	21275
869.799	21176
869.929	21237
870.06	21321
870.19	21405
870.32	21405
870.45	21492
870.58	21530
870.71	21614
870.84	21583
870.97	21500
871.1	21447
871.23	21717
871.36	21553
871.489	21492
871.619	21610
871.749	21690
871.879	21701
872.008	21884
872.138	21728
872.267	21606
872.397	21614
872.526	21454
872.656	21530
872.785	21496
872.915	21774
873.044	21876
873.173	21751
873.303	21861
873.432	21774
873.561	21911
873.69	21717
873.819	21599
873.948	21854
874.077	21785
874.206	21637
874.335	21618
874.464	21884
874.593	21861
874.722	21831
874.851	21941
874.979	21949
875.108	21945
875.237	21895
875.365	21800
875.494	21911
875.623	21934
875.751	21899
875.88	22074
876.008	22143
876.136	22109
876.265	22394
876.393	22432
876.521	22493
876.65	22360
876.778	22360
876.906	22325
877.034	22310
877.162	22382
877.29	22257
877.418	22348
877.546	22303
877.674	22402
877.802	22303
877.93	22234
878.058	22223
878.185	22143
878.313	22303
878.441	22246
878.568	22147
878.696	22143
878.824	22246
878.951	22253
879.079	22417
879.206	22641
879.333	22462
879.461	22398
879.588	22409
879.715	22363
879.842	22599
879.97	22455
880.097	22158
880.224	22238
880.351	22116
880.478	22128
880.605	22162
880.732	22120
880.859	22318
880.986	22120
881.112	22105
881.239	21960
881.366	21812
881.493	21751
881.619	21660
881.746	21743
881.872	21781
881.999	21675
882.125	21633
882.252	21781
882.378	21671
882.505	21766
882.631	21583
882.757	21389
882.883	21530
883.01	21492
883.136	21367
883.262	21325
883.388	21332
883.514	21416
883.64	21408
883.766	21332
883.892	21214
884.018	21150
884.143	21287
884.269	21359
884.395	21237
884.52	21142
884.646	21043
884.772	20975
884.897	20960
885.023	21047
885.148	21100
885.274	21256
885.399	21123
885.524	21100
885.65	20952
885.775	21039
885.9	20994
886.025	21070
886.15	21051
886.275	20998
886.4	20918
886.525	20948
886.65	20967
886.775	20941
886.9	21108
887.025	21195
887.149	21066
887.274	20845
887.399	20819
887.523	20853
887.648	20758
887.773	20765
887.897	20868
888.021	20785
888.146	20686
888.27	20902
888.395	20941
888.519	20796
888.643	20880
888.767	20880
888.891	20712
889.015	20575
889.139	20708
889.263	20583
889.387	20575
889.511	20667
889.635	20746
889.759	20632
889.883	20602
890.006	20678
890.13	20750
890.254	20518
890.377	20556
890.501	20298
890.624	20343
890.748	20336
890.871	20244
890.995	20191
891.118	20142
891.241	20161
891.364	20183
891.488	20309
891.611	20130
891.734	20191
891.857	20233
891.98	20024
892.103	20153
892.226	20237
892.349	20046
892.471	20024
892.594	20054
892.717	20157
892.839	20100
892.962	20119
893.085	20092
893.207	20039
893.33	19963
893.452	19967
893.575	20172
893.697	20073
893.819	20218
893.941	20290
894.064	20100
894.186	20065
894.308	19947
894.43	20172
894.552	20164
894.674	20077
894.796	19974
894.918	19986
895.04	20069
895.161	20084
895.283	20065
895.405	20065
895.526	20191
895.648	20202
895.769	20202
895.891	20134
896.012	20115
896.134	20077
896.255	20046
896.376	20065
896.498	20103
896.619	20199
896.74	20119
896.861	20100
896.982	20377
897.103	20514
897.224	20514
897.345	20202
897.466	20278
897.587	20286
897.708	20317
897.828	20343
897.949	20286
898.07	20259
898.19	20092
898.311	20347
898.431	20305
898.552	20377
898.672	20377
898.792	20434
898.913	20305
899.033	20126
899.153	20103
899.273	20073
899.393	20058
899.513	20065
899.633	20062
899.753	20084
899.873	20054
899.993	20180
900.113	19906
900.232	20062
900.352	19963
900.472	19928
900.591	19841
900.711	19868
900.83	19780
900.95	19925
901.069	19909
901.189	19776
901.308	19567
901.427	19422
901.546	19594
901.665	19468
901.784	19365
901.904	19335
902.023	19217
902.141	19004
902.26	18871
902.379	18916
902.498	18993
902.617	18863
902.735	19050
902.854	18913
902.973	18719
903.091	18722
903.21	18570
903.328	18650
903.446	18559
903.565	18353
903.683	18399
903.801	18422
903.919	18285
904.038	18292
904.156	18273
904.274	18353
904.392	18190
904.51	18129
904.627	18163
904.745	18251
904.863	18114
904.981	17920
905.098	17863
905.216	17904
905.334	17992
905.451	17798
905.569	17786
905.686	17927
905.803	17885
905.921	17665
906.038	17741
906.155	17573
906.272	17509
906.389	17596
906.506	17433
906.623	17467
906.74	17353
906.857	17250
906.974	17292
907.091	17440
907.208	17547
907.324	17436
907.441	17174
907.557	17235
907.674	17060
907.79	17071
907.907	17090
908.023	16987
908.139	17045
908.256	16991
908.372	16900
908.488	16976
908.604	16862
908.72	16729
908.836	16801
908.952	16767
909.068	16752
909.184	16885
909.3	16839
909.415	16927
909.531	16736
909.647	16550
909.762	16565
909.878	16478
909.993	16580
910.108	16470
910.224	16375
910.339	16443
910.454	16462
910.57	16310
910.685	16272
910.8	16561
910.915	16436
911.03	16314
911.145	16249
911.259	16025
911.374	16135
911.489	16040
911.604	15979
911.718	15835
911.833	15846
911.947	15720
912.062	15675
912.176	15903
912.291	15975
912.405	15880
912.519	16078
912.633	16055
912.748	15869
912.862	15857
912.976	15717
913.09	15717
913.204	15667
913.318	15717
913.431	15797
913.545	15701
913.659	15720
913.772	15652
913.886	15595
914	15351
914.113	15534
914.226	15568
914.34	15477
914.453	15397
914.566	15443
914.68	15408
914.793	15256
914.906	15211
915.019	15066
915.132	15097
915.245	15081
915.358	14963
915.47	15058
915.583	15093
915.696	15055
915.809	15157
915.921	15165
916.034	15013
916.146	14967
916.259	14929
916.371	15154
916.483	15066
916.595	14861
916.708	14929
916.82	14872
916.932	14982
917.044	14902
917.156	14880
917.268	14804
917.38	14781
917.491	14640
917.603	14682
917.715	14773
917.826	14861
917.938	14621
918.049	14617
918.161	14754
918.272	14792
918.384	14765
918.495	14651
918.606	14621
918.717	14480
918.828	14408
918.939	14610
919.05	14419
919.161	14454
919.272	14191
919.383	14358
919.494	14530
919.604	14674
919.715	14461
919.826	14396
919.936	14358
920.047	14507
920.157	14465
920.267	14625
920.378	14492
920.488	14347
920.598	14571
920.708	14632
920.818	14594
920.928	14629
921.038	14826
921.148	14785
921.258	14374
921.368	14366
921.477	14237
921.587	14271
921.697	14100
921.806	14145
921.916	14103
922.025	13864
922.134	13822
922.244	13803
922.353	13887
922.462	13753
922.571	13765
922.68	13472
922.789	13464
922.898	13525
923.007	13487
923.116	13563
923.224	13453
923.333	13571
923.442	13381
923.55	13316
923.659	13365
923.767	13460
923.876	13270
923.984	13426
924.092	13232
924.201	13301
924.309	13228
924.417	13297
924.525	13107
924.633	13228
924.741	14161
924.849	13061
924.956	13206
925.064	12932
925.172	12833
925.279	12886
925.387	12825
925.494	12894
925.602	13042
925.709	12947
925.816	12821
925.924	12840
926.031	12943
926.138	12806
926.245	12825
926.352	12688
926.459	12924
926.566	12951
926.673	12798
926.779	12639
926.886	12525
926.993	12540
927.099	12525
927.206	12410
927.312	12448
927.419	12475
927.525	12403
927.631	12498
927.737	12334
927.843	12319
927.95	12182
928.056	12205
928.162	12330
928.267	12323
928.373	12920
928.479	12384
928.585	12121
928.69	12140
928.796	12330
928.901	12194
929.007	12034
929.112	12190
929.218	12049
929.323	12011
929.428	12038
929.533	12117
929.638	11908
929.743	11996
929.848	12091
929.953	11954
930.058	11893
930.163	11737
930.267	11737
930.372	11832
930.477	11630
930.581	11893
930.685	11722
930.79	11649
930.894	11668
930.998	11642
931.103	11676
931.207	11349
931.311	11280
931.415	11204
931.519	10965
931.623	10946
