Data from test_V78500241_2802.txt Node
Date: Fri Mar 25 16:01:12 CST 2022
User: usil
Spectrometer: V785-0024
Trigger mode: 0
Integration Time (sec): 4.000000E-1
Scans to average: 1
Nonlinearity correction enabled: false
Boxcar width: 0
Storing dark spectrum: false
XAxis mode: Wavelengths
Number of Pixels in Spectrum: 1024
>>>>>Begin Spectral Data<<<<<
801.071	28915
801.214	28809
801.356	28668
801.499	28474
801.641	28348
801.783	28447
801.926	28455
802.068	28428
802.211	28557
802.353	28382
802.496	28325
802.638	28185
802.78	28147
802.923	28131
803.065	28101
803.208	28169
803.35	28230
803.492	28386
803.635	28398
803.777	28318
803.919	28363
804.061	28801
804.204	28531
804.346	28360
804.488	28314
804.63	28409
804.773	28352
804.915	28546
805.057	28493
805.199	28493
805.341	28493
805.483	28561
805.626	28542
805.768	28550
805.91	28733
806.052	28717
806.194	28481
806.336	28771
806.478	28656
806.62	28679
806.762	28774
806.904	28980
807.046	29071
807.188	29090
807.33	29098
807.472	29037
807.614	29060
807.756	29083
807.898	28850
808.04	28748
808.182	28946
808.324	29003
808.465	28953
808.607	29208
808.749	29356
808.891	29372
809.033	29562
809.174	29265
809.316	29296
809.458	29277
809.6	29223
809.741	29452
809.883	29433
810.025	29566
810.166	29573
810.308	29589
810.45	29554
810.591	29539
810.733	29349
810.875	29368
811.016	29212
811.158	29296
811.299	29471
811.441	29600
811.582	29421
811.724	29299
811.865	29296
812.007	29353
812.148	29277
812.29	29398
812.431	29695
812.573	29573
812.714	29699
812.855	29828
812.997	29958
813.138	30045
813.279	30018
813.421	29821
813.562	29608
813.703	29619
813.845	29444
813.986	29246
814.127	29185
814.268	28946
814.41	29124
814.551	28968
814.692	28942
814.833	28908
814.974	28942
815.115	28987
815.256	28961
815.397	28980
815.539	28919
815.68	28930
815.821	28763
815.962	28999
816.103	28786
816.244	28744
816.385	28546
816.526	28512
816.666	28363
816.807	28344
816.948	28417
817.089	28481
817.23	28382
817.371	28371
817.512	28375
817.653	28314
817.793	28306
817.934	28523
818.075	28481
818.216	28356
818.356	28325
818.497	28162
818.638	28101
818.778	27983
818.919	28143
819.06	28143
819.2	28177
819.341	28257
819.481	28306
819.622	28382
819.762	28717
819.903	28527
820.043	28767
820.184	28485
820.324	28554
820.465	28546
820.605	28542
820.746	28432
820.886	28401
821.026	28478
821.167	28299
821.307	28500
821.447	28440
821.588	28196
821.728	28147
821.868	28067
822.008	27827
822.149	27667
822.289	27876
822.429	27583
822.569	27481
822.709	27443
822.849	27268
822.99	27507
823.13	27306
823.27	27214
823.41	27211
823.55	27081
823.69	27157
823.83	27207
823.97	27123
824.11	26819
824.25	26921
824.389	26948
824.529	27055
824.669	26906
824.809	27169
824.949	26952
825.089	27047
825.228	27020
825.368	26819
825.508	26883
825.648	26876
825.787	26883
825.927	26864
826.067	26853
826.206	27020
826.346	26891
826.485	26876
826.625	26979
826.765	27017
826.904	26902
827.044	26769
827.183	26678
827.323	26629
827.462	26746
827.601	26579
827.741	26579
827.88	26621
828.02	26492
828.159	26453
828.298	26499
828.437	26735
828.577	26434
828.716	26530
828.855	26473
828.994	26324
829.134	26290
829.273	26431
829.412	26100
829.551	26225
829.69	26210
829.829	26252
829.968	26408
830.107	26408
830.246	26336
830.385	26153
830.524	26275
830.663	26035
830.802	25966
830.941	25978
831.08	25868
831.219	25974
831.357	26001
831.496	26122
831.635	25894
831.774	25750
831.913	25852
832.051	25578
832.19	25628
832.329	25609
832.467	25582
832.606	25457
832.744	25453
832.883	25567
833.022	25590
833.16	25464
833.299	25696
833.437	25624
833.576	25738
833.714	25616
833.852	25674
833.991	25700
834.129	25651
834.267	25674
834.406	25571
834.544	25738
834.682	25540
834.821	25662
834.959	25712
835.097	25449
835.235	25772
835.373	25624
835.511	25685
835.65	25449
835.788	25369
835.926	25301
836.064	25244
836.202	25312
836.34	25430
836.478	25441
836.615	25419
836.753	25476
836.891	25563
837.029	25457
837.167	25438
837.305	25354
837.443	25236
837.58	25221
837.718	25362
837.856	25304
837.993	25141
838.131	25247
838.269	25015
838.406	25164
838.544	25122
838.681	25038
838.819	24833
838.956	24673
839.094	24681
839.231	24772
839.369	24878
839.506	25103
839.643	24947
839.781	24707
839.918	24696
840.055	24677
840.193	24772
840.33	24715
840.467	24616
840.604	24597
840.742	24947
840.879	24528
841.016	24677
841.153	24437
841.29	24711
841.427	24585
841.564	24688
841.701	24517
841.838	24578
841.975	24532
842.112	24399
842.249	24547
842.385	24258
842.522	24559
842.659	24376
842.796	24353
842.933	24277
843.069	24361
843.206	24399
843.343	24376
843.479	24399
843.616	24452
843.752	24232
843.889	24228
844.025	24323
844.162	24152
844.298	24319
844.435	24232
844.571	24053
844.708	24292
844.844	24433
844.98	24319
845.117	24251
845.253	24083
845.389	23927
845.525	24079
845.661	23939
845.798	23737
845.934	24034
846.07	23805
846.206	23889
846.342	24015
846.478	23805
846.614	23703
846.75	23585
846.886	23554
847.022	23824
847.158	23729
847.294	23512
847.429	23604
847.565	23733
847.701	23897
847.837	23337
847.972	23258
848.108	23425
848.244	23379
848.379	23216
848.515	23235
848.65	23174
848.786	23246
848.921	23235
849.057	23410
849.192	23246
849.328	23277
849.463	23242
849.598	23128
849.734	22999
849.869	23079
850.004	23086
850.14	23033
850.275	22908
850.41	22885
850.545	22793
850.68	22991
850.815	22866
850.95	22946
851.085	23121
851.22	23136
851.355	22995
851.49	22885
851.625	22934
851.76	22980
851.895	22961
852.03	22797
852.165	22889
852.299	23105
852.434	23090
852.569	23029
852.703	23018
852.838	22953
852.973	23025
853.107	23075
853.242	22869
853.376	22748
853.511	22767
853.645	22759
853.78	22911
853.914	22771
854.048	22702
854.183	22630
854.317	22805
854.451	22877
854.585	22744
854.72	22763
854.854	22889
854.988	22767
855.122	22793
855.256	22763
855.39	22748
855.524	22763
855.658	22881
855.792	22824
855.926	22820
856.06	22850
856.194	22831
856.327	22755
856.461	22675
856.595	22767
856.729	22660
856.862	22938
856.996	22771
857.13	22797
857.263	22866
857.397	22767
857.53	22786
857.664	22805
857.797	22854
857.931	22778
858.064	22805
858.197	22831
858.331	22869
858.464	22687
858.597	22790
858.731	22721
858.864	22615
858.997	22733
859.13	22748
859.263	22805
859.396	22858
859.529	22679
859.662	22733
859.795	22736
859.928	22866
860.061	22934
860.194	22953
860.327	22702
860.46	22733
860.592	22972
860.725	22961
860.858	22911
860.99	22828
861.123	22679
861.256	22698
861.388	22809
861.521	23505
861.653	22664
861.786	22607
861.918	22694
862.05	22580
862.183	22668
862.315	22755
862.447	22740
862.58	22710
862.712	22474
862.844	22596
862.976	22527
863.108	22523
863.24	22919
863.372	22470
863.504	22538
863.636	22386
863.768	22459
863.9	22535
864.032	22409
864.164	22519
864.296	22481
864.428	22603
864.559	22561
864.691	22569
864.823	22497
864.954	22500
865.086	22440
865.217	22322
865.349	22223
865.48	22329
865.612	22344
865.743	22398
865.875	22398
866.006	22238
866.137	22284
866.269	22299
866.4	22402
866.531	22409
866.662	22318
866.793	22379
866.924	22322
867.055	22261
867.186	22272
867.317	22295
867.448	22166
867.579	22147
867.71	22139
867.841	22162
867.972	22299
868.103	22249
868.233	22219
868.364	22261
868.495	22474
868.625	22550
868.756	22569
868.886	22516
869.017	22508
869.147	22622
869.278	22622
869.408	22588
869.539	22462
869.669	22615
869.799	22531
869.929	22573
870.06	22645
870.19	22828
870.32	22896
870.45	22908
870.58	22877
870.71	23006
870.84	22965
870.97	22934
871.1	22908
871.23	23090
871.36	23056
871.489	23075
871.619	23109
871.749	23090
871.879	23121
872.008	23151
872.138	23052
872.267	23220
872.397	22961
872.526	22949
872.656	22972
872.785	23022
872.915	23166
873.044	23170
873.173	23052
873.303	23193
873.432	23147
873.561	23105
873.69	23109
873.819	23094
873.948	23071
874.077	23117
874.206	22972
874.335	23189
874.464	23284
874.593	23254
874.722	23296
874.851	23459
874.979	23216
875.108	23490
875.237	23254
875.365	23216
875.494	23258
875.623	23376
875.751	23178
875.88	23269
876.008	23512
876.136	23406
876.265	23710
876.393	23847
876.521	23695
876.65	23745
876.778	23672
876.906	23764
877.034	23665
877.162	23703
877.29	23684
877.418	23695
877.546	23703
877.674	23672
877.802	23828
877.93	23737
878.058	23665
878.185	23585
878.313	23661
878.441	23752
878.568	23570
878.696	23573
878.824	23847
878.951	23733
879.079	23908
879.206	24034
879.333	23828
879.461	23703
879.588	23676
879.715	23798
879.842	23973
879.97	23748
880.097	23539
880.224	23478
880.351	23649
880.478	23471
880.605	23349
880.732	23471
880.859	23672
880.986	23455
881.112	23497
881.239	23315
881.366	23307
881.493	23174
881.619	23178
881.746	22961
881.872	22942
881.999	22934
882.125	23018
882.252	23086
882.378	23098
882.505	23067
882.631	22881
882.757	22725
882.883	22805
883.01	22687
883.136	22725
883.262	22611
883.388	22573
883.514	22790
883.64	22790
883.766	22664
883.892	22527
884.018	22478
884.143	22664
884.269	22664
884.395	22390
884.52	22310
884.646	22322
884.772	22230
884.897	22253
885.023	22344
885.148	22390
885.274	22497
885.399	22341
885.524	22348
885.65	22291
885.775	22367
885.9	22322
886.025	22557
886.15	22291
886.275	22394
886.4	22196
886.525	22299
886.65	22363
886.775	22329
886.9	22500
887.025	22527
887.149	22276
887.274	22051
887.399	22082
887.523	22131
887.648	22211
887.773	21998
887.897	22150
888.021	22204
888.146	22078
888.27	22147
888.395	22150
888.519	22025
888.643	22200
888.767	22139
888.891	22078
889.015	21922
889.139	21880
889.263	21922
889.387	22082
889.511	22124
889.635	22070
889.759	21930
889.883	21770
890.006	21819
890.13	22051
890.254	21903
890.377	21861
890.501	21736
890.624	21622
890.748	21648
890.871	21591
890.995	21450
891.118	21450
891.241	21500
891.364	21416
891.488	21625
891.611	21530
891.734	21481
891.857	21534
891.98	21458
892.103	21500
892.226	21485
892.349	21424
892.471	21211
892.594	21408
892.717	21241
892.839	21298
892.962	21294
893.085	21344
893.207	21222
893.33	21252
893.452	21260
893.575	21317
893.697	21264
893.819	21538
893.941	21519
894.064	21359
894.186	21344
894.308	21367
894.43	21443
894.552	21561
894.674	21359
894.796	21199
894.918	21386
895.04	21138
895.161	21389
895.283	21397
895.405	21272
895.526	21180
895.648	21382
895.769	21279
895.891	21310
896.012	21374
896.134	21416
896.255	21348
896.376	21165
896.498	21272
896.619	21287
896.74	21245
896.861	21298
896.982	21652
897.103	21648
897.224	21412
897.345	21561
897.466	21447
897.587	21580
897.708	21500
897.828	21534
897.949	21454
898.07	21389
898.19	21378
898.311	21553
898.431	21469
898.552	21428
898.672	21625
898.792	21553
898.913	21405
899.033	21389
899.153	21275
899.273	21173
899.393	21336
899.513	21443
899.633	21294
899.753	21123
899.873	21233
899.993	21321
900.113	21070
900.232	21260
900.352	21188
900.472	21089
900.591	21017
900.711	20994
900.83	20857
900.95	21127
901.069	21047
901.189	20826
901.308	20773
901.427	20545
901.546	20560
901.665	20526
901.784	20560
901.904	20366
902.023	20290
902.141	20233
902.26	20126
902.379	20138
902.498	19940
902.617	20008
902.735	20058
902.854	20088
902.973	19826
903.091	19784
903.21	19658
903.328	19670
903.446	19529
903.565	19552
903.683	19510
903.801	19362
903.919	19472
904.038	19407
904.156	19320
904.274	19304
904.392	19221
904.51	19145
904.627	19346
904.745	19228
904.863	19350
904.981	19118
905.098	18776
905.216	19008
905.334	19038
905.451	19046
905.569	18897
905.686	18924
905.803	18795
905.921	18741
906.038	18726
906.155	18776
906.272	18585
906.389	18559
906.506	18646
906.623	18566
906.74	18536
906.857	18338
906.974	18350
907.091	18498
907.208	18593
907.324	18365
907.441	18292
907.557	18239
907.674	18167
907.79	18205
907.907	18098
908.023	18163
908.139	18133
908.256	18106
908.372	18072
908.488	18007
908.604	17954
908.72	17878
908.836	17965
908.952	17893
909.068	17897
909.184	17958
909.3	17954
909.415	17980
909.531	17843
909.647	17653
909.762	17535
909.878	17497
909.993	17570
910.108	17478
910.224	17444
910.339	17558
910.454	17429
910.57	17410
910.685	17360
910.8	17551
910.915	17512
911.03	17273
911.145	17193
911.259	17170
911.374	17162
911.489	17071
911.604	16987
911.718	16839
911.833	16866
911.947	16786
912.062	16763
912.176	16953
912.291	16934
912.405	16942
912.519	17174
912.633	17075
912.748	16953
912.862	16919
912.976	16710
913.09	16645
913.204	16679
913.318	16660
913.431	16725
913.545	16755
913.659	16805
913.772	16725
913.886	16504
914	16405
914.113	16664
914.226	16550
914.34	16550
914.453	16306
914.566	16481
914.68	16306
914.793	16306
914.906	16215
915.019	16147
915.132	15972
915.245	16131
915.358	16059
915.47	16074
915.583	16017
915.696	16067
915.809	16162
915.921	16074
916.034	16048
916.146	16017
916.259	16025
916.371	16063
916.483	16029
916.595	15907
916.708	15808
916.82	15770
916.932	15778
917.044	15759
917.156	15838
917.268	15637
917.38	15648
917.491	15720
917.603	15587
917.715	15770
917.826	15690
917.938	15606
918.049	15450
918.161	15523
918.272	15690
918.384	15762
918.495	15603
918.606	15408
918.717	15416
918.828	15485
918.939	15401
919.05	15351
919.161	15393
919.272	15150
919.383	15119
919.494	15435
919.604	15526
919.715	15355
919.826	15313
919.936	15313
920.047	15412
920.157	15363
920.267	15526
920.378	15336
920.488	15340
920.598	15454
920.708	15526
920.818	15568
920.928	15458
921.038	15576
921.148	15557
921.258	15233
921.368	15226
921.477	15085
921.587	15180
921.697	14929
921.806	15062
921.916	14937
922.025	14823
922.134	14712
922.244	14590
922.353	14743
922.462	14560
922.571	14549
922.68	14320
922.789	14324
922.898	14290
923.007	14301
923.116	14396
923.224	14343
923.333	14237
923.442	14191
923.55	14180
923.659	14157
923.767	14221
923.876	14100
923.984	14199
924.092	14043
924.201	14008
924.309	14054
924.417	14050
924.525	14027
924.633	13936
924.741	14944
924.849	13837
924.956	13887
925.064	13795
925.172	13620
925.279	13632
925.387	13666
925.494	13670
925.602	13738
925.709	13753
925.816	13636
925.924	13689
926.031	13738
926.138	13647
926.245	13731
926.352	13620
926.459	13609
926.566	13712
926.673	13609
926.779	13453
926.886	13578
926.993	13217
927.099	13133
927.206	13217
927.312	13255
927.419	13259
927.525	13202
927.631	13293
927.737	13240
927.843	12996
927.95	13061
928.056	13091
928.162	13107
928.267	13080
928.373	13636
928.479	13053
928.585	12886
928.69	12989
928.796	12993
928.901	12886
929.007	12749
929.112	12958
929.218	12821
929.323	12753
929.428	12738
929.533	12814
929.638	12574
929.743	12715
929.848	12715
929.953	12658
930.058	12528
930.163	12448
930.267	12460
930.372	12589
930.477	12384
930.581	12711
930.685	12467
930.79	12346
930.894	12334
930.998	12270
931.103	12407
931.207	12022
931.311	12011
931.415	11847
931.519	11672
931.623	11653
