Data from test_V78500241_469.txt Node
Date: Fri Mar 25 15:45:03 CST 2022
User: usil
Spectrometer: V785-0024
Trigger mode: 0
Integration Time (sec): 4.000000E-1
Scans to average: 1
Nonlinearity correction enabled: false
Boxcar width: 0
Storing dark spectrum: false
XAxis mode: Wavelengths
Number of Pixels in Spectrum: 1024
>>>>>Begin Spectral Data<<<<<
801.071	27717
801.214	27580
801.356	27587
801.499	27382
801.641	27127
801.783	27325
801.926	27268
802.068	27211
802.211	27127
802.353	27062
802.496	26864
802.638	26823
802.78	26800
802.923	26937
803.065	26853
803.208	26781
803.35	26792
803.492	26914
803.635	26994
803.777	26921
803.919	27024
804.061	27241
804.204	27043
804.346	27017
804.488	26838
804.63	27020
804.773	27001
804.915	27043
805.057	27108
805.199	26971
805.341	27085
805.483	27154
805.626	27089
805.768	27127
805.91	27203
806.052	27146
806.194	27108
806.336	27408
806.478	27203
806.62	27188
806.762	27302
806.904	27431
807.046	27774
807.188	27534
807.33	27515
807.472	27610
807.614	27450
807.756	27473
807.898	27458
808.04	27416
808.182	27340
808.324	27450
808.465	27477
808.607	27641
808.749	27827
808.891	27831
809.033	27911
809.174	27835
809.316	27808
809.458	27949
809.6	27968
809.741	27918
809.883	27956
810.025	28078
810.166	27983
810.308	28055
810.45	27987
810.591	28048
810.733	27762
810.875	27819
811.016	27667
811.158	27633
811.299	27797
811.441	27972
811.582	27964
811.724	27629
811.865	27717
812.007	27694
812.148	27656
812.29	27797
812.431	27934
812.573	28051
812.714	28116
812.855	28207
812.997	28432
813.138	28622
813.279	28325
813.421	28249
813.562	28234
813.703	28150
813.845	27998
813.986	27759
814.127	27496
814.268	27401
814.41	27507
814.551	27370
814.692	27370
814.833	27511
814.974	27325
815.115	27294
815.256	27454
815.397	27302
815.539	27351
815.68	27176
815.821	27138
815.962	27294
816.103	27237
816.244	27146
816.385	26998
816.526	26929
816.666	26807
816.807	26667
816.948	26762
817.089	26933
817.23	26773
817.371	26701
817.512	26834
817.653	26758
817.793	26564
817.934	26819
818.075	26781
818.216	26689
818.356	26621
818.497	26560
818.638	26381
818.778	26431
818.919	26427
819.06	26476
819.2	26522
819.341	26735
819.481	26598
819.622	26743
819.762	26933
819.903	27013
820.043	26762
820.184	26815
820.324	26834
820.465	26902
820.605	26807
820.746	26754
820.886	26590
821.026	26773
821.167	26815
821.307	26796
821.447	26667
821.588	26537
821.728	26419
821.868	26355
822.008	26313
822.149	26142
822.289	26229
822.429	25818
822.569	25788
822.709	25807
822.849	25788
822.99	25708
823.13	25643
823.27	25590
823.41	25571
823.55	25422
823.69	25369
823.83	25499
823.97	25335
824.11	25202
824.25	25217
824.389	25304
824.529	25365
824.669	25232
824.809	25373
824.949	25350
825.089	25396
825.228	25445
825.368	25282
825.508	25213
825.648	25114
825.787	25217
825.927	25293
826.067	25095
826.206	25164
826.346	25202
826.485	25164
826.625	25118
826.765	25312
826.904	25232
827.044	24992
827.183	24924
827.323	24806
827.462	24821
827.601	24897
827.741	24871
827.88	25012
828.02	24726
828.159	24905
828.298	24928
828.437	24935
828.577	24848
828.716	24958
828.855	24848
828.994	24445
829.134	24566
829.273	24582
829.412	24563
829.551	24338
829.69	24547
829.829	24707
829.968	24551
830.107	24574
830.246	24525
830.385	24616
830.524	24369
830.663	24422
830.802	24163
830.941	24091
831.08	24167
831.219	24197
831.357	24243
831.496	24372
831.635	24140
831.774	24163
831.913	24026
832.051	24038
832.19	23916
832.329	23961
832.467	23904
832.606	23802
832.744	23760
832.883	23843
833.022	23771
833.16	23847
833.299	23813
833.437	23927
833.576	23821
833.714	23771
833.852	23950
833.991	23920
834.129	23969
834.267	23977
834.406	23843
834.544	23901
834.682	24011
834.821	23889
834.959	24041
835.097	23851
835.235	23980
835.373	23802
835.511	23897
835.65	23695
835.788	23668
835.926	23474
836.064	23497
836.202	23585
836.34	23786
836.478	23904
836.615	23771
836.753	23577
836.891	23805
837.029	23764
837.167	23680
837.305	23615
837.443	23600
837.58	23539
837.718	23646
837.856	23562
837.993	23478
838.131	23490
838.269	23345
838.406	23433
838.544	23406
838.681	23136
838.819	23250
838.956	23025
839.094	23003
839.231	23102
839.369	23280
839.506	23356
839.643	23273
839.781	23090
839.918	22976
840.055	23060
840.193	23083
840.33	23044
840.467	22965
840.604	22927
840.742	23261
840.879	22809
841.016	22866
841.153	22904
841.29	23048
841.427	22949
841.564	22976
841.701	22797
841.838	22915
841.975	22843
842.112	22843
842.249	22630
842.385	22721
842.522	23056
842.659	22850
842.796	22542
842.933	22672
843.069	22557
843.206	22698
843.343	22736
843.479	22672
843.616	22660
843.752	22398
843.889	22485
844.025	22615
844.162	22356
844.298	22447
844.435	22531
844.571	22398
844.708	22421
844.844	22599
844.98	22634
845.117	22565
845.253	22329
845.389	22363
845.525	22322
845.661	22303
845.798	22181
845.934	22230
846.07	22082
846.206	22276
846.342	22268
846.478	22139
846.614	22029
846.75	21907
846.886	21838
847.022	21873
847.158	21934
847.294	21953
847.429	21960
847.565	21915
847.701	22013
847.837	21686
847.972	21679
848.108	21705
848.244	21717
848.379	21526
848.515	21458
848.65	21408
848.786	21561
848.921	21564
849.057	21583
849.192	21591
849.328	21504
849.463	21492
849.598	21526
849.734	21401
849.869	21363
850.004	21367
850.14	21302
850.275	21378
850.41	21180
850.545	21199
850.68	21294
850.815	21359
850.95	21260
851.085	21424
851.22	21298
851.355	21260
851.49	21150
851.625	21180
851.76	21199
851.895	21199
852.03	21169
852.165	21275
852.299	21275
852.434	21302
852.569	21313
852.703	21249
852.838	21382
852.973	21416
853.107	21397
853.242	21275
853.376	21089
853.511	21036
853.645	21017
853.78	21237
853.914	21096
854.048	21062
854.183	21077
854.317	21036
854.451	21264
854.585	21161
854.72	21013
854.854	21275
854.988	21009
855.122	21070
855.256	21001
855.39	20994
855.524	21226
855.658	21199
855.792	21013
855.926	21062
856.06	21119
856.194	21256
856.327	21070
856.461	21062
856.595	21062
856.729	21173
856.862	21176
856.996	21077
857.13	21180
857.263	21214
857.397	21104
857.53	21127
857.664	21142
857.797	21085
857.931	21302
858.064	21157
858.197	21176
858.331	21085
858.464	21039
858.597	20956
858.731	21066
858.864	21127
858.997	21032
859.13	21093
859.263	21070
859.396	21157
859.529	21081
859.662	21051
859.795	21093
859.928	21184
860.061	21226
860.194	21291
860.327	21077
860.46	21066
860.592	21138
860.725	21252
860.858	21230
860.99	21066
861.123	21001
861.256	20960
861.388	21089
861.521	21698
861.653	20929
861.786	20944
861.918	20868
862.05	21074
862.183	20948
862.315	21043
862.447	21062
862.58	21020
862.712	20750
862.844	20765
862.976	20880
863.108	20819
863.24	21222
863.372	20781
863.504	20819
863.636	20735
863.768	20773
863.9	20815
864.032	20678
864.164	20727
864.296	20826
864.428	20880
864.559	20880
864.691	20849
864.823	20754
864.954	20746
865.086	20762
865.217	20693
865.349	20678
865.48	20651
865.612	20667
865.743	20857
865.875	20743
866.006	20659
866.137	20785
866.269	20629
866.4	20708
866.531	20598
866.662	20663
866.793	20682
866.924	20716
867.055	20670
867.186	20640
867.317	20701
867.448	20518
867.579	20609
867.71	20625
867.841	20526
867.972	20667
868.103	20644
868.233	20655
868.364	20545
868.495	20705
868.625	20857
868.756	20998
868.886	20853
869.017	20887
869.147	21020
869.278	21077
869.408	20933
869.539	20868
869.669	21001
869.799	20823
869.929	20994
870.06	21001
870.19	21241
870.32	21081
870.45	21173
870.58	21268
870.71	21450
870.84	21344
870.97	21348
871.1	21222
871.23	21424
871.36	21523
871.489	21317
871.619	21538
871.749	21526
871.879	21538
872.008	21504
872.138	21439
872.267	21545
872.397	21283
872.526	21275
872.656	21348
872.785	21291
872.915	21492
873.044	21538
873.173	21507
873.303	21466
873.432	21473
873.561	21625
873.69	21538
873.819	21488
873.948	21633
874.077	21507
874.206	21397
874.335	21511
874.464	21637
874.593	21667
874.722	21656
874.851	21720
874.979	21637
875.108	21698
875.237	21736
875.365	21724
875.494	21736
875.623	21663
875.751	21557
875.88	21713
876.008	21956
876.136	21918
876.265	22200
876.393	22200
876.521	22211
876.65	22242
876.778	22177
876.906	22067
877.034	22090
877.162	22105
877.29	22177
877.418	22200
877.546	22158
877.674	22021
877.802	22093
877.93	22116
878.058	22135
878.185	21987
878.313	22109
878.441	22086
878.568	21953
878.696	22067
878.824	22124
878.951	22207
879.079	22367
879.206	22207
879.333	22234
879.461	22006
879.588	22230
879.715	22265
879.842	22348
879.97	22120
880.097	22025
880.224	21915
880.351	21983
880.478	21934
880.605	22017
880.732	21846
880.859	22162
880.986	22048
881.112	21968
881.239	21785
881.366	21732
881.493	21633
881.619	21450
881.746	21538
881.872	21622
881.999	21511
882.125	21389
882.252	21538
882.378	21553
882.505	21542
882.631	21321
882.757	21233
882.883	21336
883.01	21252
883.136	21192
883.262	21093
883.388	21070
883.514	21222
883.64	21344
883.766	21142
883.892	21009
884.018	21001
884.143	21180
884.269	21291
884.395	21036
884.52	20918
884.646	20800
884.772	20849
884.897	20845
885.023	20800
885.148	21009
885.274	21077
885.399	21051
885.524	20834
885.65	21001
885.775	20838
885.9	20750
886.025	20979
886.15	20895
886.275	20826
886.4	20842
886.525	20887
886.65	20735
886.775	20750
886.9	20998
887.025	20967
887.149	20804
887.274	20716
887.399	20602
887.523	20636
887.648	20556
887.773	20457
887.897	20708
888.021	20613
888.146	20507
888.27	20655
888.395	20777
888.519	20613
888.643	20693
888.767	20693
888.891	20549
889.015	20404
889.139	20518
889.263	20313
889.387	20564
889.511	20571
889.635	20552
889.759	20290
889.883	20358
890.006	20317
890.13	20480
890.254	20385
890.377	20313
890.501	20164
890.624	20054
890.748	20218
890.871	20157
890.995	20077
891.118	19860
891.241	20050
891.364	19982
891.488	20008
891.611	20115
891.734	20008
891.857	19993
891.98	20103
892.103	20046
892.226	20050
892.349	19898
892.471	19826
892.594	19852
892.717	20020
892.839	19818
892.962	19936
893.085	19944
893.207	19906
893.33	19753
893.452	19852
893.575	19864
893.697	19849
893.819	19963
893.941	20103
894.064	20050
894.186	19898
894.308	19830
894.43	19982
894.552	20069
894.674	20081
894.796	19681
894.918	19906
895.04	19871
895.161	20088
895.283	20005
895.405	19712
895.526	19936
895.648	19906
895.769	19978
895.891	19879
896.012	20016
896.134	19993
896.255	20005
896.376	19818
896.498	19887
896.619	20069
896.74	19902
896.861	20065
896.982	20290
897.103	20278
897.224	20180
897.345	20180
897.466	20145
897.587	19986
897.708	20225
897.828	20161
897.949	20054
898.07	19890
898.19	20084
898.311	20153
898.431	20142
898.552	20195
898.672	20240
898.792	20168
898.913	20183
899.033	20062
899.153	20039
899.273	19795
899.393	19887
899.513	19989
899.633	19814
899.753	19909
899.873	19887
899.993	19913
900.113	19925
900.232	19856
900.352	19833
900.472	19761
900.591	19658
900.711	19681
900.83	19506
900.95	19791
901.069	19750
901.189	19506
901.308	19293
901.427	19354
901.546	19236
901.665	19247
901.784	19400
901.904	19179
902.023	19038
902.141	18901
902.26	18871
902.379	18928
902.498	18730
902.617	18821
902.735	18810
902.854	18814
902.973	18692
903.091	18429
903.21	18483
903.328	18464
903.446	18258
903.565	18273
903.683	18323
903.801	18254
903.919	18224
904.038	18216
904.156	18015
904.274	18171
904.392	18095
904.51	18057
904.627	18015
904.745	18053
904.863	18030
904.981	17897
905.098	17733
905.216	17794
905.334	17668
905.451	17745
905.569	17718
905.686	17672
905.803	17551
905.921	17520
906.038	17570
906.155	17516
906.272	17448
906.389	17288
906.506	17193
906.623	17292
906.74	17242
906.857	17140
906.974	17166
907.091	17147
907.208	17364
907.324	17231
907.441	17128
907.557	17018
907.674	17090
907.79	17010
907.907	16946
908.023	16957
908.139	16957
908.256	16812
908.372	16831
908.488	16839
908.604	16691
908.72	16664
908.836	16660
908.952	16584
909.068	16839
909.184	16755
909.3	16672
909.415	16641
909.531	16713
909.647	16443
909.762	16386
909.878	16360
909.993	16367
910.108	16500
910.224	16344
910.339	16310
910.454	16268
910.57	16139
910.685	16120
910.8	16436
910.915	16329
911.03	16166
911.145	15922
911.259	15926
911.374	15953
911.489	15873
911.604	15835
911.718	15724
911.833	15724
911.947	15751
912.062	15728
912.176	15686
912.291	15724
912.405	15850
912.519	15918
912.633	16025
912.748	15747
912.862	15690
912.976	15606
913.09	15462
913.204	15485
913.318	15530
913.431	15663
913.545	15526
913.659	15648
913.772	15576
913.886	15393
914	15351
914.113	15439
914.226	15504
914.34	15370
914.453	15256
914.566	15370
914.68	15180
914.793	15203
914.906	15062
915.019	14956
915.132	14845
915.245	14925
915.358	15020
915.47	14982
915.583	15051
915.696	15005
915.809	15047
915.921	15043
916.034	15013
916.146	14899
916.259	14762
916.371	14963
916.483	14937
916.595	14769
916.708	14830
916.82	14826
916.932	14826
917.044	14731
917.156	14739
917.268	14617
917.38	14583
917.491	14689
917.603	14644
917.715	14724
917.826	14678
917.938	14549
918.049	14396
918.161	14621
918.272	14712
918.384	14735
918.495	14514
918.606	14381
918.717	14313
918.828	14396
918.939	14488
919.05	14275
919.161	14328
919.272	14199
919.383	14214
919.494	14358
919.604	14492
919.715	14366
919.826	14309
919.936	14328
920.047	14450
920.157	14339
920.267	14564
920.378	14389
920.488	14366
920.598	14545
920.708	14651
920.818	14473
920.928	14446
921.038	14667
921.148	14522
921.258	14328
921.368	14134
921.477	14069
921.587	14058
921.697	13978
921.806	14058
921.916	13909
922.025	13795
922.134	13712
922.244	13670
922.353	13776
922.462	13658
922.571	13544
922.68	13377
922.789	13335
922.898	13445
923.007	13343
923.116	13369
923.224	13384
923.333	13384
923.442	13202
923.55	13118
923.659	13244
923.767	13198
923.876	13141
923.984	13285
924.092	13149
924.201	13137
924.309	13160
924.417	13118
924.525	13019
924.633	13000
924.741	13788
924.849	12909
924.956	12981
925.064	12840
925.172	12734
925.279	12715
925.387	12817
925.494	12810
925.602	12981
925.709	12943
925.816	12635
925.924	12764
926.031	12829
926.138	12646
926.245	12806
926.352	12684
926.459	12890
926.566	12863
926.673	12650
926.779	12601
926.886	12536
926.993	12532
927.099	12407
927.206	12319
927.312	12422
927.419	12357
927.525	12296
927.631	12338
927.737	12300
927.843	12232
927.95	12053
928.056	12148
928.162	12091
928.267	12251
928.373	12844
928.479	12232
928.585	12049
928.69	12178
928.796	12201
928.901	12125
929.007	11923
929.112	11996
929.218	11939
929.323	11923
929.428	11950
929.533	12136
929.638	11885
929.743	11885
929.848	11832
929.953	11904
930.058	11832
930.163	11596
930.267	11695
930.372	11729
930.477	11558
930.581	11805
930.685	11646
930.79	11493
930.894	11524
930.998	11497
931.103	11581
931.207	11269
931.311	11235
931.415	11128
931.519	10889
931.623	10839
