Data from test_V78500241_767.txt Node
Date: Fri Mar 25 15:47:06 CST 2022
User: usil
Spectrometer: V785-0024
Trigger mode: 0
Integration Time (sec): 4.000000E-1
Scans to average: 1
Nonlinearity correction enabled: false
Boxcar width: 0
Storing dark spectrum: false
XAxis mode: Wavelengths
Number of Pixels in Spectrum: 1024
>>>>>Begin Spectral Data<<<<<
801.071	27857
801.214	28029
801.356	27629
801.499	27564
801.641	27473
801.783	27549
801.926	27637
802.068	27431
802.211	27325
802.353	27294
802.496	27154
802.638	27062
802.78	27135
802.923	27138
803.065	27226
803.208	27188
803.35	27260
803.492	27260
803.635	27310
803.777	27302
803.919	27401
804.061	27564
804.204	27256
804.346	27386
804.488	27321
804.63	27188
804.773	27268
804.915	27454
805.057	27515
805.199	27386
805.341	27439
805.483	27431
805.626	27317
805.768	27332
805.91	27382
806.052	27450
806.194	27485
806.336	27591
806.478	27447
806.62	27466
806.762	27682
806.904	27819
807.046	28063
807.188	27873
807.33	28002
807.472	28051
807.614	27911
807.756	27926
807.898	27701
808.04	27804
808.182	27751
808.324	27861
808.465	27743
808.607	28025
808.749	28063
808.891	28276
809.033	28382
809.174	28257
809.316	28154
809.458	28181
809.6	28070
809.741	28200
809.883	28295
810.025	28367
810.166	28367
810.308	28527
810.45	28424
810.591	28314
810.733	28268
810.875	28131
811.016	28120
811.158	28109
811.299	28188
811.441	28272
811.582	28371
811.724	28306
811.865	28147
812.007	28147
812.148	28002
812.29	28284
812.431	28363
812.573	28561
812.714	28653
812.855	28660
812.997	28862
813.138	28881
813.279	28858
813.421	28717
813.562	28687
813.703	28447
813.845	28280
813.986	28147
814.127	28017
814.268	27838
814.41	27949
814.551	27831
814.692	27774
814.833	27789
814.974	27804
815.115	27835
815.256	27701
815.397	27728
815.539	27785
815.68	27652
815.821	27561
815.962	27644
816.103	27637
816.244	27641
816.385	27458
816.526	27561
816.666	27325
816.807	27135
816.948	27188
817.089	27123
817.23	27176
817.371	27066
817.512	27100
817.653	27028
817.793	27123
817.934	27127
818.075	27146
818.216	27249
818.356	27043
818.497	26982
818.638	26887
818.778	26933
818.919	26910
819.06	26880
819.2	27024
819.341	27135
819.481	27245
819.622	27218
819.762	27633
819.903	27374
820.043	27291
820.184	27306
820.324	27169
820.465	27321
820.605	27184
820.746	27310
820.886	27161
821.026	27211
821.167	27146
821.307	27249
821.447	27104
821.588	27150
821.728	26830
821.868	26838
822.008	26621
822.149	26575
822.289	26609
822.429	26332
822.569	26298
822.709	26290
822.849	26119
822.99	26210
823.13	26065
823.27	26046
823.41	25993
823.55	25860
823.69	25936
823.83	26039
823.97	25917
824.11	25727
824.25	25674
824.389	25906
824.529	25986
824.669	25932
824.809	25902
824.949	25906
825.089	26065
825.228	25731
825.368	25525
825.508	25487
825.648	25605
825.787	25731
825.927	25651
826.067	25586
826.206	25613
826.346	25761
826.485	25742
826.625	25635
826.765	25677
826.904	25734
827.044	25457
827.183	25487
827.323	25266
827.462	25350
827.601	25354
827.741	25263
827.88	25419
828.02	25164
828.159	25339
828.298	25422
828.437	25472
828.577	25331
828.716	25491
828.855	25362
828.994	25038
829.134	25110
829.273	25103
829.412	24977
829.551	25023
829.69	25179
829.829	25080
829.968	25141
830.107	25202
830.246	25046
830.385	25133
830.524	24962
830.663	24970
830.802	24719
830.941	24661
831.08	24726
831.219	24829
831.357	24802
831.496	24859
831.635	24745
831.774	24658
831.913	24513
832.051	24486
832.19	24574
832.329	24414
832.467	24365
832.606	24350
832.744	24277
832.883	24361
833.022	24414
833.16	24388
833.299	24502
833.437	24410
833.576	24437
833.714	24410
833.852	24521
833.991	24498
834.129	24505
834.267	24490
834.406	24410
834.544	24475
834.682	24536
834.821	24350
834.959	24528
835.097	24346
835.235	24376
835.373	24330
835.511	24376
835.65	24334
835.788	24220
835.926	24186
836.064	24125
836.202	24076
836.34	24235
836.478	24239
836.615	24247
836.753	24304
836.891	24167
837.029	24277
837.167	24197
837.305	24205
837.443	24106
837.58	24102
837.718	24148
837.856	24121
837.993	23980
838.131	24049
838.269	23863
838.406	23916
838.544	23935
838.681	23760
838.819	23805
838.956	23520
839.094	23512
839.231	23596
839.369	23798
839.506	23874
839.643	23843
839.781	23474
839.918	23509
840.055	23630
840.193	23410
840.33	23524
840.467	23535
840.604	23474
840.742	23718
840.879	23436
841.016	23474
841.153	23387
841.29	23657
841.427	23547
841.564	23459
841.701	23501
841.838	23376
841.975	23417
842.112	23364
842.249	23311
842.385	23258
842.522	23474
842.659	23379
842.796	23170
842.933	23170
843.069	23200
843.206	23193
843.343	23250
843.479	23280
843.616	23189
843.752	22987
843.889	22984
844.025	23132
844.162	22961
844.298	23113
844.435	22965
844.571	22915
844.708	23086
844.844	23086
844.98	23159
845.117	23090
845.253	22930
845.389	22778
845.525	22938
845.661	22752
845.798	22744
845.934	22748
846.07	22675
846.206	22721
846.342	22805
846.478	22733
846.614	22557
846.75	22421
846.886	22550
847.022	22421
847.158	22367
847.294	22390
847.429	22455
847.565	22428
847.701	22557
847.837	22188
847.972	22295
848.108	22154
848.244	22238
848.379	22109
848.515	22055
848.65	22078
848.786	22036
848.921	22078
849.057	22139
849.192	22105
849.328	22109
849.463	22086
849.598	21922
849.734	21899
849.869	21800
850.004	21766
850.14	21823
850.275	21842
850.41	21679
850.545	21663
850.68	21739
850.815	21728
850.95	21892
851.085	22044
851.22	21975
851.355	21785
851.49	21766
851.625	21755
851.76	21838
851.895	21747
852.03	21747
852.165	21869
852.299	21998
852.434	21964
852.569	21800
852.703	21781
852.838	21876
852.973	21972
853.107	21918
853.242	21675
853.376	21728
853.511	21447
853.645	21637
853.78	21743
853.914	21759
854.048	21625
854.183	21591
854.317	21625
854.451	21762
854.585	21698
854.72	21614
854.854	21717
854.988	21545
855.122	21599
855.256	21504
855.39	21572
855.524	21625
855.658	21717
855.792	21637
855.926	21667
856.06	21819
856.194	21720
856.327	21827
856.461	21576
856.595	21523
856.729	21549
856.862	21762
856.996	21622
857.13	21778
857.263	21713
857.397	21736
857.53	21625
857.664	21629
857.797	21705
857.931	21644
858.064	21614
858.197	21622
858.331	21641
858.464	21629
858.597	21450
858.731	21511
858.864	21469
858.997	21545
859.13	21663
859.263	21580
859.396	21736
859.529	21736
859.662	21614
859.795	21553
859.928	21690
860.061	21850
860.194	21766
860.327	21660
860.46	21804
860.592	21831
860.725	21762
860.858	21823
860.99	21641
861.123	21473
861.256	21507
861.388	21538
861.521	22287
861.653	21591
861.786	21408
861.918	21351
862.05	21534
862.183	21511
862.315	21583
862.447	21591
862.58	21530
862.712	21393
862.844	21329
862.976	21367
863.108	21329
863.24	21781
863.372	21321
863.504	21340
863.636	21412
863.768	21412
863.9	21279
864.032	21211
864.164	21469
864.296	21393
864.428	21462
864.559	21389
864.691	21469
864.823	21329
864.954	21317
865.086	21325
865.217	21256
865.349	21123
865.48	21325
865.612	21222
865.743	21329
865.875	21306
866.006	21127
866.137	21199
866.269	21173
866.4	21272
866.531	21100
866.662	21146
866.793	21108
866.924	21157
867.055	21214
867.186	21100
867.317	21051
867.448	21081
867.579	21020
867.71	21077
867.841	21207
867.972	21157
868.103	21161
868.233	21146
868.364	21226
868.495	21260
868.625	21348
868.756	21477
868.886	21336
869.017	21428
869.147	21469
869.278	21561
869.408	21386
869.539	21355
869.669	21496
869.799	21473
869.929	21641
870.06	21534
870.19	21732
870.32	21610
870.45	21682
870.58	21804
870.71	21720
870.84	21835
870.97	21747
871.1	21930
871.23	21998
871.36	22036
871.489	21911
871.619	21983
871.749	22025
871.879	22063
872.008	22124
872.138	22044
872.267	22040
872.397	21751
872.526	21823
872.656	21819
872.785	21804
872.915	21934
873.044	22029
873.173	22010
873.303	22029
873.432	22048
873.561	22063
873.69	21979
873.819	21964
873.948	22112
874.077	22021
874.206	22078
874.335	22101
874.464	22086
874.593	22253
874.722	22238
874.851	22322
874.979	22207
875.108	22223
875.237	22154
875.365	22238
875.494	22196
875.623	22409
875.751	22276
875.88	22169
876.008	22287
876.136	22341
876.265	22687
876.393	22702
876.521	22675
876.65	22694
876.778	22717
876.906	22588
877.034	22478
877.162	22573
877.29	22531
877.418	22634
877.546	22565
877.674	22675
877.802	22645
877.93	22516
878.058	22500
878.185	22478
878.313	22603
878.441	22630
878.568	22459
878.696	22447
878.824	22569
878.951	22660
879.079	22797
879.206	22934
879.333	22812
879.461	22660
879.588	22725
879.715	22744
879.842	22828
879.97	22653
880.097	22489
880.224	22443
880.351	22329
880.478	22344
880.605	22363
880.732	22394
880.859	22588
880.986	22367
881.112	22481
881.239	22310
881.366	22082
881.493	22093
881.619	21983
881.746	21972
881.872	22044
881.999	21994
882.125	21804
882.252	22090
882.378	21937
882.505	22139
882.631	21953
882.757	21781
882.883	21778
883.01	21789
883.136	21675
883.262	21564
883.388	21523
883.514	21618
883.64	21660
883.766	21614
883.892	21363
884.018	21408
884.143	21682
884.269	21717
884.395	21294
884.52	21249
884.646	21344
884.772	21260
884.897	21279
885.023	21306
885.148	21367
885.274	21507
885.399	21477
885.524	21450
885.65	21359
885.775	21096
885.9	21374
886.025	21488
886.15	21466
886.275	21302
886.4	21127
886.525	21146
886.65	21195
886.775	21226
886.9	21507
887.025	21473
887.149	21298
887.274	21119
887.399	20990
887.523	21062
887.648	21024
887.773	21096
887.897	21051
888.021	21127
888.146	21070
888.27	21226
888.395	21116
888.519	21096
888.643	21108
888.767	21108
888.891	21005
889.015	20815
889.139	20880
889.263	20906
889.387	20887
889.511	21165
889.635	20960
889.759	20902
889.883	20853
890.006	20823
890.13	20944
890.254	20773
890.377	20804
890.501	20587
890.624	20552
890.748	20651
890.871	20476
890.995	20537
891.118	20366
891.241	20434
891.364	20492
891.488	20541
891.611	20469
891.734	20434
891.857	20454
891.98	20560
892.103	20575
892.226	20469
892.349	20415
892.471	20336
892.594	20339
892.717	20336
892.839	20400
892.962	20442
893.085	20400
893.207	20408
893.33	20138
893.452	20259
893.575	20484
893.697	20256
893.819	20507
893.941	20514
894.064	20480
894.186	20240
894.308	20248
894.43	20434
894.552	20533
894.674	20438
894.796	20187
894.918	20328
895.04	20237
895.161	20362
895.283	20446
895.405	20229
895.526	20385
895.648	20343
895.769	20313
895.891	20438
896.012	20412
896.134	20366
896.255	20393
896.376	20332
896.498	20358
896.619	20374
896.74	20324
896.861	20400
896.982	20590
897.103	20705
897.224	20625
897.345	20495
897.466	20404
897.587	20549
897.708	20701
897.828	20533
897.949	20621
898.07	20351
898.19	20507
898.311	20655
898.431	20438
898.552	20602
898.672	20617
898.792	20682
898.913	20533
899.033	20419
899.153	20389
899.273	20180
899.393	20358
899.513	20415
899.633	20259
899.753	20305
899.873	20233
899.993	20271
900.113	20396
900.232	20320
900.352	20199
900.472	20164
900.591	20016
900.711	20092
900.83	20016
900.95	20077
901.069	20157
901.189	19967
901.308	19666
901.427	19715
901.546	19624
901.665	19613
901.784	19609
901.904	19518
902.023	19487
902.141	19263
902.26	19194
902.379	19145
902.498	19190
902.617	18989
902.735	19012
902.854	19228
902.973	19072
903.091	18867
903.21	18829
903.328	18875
903.446	18783
903.565	18498
903.683	18631
903.801	18544
903.919	18582
904.038	18623
904.156	18346
904.274	18448
904.392	18369
904.51	18327
904.627	18464
904.745	18410
904.863	18391
904.981	18079
905.098	18083
905.216	18019
905.334	18133
905.451	18041
905.569	18060
905.686	18045
905.803	18003
905.921	17885
906.038	18011
906.155	17885
906.272	17745
906.389	17764
906.506	17691
906.623	17642
906.74	17539
906.857	17463
906.974	17417
907.091	17611
907.208	17783
907.324	17619
907.441	17448
907.557	17254
907.674	17292
907.79	17277
907.907	17208
908.023	17303
908.139	17417
908.256	17261
908.372	17273
908.488	17208
908.604	17102
908.72	16987
908.836	17018
908.952	16953
909.068	17136
909.184	17098
909.3	17018
909.415	17029
909.531	17060
909.647	16763
909.762	16653
909.878	16820
909.993	16702
910.108	16740
910.224	16721
910.339	16664
910.454	16573
910.57	16592
910.685	16512
910.8	16793
910.915	16580
911.03	16436
911.145	16405
911.259	16291
911.374	16371
911.489	16249
911.604	16139
911.718	16055
911.833	16109
911.947	15953
912.062	15964
912.176	16044
912.291	16173
912.405	16051
912.519	16215
912.633	16219
912.748	16166
912.862	16032
912.976	15899
913.09	15797
913.204	15888
913.318	15888
913.431	15960
913.545	15975
913.659	15960
913.772	15736
913.886	15667
914	15663
914.113	15717
914.226	15785
914.34	15747
914.453	15614
914.566	15800
914.68	15625
914.793	15443
914.906	15397
915.019	15279
915.132	15283
915.245	15310
915.358	15298
915.47	15351
915.583	15272
915.696	15245
915.809	15424
915.921	15447
916.034	15283
916.146	15119
916.259	15214
916.371	15332
916.483	15192
916.595	15112
916.708	15138
916.82	15195
916.932	15051
917.044	15009
917.156	15058
917.268	14971
917.38	14929
917.491	15020
917.603	14952
917.715	14975
917.826	15017
917.938	14853
918.049	14758
918.161	14880
918.272	15017
918.384	14979
918.495	14819
918.606	14739
918.717	14541
918.828	14712
918.939	14743
919.05	14655
919.161	14651
919.272	14438
919.383	14594
919.494	14670
919.604	14845
919.715	14678
919.826	14549
919.936	14625
920.047	14758
920.157	14663
920.267	14777
920.378	14621
920.488	14670
920.598	14872
920.708	15001
920.818	14785
920.928	14815
921.038	14986
921.148	14876
921.258	14583
921.368	14560
921.477	14412
921.587	14320
921.697	14164
921.806	14408
921.916	14248
922.025	14119
922.134	14077
922.244	13955
922.353	14084
922.462	13807
922.571	13799
922.68	13715
922.789	13662
922.898	13666
923.007	13586
923.116	13582
923.224	13590
923.333	13571
923.442	13472
923.55	13495
923.659	13624
923.767	13415
923.876	13514
923.984	13552
924.092	13377
924.201	13377
924.309	13396
924.417	13411
924.525	13274
924.633	13259
924.741	14313
924.849	13053
924.956	13202
925.064	13126
925.172	13080
925.279	13160
925.387	13080
925.494	13027
925.602	13206
925.709	13110
925.816	12966
925.924	13008
926.031	13023
926.138	13004
926.245	13038
926.352	12947
926.459	13023
926.566	13091
926.673	12905
926.779	12875
926.886	12840
926.993	12730
927.099	12642
927.206	12536
927.312	12597
927.419	12692
927.525	12601
927.631	12779
927.737	12448
927.843	12460
927.95	12376
928.056	12422
928.162	12456
928.267	12570
928.373	13118
928.479	12513
928.585	12296
928.69	12395
928.796	12410
928.901	12357
929.007	12239
929.112	12277
929.218	12239
929.323	12247
929.428	12186
929.533	12277
929.638	12125
929.743	12178
929.848	12228
929.953	12083
930.058	12011
930.163	11912
930.267	11908
930.372	11996
930.477	11832
930.581	12076
930.685	11912
930.79	11764
930.894	11756
930.998	11680
931.103	11912
931.207	11520
931.311	11330
931.415	11265
931.519	11155
931.623	11102
