Data from test_V78500241_1282.txt Node
Date: Fri Mar 25 15:50:40 CST 2022
User: usil
Spectrometer: V785-0024
Trigger mode: 0
Integration Time (sec): 4.000000E-1
Scans to average: 1
Nonlinearity correction enabled: false
Boxcar width: 0
Storing dark spectrum: false
XAxis mode: Wavelengths
Number of Pixels in Spectrum: 1024
>>>>>Begin Spectral Data<<<<<
801.071	28116
801.214	27918
801.356	27762
801.499	27819
801.641	27618
801.783	27656
801.926	27686
802.068	27614
802.211	27595
802.353	27454
802.496	27275
802.638	27272
802.78	27169
802.923	27192
803.065	27077
803.208	27127
803.35	27237
803.492	27291
803.635	27553
803.777	27195
803.919	27511
804.061	27728
804.204	27408
804.346	27313
804.488	27351
804.63	27534
804.773	27340
804.915	27408
805.057	27717
805.199	27321
805.341	27595
805.483	27625
805.626	27736
805.768	27496
805.91	27648
806.052	27785
806.194	27526
806.336	27690
806.478	27633
806.62	27648
806.762	27759
806.904	27831
807.046	28135
807.188	28036
807.33	28147
807.472	28135
807.614	28086
807.756	27991
807.898	27903
808.04	27781
808.182	27823
808.324	27907
808.465	28029
808.607	28291
808.749	28375
808.891	28375
809.033	28409
809.174	28504
809.316	28257
809.458	28234
809.6	28310
809.741	28390
809.883	28497
810.025	28523
810.166	28470
810.308	28679
810.45	28561
810.591	28440
810.733	28325
810.875	28211
811.016	28109
811.158	28112
811.299	28276
811.441	28470
811.582	28497
811.724	28318
811.865	28390
812.007	28082
812.148	28401
812.29	28421
812.431	28417
812.573	28538
812.714	28793
812.855	28706
812.997	28854
813.138	29151
813.279	28801
813.421	28725
813.562	28656
813.703	28645
813.845	28512
813.986	28261
814.127	28036
814.268	28059
814.41	27964
814.551	27869
814.692	27945
814.833	27987
814.974	28013
815.115	28093
815.256	27850
815.397	27914
815.539	27994
815.68	27808
815.821	27732
815.962	27720
816.103	27747
816.244	27595
816.385	27523
816.526	27614
816.666	27359
816.807	27226
816.948	27344
817.089	27348
817.23	27367
817.371	27272
817.512	27317
817.653	27226
817.793	27207
817.934	27195
818.075	27313
818.216	27230
818.356	27173
818.497	27058
818.638	26952
818.778	27005
818.919	26998
819.06	27062
819.2	27195
819.341	27154
819.481	27195
819.622	27447
819.762	27553
819.903	27519
820.043	27568
820.184	27302
820.324	27344
820.465	27466
820.605	27321
820.746	27249
820.886	27146
821.026	27260
821.167	27355
821.307	27275
821.447	27363
821.588	27211
821.728	27096
821.868	26895
822.008	26743
822.149	26914
822.289	26712
822.429	26412
822.569	26434
822.709	26446
822.849	26313
822.99	26305
823.13	26149
823.27	26199
823.41	25940
823.55	25940
823.69	26149
823.83	26126
823.97	26020
824.11	25845
824.25	25738
824.389	25761
824.529	25890
824.669	25928
824.809	25978
824.949	26012
825.089	25986
825.228	25860
825.368	25761
825.508	25727
825.648	25788
825.787	25784
825.927	25776
826.067	25712
826.206	25662
826.346	25811
826.485	25830
826.625	25780
826.765	25879
826.904	25757
827.044	25586
827.183	25586
827.323	25396
827.462	25514
827.601	25430
827.741	25388
827.88	25537
828.02	25320
828.159	25419
828.298	25438
828.437	25499
828.577	25377
828.716	25430
828.855	25445
828.994	25228
829.134	25137
829.273	25228
829.412	25126
829.551	25206
829.69	25190
829.829	25198
829.968	25251
830.107	25137
830.246	25232
830.385	25046
830.524	24962
830.663	24970
830.802	24886
830.941	24833
831.08	24749
831.219	24829
831.357	24821
831.496	24989
831.635	24745
831.774	24684
831.913	24616
832.051	24604
832.19	24388
832.329	24608
832.467	24433
832.606	24410
832.744	24452
832.883	24483
833.022	24361
833.16	24483
833.299	24395
833.437	24521
833.576	24555
833.714	24604
833.852	24490
833.991	24525
834.129	24563
834.267	24582
834.406	24536
834.544	24528
834.682	24483
834.821	24323
834.959	24585
835.097	24403
835.235	24407
835.373	24525
835.511	24563
835.65	24300
835.788	24388
835.926	24342
836.064	24095
836.202	24220
836.34	24350
836.478	24323
836.615	24399
836.753	24228
836.891	24289
837.029	24346
837.167	24163
837.305	24258
837.443	24072
837.58	24216
837.718	24224
837.856	24220
837.993	24114
838.131	24171
838.269	23961
838.406	24148
838.544	24007
838.681	23783
838.819	23790
838.956	23661
839.094	23672
839.231	23722
839.369	23813
839.506	24045
839.643	23904
839.781	23619
839.918	23592
840.055	23573
840.193	23573
840.33	23543
840.467	23604
840.604	23528
840.742	23642
840.879	23376
841.016	23444
841.153	23341
841.29	23642
841.427	23490
841.564	23573
841.701	23531
841.838	23379
841.975	23421
842.112	23402
842.249	23265
842.385	23273
842.522	23539
842.659	23356
842.796	23212
842.933	23269
843.069	23220
843.206	23216
843.343	23277
843.479	23455
843.616	23356
843.752	23098
843.889	23075
844.025	23193
844.162	22995
844.298	23216
844.435	23086
844.571	22965
844.708	23147
844.844	23166
844.98	23235
845.117	23136
845.253	23094
845.389	22843
845.525	22866
845.661	23022
845.798	22850
845.934	22930
846.07	22790
846.206	22869
846.342	22877
846.478	22816
846.614	22599
846.75	22554
846.886	22443
847.022	22588
847.158	22580
847.294	22622
847.429	22421
847.565	22485
847.701	22782
847.837	22219
847.972	22318
848.108	22402
848.244	22375
848.379	22158
848.515	22086
848.65	22044
848.786	22177
848.921	22044
849.057	22154
849.192	22154
849.328	22135
849.463	22162
849.598	22067
849.734	22051
849.869	22006
850.004	21937
850.14	21979
850.275	21816
850.41	21778
850.545	21743
850.68	21899
850.815	21907
850.95	21846
851.085	21975
851.22	21888
851.355	21895
851.49	21880
851.625	21926
851.76	21766
851.895	21770
852.03	21789
852.165	21895
852.299	21907
852.434	21907
852.569	21880
852.703	21949
852.838	21789
852.973	21979
853.107	21934
853.242	21789
853.376	21713
853.511	21481
853.645	21622
853.78	21846
853.914	21660
854.048	21766
854.183	21701
854.317	21739
854.451	21991
854.585	21827
854.72	21766
854.854	21774
854.988	21622
855.122	21728
855.256	21523
855.39	21698
855.524	21793
855.658	21667
855.792	21660
855.926	21755
856.06	21785
856.194	21747
856.327	21793
856.461	21625
856.595	21576
856.729	21808
856.862	21911
856.996	21583
857.13	21778
857.263	21842
857.397	21724
857.53	21755
857.664	21629
857.797	21652
857.931	21751
858.064	21671
858.197	21778
858.331	21785
858.464	21576
858.597	21606
858.731	21671
858.864	21675
858.997	21686
859.13	21663
859.263	21724
859.396	21823
859.529	21633
859.662	21656
859.795	21625
859.928	21656
860.061	21770
860.194	21911
860.327	21720
860.46	21686
860.592	21774
860.725	21869
860.858	21762
860.99	21793
861.123	21633
861.256	21648
861.388	21717
861.521	22257
861.653	21599
861.786	21454
861.918	21542
862.05	21519
862.183	21538
862.315	21644
862.447	21732
862.58	21583
862.712	21462
862.844	21272
862.976	21507
863.108	21485
863.24	21770
863.372	21386
863.504	21454
863.636	21469
863.768	21473
863.9	21428
864.032	21351
864.164	21348
864.296	21355
864.428	21671
864.559	21443
864.691	21386
864.823	21469
864.954	21351
865.086	21431
865.217	21408
865.349	21245
865.48	21211
865.612	21302
865.743	21443
865.875	21249
866.006	21260
866.137	21386
866.269	21325
866.4	21355
866.531	21112
866.662	21169
866.793	21203
866.924	21150
867.055	21226
867.186	21310
867.317	21154
867.448	21146
867.579	21199
867.71	21264
867.841	21036
867.972	21329
868.103	21218
868.233	21188
868.364	21070
868.495	21222
868.625	21420
868.756	21648
868.886	21348
869.017	21511
869.147	21606
869.278	21534
869.408	21553
869.539	21374
869.669	21500
869.799	21595
869.929	21641
870.06	21507
870.19	21789
870.32	21739
870.45	21827
870.58	21968
870.71	21880
870.84	21895
870.97	21846
871.1	21937
871.23	21964
871.36	22093
871.489	21907
871.619	22105
871.749	22086
871.879	22211
872.008	22253
872.138	21956
872.267	22017
872.397	22082
872.526	21987
872.656	22013
872.785	21918
872.915	22112
873.044	22344
873.173	22112
873.303	22101
873.432	22150
873.561	22105
873.69	22150
873.819	22147
873.948	22131
874.077	22185
874.206	22074
874.335	22162
874.464	22139
874.593	22379
874.722	22276
874.851	22177
874.979	22337
875.108	22181
875.237	22238
875.365	22207
875.494	22382
875.623	22394
875.751	22234
875.88	22325
876.008	22413
876.136	22489
876.265	22691
876.393	22774
876.521	22672
876.65	22748
876.778	22687
876.906	22763
877.034	22607
877.162	22736
877.29	22565
877.418	22778
877.546	22656
877.674	22702
877.802	22622
877.93	22683
878.058	22573
878.185	22440
878.313	22603
878.441	22637
878.568	22535
878.696	22641
878.824	22835
878.951	22736
879.079	22949
879.206	22854
879.333	22866
879.461	22653
879.588	22790
879.715	22850
879.842	22972
879.97	22698
880.097	22508
880.224	22421
880.351	22588
880.478	22440
880.605	22409
880.732	22474
880.859	22713
880.986	22462
881.112	22462
881.239	22398
881.366	22181
881.493	22181
881.619	22055
881.746	21979
881.872	22086
881.999	22082
882.125	21972
882.252	22029
882.378	21937
882.505	22139
882.631	21827
882.757	21747
882.883	21827
883.01	21793
883.136	21720
883.262	21629
883.388	21671
883.514	21797
883.64	21732
883.766	21637
883.892	21591
884.018	21488
884.143	21667
884.269	21785
884.395	21507
884.52	21401
884.646	21431
884.772	21306
884.897	21165
885.023	21424
885.148	21439
885.274	21568
885.399	21454
885.524	21367
885.65	21511
885.775	21363
885.9	21355
886.025	21466
886.15	21378
886.275	21306
886.4	21370
886.525	21283
886.65	21233
886.775	21408
886.9	21450
887.025	21622
887.149	21298
887.274	21142
887.399	21074
887.523	21176
887.648	21055
887.773	21028
887.897	21256
888.021	21176
888.146	21062
888.27	21321
888.395	21214
888.519	21260
888.643	21093
888.767	21260
888.891	21165
889.015	20971
889.139	21077
889.263	20952
889.387	21104
889.511	21085
889.635	21039
889.759	20864
889.883	20941
890.006	20967
890.13	21017
890.254	20921
890.377	20842
890.501	20720
890.624	20735
890.748	20792
890.871	20575
890.995	20427
891.118	20427
891.241	20514
891.364	20507
891.488	20533
891.611	20469
891.734	20518
891.857	20480
891.98	20457
892.103	20492
892.226	20503
892.349	20419
892.471	20343
892.594	20332
892.717	20465
892.839	20450
892.962	20305
893.085	20328
893.207	20366
893.33	20332
893.452	20351
893.575	20362
893.697	20381
893.819	20480
893.941	20629
894.064	20613
894.186	20400
894.308	20286
894.43	20442
894.552	20431
894.674	20609
894.796	20355
894.918	20404
895.04	20370
895.161	20393
895.283	20431
895.405	20347
895.526	20358
895.648	20362
895.769	20503
895.891	20457
896.012	20575
896.134	20541
896.255	20434
896.376	20237
896.498	20404
896.619	20385
896.74	20370
896.861	20438
896.982	20826
897.103	20880
897.224	20583
897.345	20640
897.466	20518
897.587	20625
897.708	20838
897.828	20640
897.949	20590
898.07	20442
898.19	20537
898.311	20731
898.431	20609
898.552	20598
898.672	20655
898.792	20632
898.913	20602
899.033	20629
899.153	20465
899.273	20400
899.393	20305
899.513	20473
899.633	20301
899.753	20385
899.873	20336
899.993	20385
900.113	20301
900.232	20385
900.352	20282
900.472	20180
900.591	20081
900.711	20096
900.83	20115
900.95	20267
901.069	20336
901.189	20043
901.308	19833
901.427	19719
901.546	19708
901.665	19708
901.784	19734
901.904	19518
902.023	19426
902.141	19354
902.26	19225
902.379	19316
902.498	19274
902.617	19190
902.735	19206
902.854	19190
902.973	19050
903.091	18962
903.21	18871
903.328	18939
903.446	18779
903.565	18738
903.683	18673
903.801	18578
903.919	18688
904.038	18593
904.156	18391
904.274	18540
904.392	18464
904.51	18361
904.627	18509
904.745	18540
904.863	18403
904.981	18186
905.098	18015
905.216	18186
905.334	18159
905.451	18171
905.569	18038
905.686	18155
905.803	18057
905.921	17965
906.038	18038
906.155	17969
906.272	17851
906.389	17802
906.506	17649
906.623	17619
906.74	17604
906.857	17486
906.974	17577
907.091	17684
907.208	17798
907.324	17684
907.441	17581
907.557	17356
907.674	17330
907.79	17337
907.907	17368
908.023	17463
908.139	17349
908.256	17330
908.372	17315
908.488	17239
908.604	17113
908.72	17025
908.836	17128
908.952	17041
909.068	17045
909.184	17140
909.3	17083
909.415	17155
909.531	17041
909.647	16858
909.762	16812
909.878	16717
909.993	16862
910.108	16782
910.224	16771
910.339	16797
910.454	16592
910.57	16622
910.685	16512
910.8	16866
910.915	16793
911.03	16641
911.145	16561
911.259	16390
911.374	16489
911.489	16344
911.604	16257
911.718	16135
911.833	16173
911.947	16135
912.062	16029
912.176	16181
912.291	16188
912.405	16147
912.519	16344
912.633	16257
912.748	16272
912.862	16112
912.976	16078
913.09	15785
913.204	15854
913.318	15972
913.431	16036
913.545	16055
913.659	16051
913.772	15911
913.886	15808
914	15739
914.113	15945
914.226	15846
914.34	15720
914.453	15641
914.566	15842
914.68	15690
914.793	15606
914.906	15397
915.019	15332
915.132	15325
915.245	15329
915.358	15469
915.47	15351
915.583	15348
915.696	15321
915.809	15374
915.921	15519
916.034	15306
916.146	15237
916.259	15214
916.371	15340
916.483	15252
916.595	15192
916.708	15249
916.82	15252
916.932	15127
917.044	15173
917.156	15043
917.268	14895
917.38	15081
917.491	15020
917.603	14948
917.715	15081
917.826	15116
917.938	14910
918.049	14967
918.161	14998
918.272	15108
918.384	15058
918.495	14937
918.606	14807
918.717	14720
918.828	14804
918.939	14906
919.05	14667
919.161	14701
919.272	14530
919.383	14526
919.494	14842
919.604	14887
919.715	14800
919.826	14667
919.936	14746
920.047	14750
920.157	14746
920.267	14910
920.378	14777
920.488	14697
920.598	14941
920.708	15005
920.818	14891
920.928	14941
921.038	15058
921.148	14960
921.258	14701
921.368	14655
921.477	14552
921.587	14537
921.697	14237
921.806	14495
921.916	14286
922.025	14172
922.134	14176
922.244	14065
922.353	14210
922.462	14031
922.571	13902
922.68	13761
922.789	13738
922.898	13822
923.007	13674
923.116	13807
923.224	13742
923.333	13685
923.442	13578
923.55	13552
923.659	13677
923.767	13632
923.876	13476
923.984	13616
924.092	13518
924.201	13521
924.309	13441
924.417	13540
924.525	13358
924.633	13419
924.741	14374
924.849	13228
924.956	13365
925.064	13240
925.172	13088
925.279	13137
925.387	13171
925.494	13118
925.602	13270
925.709	13168
925.816	13088
925.924	13122
926.031	13183
926.138	13088
926.245	13164
926.352	12951
926.459	13095
926.566	13175
926.673	12939
926.779	12920
926.886	12871
926.993	12791
927.099	12726
927.206	12673
927.312	12688
927.419	12772
927.525	12715
927.631	12741
927.737	12681
927.843	12486
927.95	12391
928.056	12475
928.162	12506
928.267	12677
928.373	13137
928.479	12555
928.585	12315
928.69	12582
928.796	12528
928.901	12433
929.007	12235
929.112	12388
929.218	12319
929.323	12311
929.428	12270
929.533	12319
929.638	12232
929.743	12171
929.848	12197
929.953	12258
930.058	12098
930.163	11931
930.267	12041
930.372	11988
930.477	11878
930.581	12068
930.685	11977
930.79	11813
930.894	11920
930.998	11737
931.103	11920
931.207	11532
931.311	11543
931.415	11341
931.519	11208
931.623	11159
