Data from test_V78500241_3365.txt Node
Date: Fri Mar 25 16:05:06 CST 2022
User: usil
Spectrometer: V785-0024
Trigger mode: 0
Integration Time (sec): 4.000000E-1
Scans to average: 1
Nonlinearity correction enabled: false
Boxcar width: 0
Storing dark spectrum: false
XAxis mode: Wavelengths
Number of Pixels in Spectrum: 1024
>>>>>Begin Spectral Data<<<<<
801.071	28782
801.214	28790
801.356	28641
801.499	28497
801.641	28436
801.783	28504
801.926	28421
802.068	28375
802.211	28417
802.353	28333
802.496	28185
802.638	28131
802.78	28177
802.923	28124
803.065	28048
803.208	28063
803.35	28223
803.492	28207
803.635	28352
803.777	28348
803.919	28333
804.061	28653
804.204	28474
804.346	28333
804.488	28356
804.63	28318
804.773	28287
804.915	28398
805.057	28432
805.199	28337
805.341	28557
805.483	28519
805.626	28504
805.768	28432
805.91	28569
806.052	28603
806.194	28478
806.336	28603
806.478	28478
806.62	28519
806.762	28630
806.904	28797
807.046	29044
807.188	28984
807.33	28847
807.472	28904
807.614	29022
807.756	28930
807.898	28812
808.04	28790
808.182	28835
808.324	28790
808.465	28949
808.607	29056
808.749	29216
808.891	29204
809.033	29417
809.174	29299
809.316	29178
809.458	29094
809.6	29159
809.741	29375
809.883	29326
810.025	29520
810.166	29524
810.308	29619
810.45	29463
810.591	29341
810.733	29315
810.875	29151
811.016	29071
811.158	29197
811.299	29360
811.441	29516
811.582	29531
811.724	29296
811.865	29258
812.007	29353
812.148	29292
812.29	29326
812.431	29512
812.573	29524
812.714	29714
812.855	29748
812.997	29737
813.138	29961
813.279	29912
813.421	29767
813.562	29604
813.703	29429
813.845	29531
813.986	29140
814.127	29136
814.268	28847
814.41	28900
814.551	28816
814.692	29044
814.833	28740
814.974	28896
815.115	28873
815.256	28888
815.397	28869
815.539	28896
815.68	28801
815.821	28710
815.962	28771
816.103	28729
816.244	28698
816.385	28641
816.526	28554
816.666	28379
816.807	28204
816.948	28398
817.089	28287
817.23	28306
817.371	28337
817.512	28379
817.653	28306
817.793	28169
817.934	28299
818.075	28360
818.216	28295
818.356	28196
818.497	27983
818.638	27873
818.778	28051
818.919	27968
819.06	28105
819.2	28272
819.341	28200
819.481	28226
819.622	28519
819.762	28645
819.903	28649
820.043	28428
820.184	28344
820.324	28531
820.465	28417
820.605	28409
820.746	28363
820.886	28257
821.026	28394
821.167	28306
821.307	28405
821.447	28360
821.588	28162
821.728	28067
821.868	27964
822.008	27671
822.149	27717
822.289	27701
822.429	27462
822.569	27378
822.709	27511
822.849	27317
822.99	27291
823.13	27176
823.27	27340
823.41	27028
823.55	26933
823.69	27058
823.83	27032
823.97	27009
824.11	26895
824.25	26929
824.389	26880
824.529	26979
824.669	26872
824.809	26998
824.949	26940
825.089	27062
825.228	26948
825.368	26830
825.508	26804
825.648	26655
825.787	26785
825.927	26804
826.067	26895
826.206	26864
826.346	26838
826.485	26815
826.625	26708
826.765	26834
826.904	26830
827.044	26571
827.183	26507
827.323	26537
827.462	26617
827.601	26408
827.741	26465
827.88	26377
828.02	26423
828.159	26453
828.298	26587
828.437	26549
828.577	26511
828.716	26564
828.855	26492
828.994	26199
829.134	26183
829.273	26290
829.412	26199
829.551	26001
829.69	26164
829.829	26161
829.968	26309
830.107	26183
830.246	26282
830.385	26043
830.524	26046
830.663	26039
830.802	25913
830.941	25852
831.08	25723
831.219	25723
831.357	25791
831.496	26149
831.635	25780
831.774	25738
831.913	25632
832.051	25639
832.19	25674
832.329	25681
832.467	25499
832.606	25476
832.744	25381
832.883	25464
833.022	25476
833.16	25491
833.299	25518
833.437	25628
833.576	25422
833.714	25518
833.852	25540
833.991	25601
834.129	25712
834.267	25476
834.406	25430
834.544	25674
834.682	25559
834.821	25415
834.959	25571
835.097	25624
835.235	25616
835.373	25578
835.511	25552
835.65	25327
835.788	25460
835.926	25232
836.064	25126
836.202	25301
836.34	25350
836.478	25472
836.615	25308
836.753	25316
836.891	25392
837.029	25400
837.167	25171
837.305	25282
837.443	25285
837.58	25187
837.718	25301
837.856	25129
837.993	25095
838.131	25324
838.269	25080
838.406	25080
838.544	25076
838.681	24829
838.819	24783
838.956	24642
839.094	24563
839.231	24707
839.369	24905
839.506	25023
839.643	24871
839.781	24696
839.918	24608
840.055	24684
840.193	24528
840.33	24437
840.467	24471
840.604	24601
840.742	24764
840.879	24384
841.016	24437
841.153	24369
841.29	24616
841.427	24536
841.564	24570
841.701	24536
841.838	24410
841.975	24456
842.112	24399
842.249	24376
842.385	24342
842.522	24532
842.659	24486
842.796	24300
842.933	24186
843.069	24197
843.206	24262
843.343	24258
843.479	24201
843.616	24361
843.752	24110
843.889	24030
844.025	24182
844.162	23992
844.298	24251
844.435	24018
844.571	24057
844.708	24129
844.844	24163
844.98	24121
845.117	24159
845.253	24026
845.389	24018
845.525	24018
845.661	24015
845.798	23882
845.934	23870
846.07	23745
846.206	23847
846.342	23843
846.478	23843
846.614	23653
846.75	23490
846.886	23509
847.022	23615
847.158	23547
847.294	23570
847.429	23577
847.565	23471
847.701	23707
847.837	23364
847.972	23117
848.108	23410
848.244	23311
848.379	23208
848.515	23018
848.65	23029
848.786	23124
848.921	23170
849.057	23170
849.192	23273
849.328	23178
849.463	23132
849.598	23147
849.734	23003
849.869	22858
850.004	22892
850.14	22911
850.275	22896
850.41	22919
850.545	22793
850.68	22828
850.815	22896
850.95	22828
851.085	23010
851.22	22949
851.355	22976
851.49	22911
851.625	22763
851.76	22771
851.895	22862
852.03	22748
852.165	22911
852.299	22866
852.434	22896
852.569	22847
852.703	22839
852.838	22976
852.973	23113
853.107	22968
853.242	23003
853.376	22725
853.511	22630
853.645	22702
853.78	22805
853.914	22668
854.048	22634
854.183	22683
854.317	22664
854.451	22919
854.585	22736
854.72	22672
854.854	22820
854.988	22596
855.122	22759
855.256	22504
855.39	22573
855.524	22702
855.658	22763
855.792	22752
855.926	22679
856.06	22771
856.194	22816
856.327	22713
856.461	22622
856.595	22637
856.729	22713
856.862	22763
856.996	22763
857.13	22774
857.263	22858
857.397	22778
857.53	22729
857.664	22748
857.797	22763
857.931	22649
858.064	22767
858.197	22824
858.331	22698
858.464	22523
858.597	22440
858.731	22759
858.864	22668
858.997	22584
859.13	22664
859.263	22759
859.396	22839
859.529	22816
859.662	22675
859.795	22497
859.928	22809
860.061	22911
860.194	22968
860.327	22763
860.46	22683
860.592	22771
860.725	22843
860.858	22774
860.99	22683
861.123	22596
861.256	22630
861.388	22763
861.521	23349
861.653	22622
861.786	22436
861.918	22508
862.05	22573
862.183	22557
862.315	22615
862.447	22592
862.58	22729
862.712	22409
862.844	22344
862.976	22474
863.108	22489
863.24	22915
863.372	22409
863.504	22436
863.636	22466
863.768	22386
863.9	22413
864.032	22238
864.164	22333
864.296	22489
864.428	22462
864.559	22409
864.691	22588
864.823	22466
864.954	22325
865.086	22287
865.217	22344
865.349	22246
865.48	22204
865.612	22303
865.743	22356
865.875	22223
866.006	22162
866.137	22158
866.269	22344
866.4	22188
866.531	22215
866.662	22261
866.793	22204
866.924	22204
867.055	22337
867.186	22150
867.317	22291
867.448	22029
867.579	22204
867.71	22185
867.841	22154
867.972	22253
868.103	22188
868.233	22128
868.364	22177
868.495	22143
868.625	22375
868.756	22500
868.886	22390
869.017	22432
869.147	22561
869.278	22474
869.408	22440
869.539	22382
869.669	22577
869.799	22500
869.929	22615
870.06	22561
870.19	22694
870.32	22736
870.45	22767
870.58	22801
870.71	22923
870.84	22946
870.97	22774
871.1	22862
871.23	23014
871.36	23109
871.489	22892
871.619	23086
871.749	23067
871.879	23010
872.008	23132
872.138	22949
872.267	23071
872.397	22965
872.526	22850
872.656	22904
872.785	22812
872.915	23029
873.044	23227
873.173	23067
873.303	23151
873.432	23162
873.561	23048
873.69	23048
873.819	23094
873.948	23086
874.077	23037
874.206	23022
874.335	23048
874.464	23140
874.593	23174
874.722	23261
874.851	23311
874.979	23379
875.108	23273
875.237	23277
875.365	23185
875.494	23166
875.623	23379
875.751	23189
875.88	23376
876.008	23467
876.136	23467
876.265	23687
876.393	23794
876.521	23764
876.65	23802
876.778	23745
876.906	23668
877.034	23627
877.162	23627
877.29	23570
877.418	23638
877.546	23707
877.674	23638
877.802	23535
877.93	23657
878.058	23440
878.185	23528
878.313	23486
878.441	23630
878.568	23417
878.696	23551
878.824	23634
878.951	23600
879.079	23794
879.206	23836
879.333	23779
879.461	23497
879.588	23676
879.715	23771
879.842	23847
879.97	23676
880.097	23459
880.224	23398
880.351	23455
880.478	23501
880.605	23406
880.732	23440
880.859	23585
880.986	23596
881.112	23448
881.239	23296
881.366	23200
881.493	23064
881.619	23003
881.746	23029
881.872	23003
881.999	22972
882.125	22980
882.252	22961
882.378	22843
882.505	22858
882.631	22881
882.757	22694
882.883	22835
883.01	22599
883.136	22706
883.262	22542
883.388	22519
883.514	22599
883.64	22710
883.766	22485
883.892	22466
884.018	22493
884.143	22535
884.269	22660
884.395	22443
884.52	22287
884.646	22249
884.772	22249
884.897	22215
885.023	22234
885.148	22329
885.274	22459
885.399	22257
885.524	22325
885.65	22291
885.775	22348
885.9	22261
886.025	22295
886.15	22360
886.275	22272
886.4	22200
886.525	22306
886.65	22223
886.775	22131
886.9	22276
887.025	22390
887.149	22207
887.274	22101
887.399	22120
887.523	22101
887.648	21949
887.773	21930
887.897	22006
888.021	22150
888.146	21884
888.27	22101
888.395	22154
888.519	22055
888.643	22044
888.767	22124
888.891	21968
889.015	21827
889.139	21991
889.263	21895
889.387	21846
889.511	22116
889.635	21903
889.759	21747
889.883	21869
890.006	21888
890.13	21922
890.254	21728
890.377	21789
890.501	21595
890.624	21564
890.748	21724
890.871	21488
890.995	21336
891.118	21249
891.241	21355
891.364	21477
891.488	21466
891.611	21252
891.734	21374
891.857	21416
891.98	21393
892.103	21454
892.226	21329
892.349	21389
892.471	21237
892.594	21329
892.717	21302
892.839	21298
892.962	21237
893.085	21241
893.207	21340
893.33	21165
893.452	21165
893.575	21256
893.697	21313
893.819	21329
893.941	21439
894.064	21405
894.186	21180
894.308	21237
894.43	21294
894.552	21477
894.674	21428
894.796	21116
894.918	21112
895.04	21203
895.161	21245
895.283	21310
895.405	21173
895.526	21119
895.648	21249
895.769	21268
895.891	21237
896.012	21176
896.134	21306
896.255	21188
896.376	21119
896.498	21188
896.619	21302
896.74	21245
896.861	21256
896.982	21595
897.103	21633
897.224	21496
897.345	21507
897.466	21355
897.587	21420
897.708	21515
897.828	21496
897.949	21306
898.07	21260
898.19	21424
898.311	21625
898.431	21298
898.552	21420
898.672	21378
898.792	21526
898.913	21492
899.033	21256
899.153	21116
899.273	21154
899.393	21085
899.513	21317
899.633	21222
899.753	21279
899.873	20967
899.993	21188
900.113	21180
900.232	21226
900.352	21077
900.472	21001
900.591	20902
900.711	21001
900.83	20823
900.95	21009
901.069	21051
901.189	20754
901.308	20556
901.427	20488
901.546	20492
901.665	20530
901.784	20552
901.904	20347
902.023	20317
902.141	20043
902.26	20081
902.379	20100
902.498	19955
902.617	19845
902.735	20020
902.854	20050
902.973	19811
903.091	19685
903.21	19632
903.328	19563
903.446	19556
903.565	19514
903.683	19502
903.801	19308
903.919	19540
904.038	19426
904.156	19228
904.274	19225
904.392	19194
904.51	19247
904.627	19175
904.745	19198
904.863	19198
904.981	18985
905.098	18776
905.216	18920
905.334	18856
905.451	18871
905.569	18806
905.686	18901
905.803	18913
905.921	18597
906.038	18700
906.155	18661
906.272	18544
906.389	18490
906.506	18479
906.623	18391
906.74	18350
906.857	18266
906.974	18308
907.091	18471
907.208	18433
907.324	18437
907.441	18361
907.557	18213
907.674	18129
907.79	18049
907.907	18053
908.023	18095
908.139	18220
908.256	18034
908.372	18072
908.488	17950
908.604	17840
908.72	17836
908.836	17855
908.952	17912
909.068	17783
909.184	17897
909.3	17745
909.415	17859
909.531	17764
909.647	17493
909.762	17501
909.878	17406
909.993	17589
910.108	17414
910.224	17463
910.339	17448
910.454	17299
910.57	17273
910.685	17239
910.8	17410
910.915	17467
911.03	17204
911.145	17117
911.259	17162
911.374	17174
911.489	17037
911.604	16904
911.718	16793
911.833	16763
911.947	16763
912.062	16713
912.176	16847
912.291	16892
912.405	16778
912.519	16946
912.633	16995
912.748	16881
912.862	16858
912.976	16653
913.09	16580
913.204	16466
913.318	16660
913.431	16687
913.545	16679
913.659	16710
913.772	16584
913.886	16573
914	16413
914.113	16394
914.226	16535
914.34	16531
914.453	16158
914.566	16512
914.68	16306
914.793	16280
914.906	16181
915.019	16086
915.132	15892
915.245	16105
915.358	15983
915.47	15979
915.583	16093
915.696	15956
915.809	16032
915.921	16044
916.034	15880
916.146	15808
916.259	15778
916.371	16063
916.483	15994
916.595	15876
916.708	15762
916.82	15850
916.932	15755
917.044	15739
917.156	15739
917.268	15717
917.38	15549
917.491	15671
917.603	15606
917.715	15625
917.826	15705
917.938	15534
918.049	15481
918.161	15652
918.272	15641
918.384	15587
918.495	15523
918.606	15431
918.717	15325
918.828	15321
918.939	15370
919.05	15287
919.161	15424
919.272	15093
919.383	15237
919.494	15443
919.604	15572
919.715	15393
919.826	15256
919.936	15294
920.047	15306
920.157	15268
920.267	15431
920.378	15348
920.488	15268
920.598	15481
920.708	15641
920.818	15294
920.928	15519
921.038	15660
921.148	15481
921.258	15218
921.368	15127
921.477	14937
921.587	14975
921.697	14796
921.806	14990
921.916	14887
922.025	14712
922.134	14651
922.244	14613
922.353	14678
922.462	14492
922.571	14434
922.68	14275
922.789	14221
922.898	14286
923.007	14286
923.116	14347
923.224	14282
923.333	14206
923.442	14168
923.55	14103
923.659	14157
923.767	14248
923.876	14050
923.984	14172
924.092	14012
924.201	14084
924.309	14031
924.417	13917
924.525	13932
924.633	13993
924.741	14921
924.849	13677
924.956	13833
925.064	13723
925.172	13559
925.279	13643
925.387	13590
925.494	13605
925.602	13734
925.709	13693
925.816	13521
925.924	13636
926.031	13742
926.138	13597
926.245	13624
926.352	13457
926.459	13597
926.566	13594
926.673	13502
926.779	13327
926.886	13430
926.993	13266
927.099	13247
927.206	13259
927.312	13118
927.419	13240
927.525	13175
927.631	13236
927.737	13050
927.843	13061
927.95	12916
928.056	12989
928.162	13065
928.267	13053
928.373	13578
928.479	13129
928.585	12852
928.69	12920
928.796	12985
928.901	12871
929.007	12734
929.112	12783
929.218	12795
929.323	12863
929.428	12730
929.533	12833
929.638	12627
929.743	12707
929.848	12726
929.953	12696
930.058	12563
930.163	12437
930.267	12433
930.372	12604
930.477	12300
930.581	12551
930.685	12445
930.79	12228
930.894	12330
930.998	12311
931.103	12342
931.207	11992
931.311	11954
931.415	11824
931.519	11646
931.623	11688
