Data from test_V78500241_1241.txt Node
Date: Fri Mar 25 15:50:23 CST 2022
User: usil
Spectrometer: V785-0024
Trigger mode: 0
Integration Time (sec): 4.000000E-1
Scans to average: 1
Nonlinearity correction enabled: false
Boxcar width: 0
Storing dark spectrum: false
XAxis mode: Wavelengths
Number of Pixels in Spectrum: 1024
>>>>>Begin Spectral Data<<<<<
801.071	28668
801.214	28721
801.356	28538
801.499	28516
801.641	28333
801.783	28337
801.926	28287
802.068	28291
802.211	28192
802.353	28150
802.496	28173
802.638	28048
802.78	27972
802.923	28025
803.065	27895
803.208	27895
803.35	28055
803.492	28135
803.635	28215
803.777	28246
803.919	28147
804.061	28489
804.204	28177
804.346	28192
804.488	28261
804.63	28181
804.773	28025
804.915	28131
805.057	28424
805.199	28249
805.341	28432
805.483	28428
805.626	28318
805.768	28272
805.91	28363
806.052	28344
806.194	28325
806.336	28641
806.478	28318
806.62	28470
806.762	28554
806.904	28641
807.046	28930
807.188	28885
807.33	28877
807.472	29044
807.614	28858
807.756	28831
807.898	28793
808.04	28649
808.182	28683
808.324	28930
808.465	28653
808.607	28987
808.749	29003
808.891	29109
809.033	29258
809.174	29265
809.316	29083
809.458	29117
809.6	29025
809.741	29181
809.883	29185
810.025	29318
810.166	29429
810.308	29429
810.45	29425
810.591	29383
810.733	29265
810.875	29204
811.016	29018
811.158	29052
811.299	29212
811.441	29303
811.582	29258
811.724	29079
811.865	29086
812.007	29151
812.148	29064
812.29	29288
812.431	29258
812.573	29486
812.714	29585
812.855	29638
812.997	29741
813.138	29935
813.279	29657
813.421	29600
813.562	29657
813.703	29478
813.845	29345
813.986	29102
814.127	28900
814.268	28816
814.41	28900
814.551	28892
814.692	29010
814.833	28881
814.974	28858
815.115	28896
815.256	28706
815.397	28729
815.539	28748
815.68	28679
815.821	28649
815.962	28664
816.103	28607
816.244	28584
816.385	28428
816.526	28417
816.666	28116
816.807	28246
816.948	28287
817.089	28325
817.23	28181
817.371	28143
817.512	28246
817.653	28154
817.793	28169
817.934	28238
818.075	28325
818.216	28238
818.356	28097
818.497	28055
818.638	27804
818.778	27812
818.919	28067
819.06	27979
819.2	28120
819.341	28093
819.481	28166
819.622	28329
819.762	28352
819.903	28356
820.043	28470
820.184	28363
820.324	28432
820.465	28303
820.605	28177
820.746	28280
820.886	28093
821.026	28329
821.167	28276
821.307	28310
821.447	28173
821.588	28128
821.728	28120
821.868	27827
822.008	27633
822.149	27694
822.289	27781
822.429	27355
822.569	27317
822.709	27332
822.849	27154
822.99	27283
823.13	27260
823.27	27127
823.41	27043
823.55	26952
823.69	26998
823.83	27066
823.97	26990
824.11	26872
824.25	26834
824.389	26674
824.529	26906
824.669	26902
824.809	27024
824.949	26944
825.089	26948
825.228	26910
825.368	26541
825.508	26777
825.648	26864
825.787	26701
825.927	26830
826.067	26769
826.206	26773
826.346	26689
826.485	26731
826.625	26861
826.765	26788
826.904	26845
827.044	26473
827.183	26427
827.323	26309
827.462	26450
827.601	26438
827.741	26412
827.88	26450
828.02	26396
828.159	26389
828.298	26503
828.437	26461
828.577	26336
828.716	26530
828.855	26381
828.994	26054
829.134	26168
829.273	26313
829.412	26111
829.551	26126
829.69	26210
829.829	26176
829.968	26218
830.107	26176
830.246	26126
830.385	26058
830.524	26153
830.663	25951
830.802	25925
830.941	25647
831.08	25594
831.219	25765
831.357	25700
831.496	25883
831.635	25738
831.774	25578
831.913	25578
832.051	25487
832.19	25548
832.329	25590
832.467	25510
832.606	25335
832.744	25415
832.883	25346
833.022	25358
833.16	25426
833.299	25434
833.437	25434
833.576	25415
833.714	25529
833.852	25533
833.991	25529
834.129	25635
834.267	25487
834.406	25335
834.544	25521
834.682	25468
834.821	25403
834.959	25597
835.097	25358
835.235	25491
835.373	25381
835.511	25422
835.65	25324
835.788	25244
835.926	25225
836.064	25141
836.202	25080
836.34	25388
836.478	25407
836.615	25320
836.753	25183
836.891	25297
837.029	25312
837.167	25107
837.305	25133
837.443	25209
837.58	25194
837.718	25244
837.856	25042
837.993	25004
838.131	25076
838.269	25050
838.406	24886
838.544	24939
838.681	24772
838.819	24722
838.956	24460
839.094	24684
839.231	24722
839.369	24741
839.506	25027
839.643	24924
839.781	24639
839.918	24494
840.055	24612
840.193	24574
840.33	24540
840.467	24521
840.604	24479
840.742	24768
840.879	24251
841.016	24407
841.153	24490
841.29	24513
841.427	24445
841.564	24467
841.701	24445
841.838	24467
841.975	24437
842.112	24410
842.249	24346
842.385	24148
842.522	24479
842.659	24258
842.796	24194
842.933	24182
843.069	24209
843.206	24136
843.343	24190
843.479	24327
843.616	24216
843.752	24064
843.889	23931
844.025	24155
844.162	24155
844.298	24030
844.435	23916
844.571	23912
844.708	24022
844.844	24190
844.98	24076
845.117	24076
845.253	23908
845.389	23882
845.525	23931
845.661	23805
845.798	23672
845.934	23889
846.07	23741
846.206	23737
846.342	23809
846.478	23707
846.614	23474
846.75	23414
846.886	23440
847.022	23531
847.158	23512
847.294	23615
847.429	23448
847.565	23493
847.701	23680
847.837	23155
847.972	23162
848.108	23212
848.244	23071
848.379	23052
848.515	23037
848.65	23014
848.786	23117
848.921	23014
849.057	23117
849.192	23200
849.328	23189
849.463	23223
849.598	22957
849.734	22972
849.869	22889
850.004	22793
850.14	22839
850.275	22710
850.41	22683
850.545	22634
850.68	22828
850.815	22793
850.95	22744
851.085	23025
851.22	22987
851.355	22873
851.49	22938
851.625	22713
851.76	22809
851.895	22706
852.03	22763
852.165	22721
852.299	22793
852.434	22816
852.569	22911
852.703	22702
852.838	22904
852.973	23014
853.107	22885
853.242	22679
853.376	22767
853.511	22462
853.645	22531
853.78	22759
853.914	22656
854.048	22561
854.183	22618
854.317	22596
854.451	22862
854.585	22516
854.72	22672
854.854	22694
854.988	22599
855.122	22691
855.256	22443
855.39	22542
855.524	22565
855.658	22683
855.792	22626
855.926	22618
856.06	22691
856.194	22702
856.327	22443
856.461	22645
856.595	22538
856.729	22478
856.862	22725
856.996	22607
857.13	22755
857.263	22793
857.397	22656
857.53	22531
857.664	22733
857.797	22721
857.931	22645
858.064	22611
858.197	22755
858.331	22603
858.464	22615
858.597	22451
858.731	22622
858.864	22470
858.997	22557
859.13	22721
859.263	22725
859.396	22588
859.529	22573
859.662	22504
859.795	22622
859.928	22645
860.061	22759
860.194	22866
860.327	22664
860.46	22481
860.592	22713
860.725	22740
860.858	22782
860.99	22607
861.123	22618
861.256	22398
861.388	22596
861.521	23200
861.653	22341
861.786	22531
861.918	22447
862.05	22535
862.183	22527
862.315	22447
862.447	22550
862.58	22573
862.712	22344
862.844	22360
862.976	22474
863.108	22428
863.24	22725
863.372	22280
863.504	22268
863.636	22246
863.768	22352
863.9	22337
864.032	22185
864.164	22291
864.296	22375
864.428	22459
864.559	22352
864.691	22386
864.823	22337
864.954	22295
865.086	22268
865.217	22333
865.349	22162
865.48	22276
865.612	22196
865.743	22306
865.875	22352
866.006	22226
866.137	22226
866.269	22242
866.4	22265
866.531	22124
866.662	22154
866.793	22128
866.924	22002
867.055	22173
867.186	22177
867.317	22082
867.448	22029
867.579	22158
867.71	22101
867.841	22101
867.972	22158
868.103	21987
868.233	22112
868.364	22162
868.495	22230
868.625	22276
868.756	22382
868.886	22303
869.017	22432
869.147	22424
869.278	22481
869.408	22318
869.539	22394
869.669	22466
869.799	22360
869.929	22459
870.06	22382
870.19	22584
870.32	22588
870.45	22706
870.58	22713
870.71	22698
870.84	22824
870.97	22778
871.1	22683
871.23	22980
871.36	22957
871.489	22862
871.619	22881
871.749	22828
871.879	22915
872.008	23044
872.138	22927
872.267	22908
872.397	22771
872.526	22706
872.656	22873
872.785	22729
872.915	23025
873.044	23189
873.173	22866
873.303	22942
873.432	23014
873.561	23064
873.69	23003
873.819	22774
873.948	23010
874.077	22889
874.206	22965
874.335	22942
874.464	23151
874.593	23269
874.722	23102
874.851	23143
874.979	23204
875.108	23136
875.237	23136
875.365	23113
875.494	23197
875.623	23311
875.751	23239
875.88	23098
876.008	23425
876.136	23273
876.265	23440
876.393	23638
876.521	23524
876.65	23722
876.778	23589
876.906	23459
877.034	23505
877.162	23490
877.29	23531
877.418	23444
877.546	23455
877.674	23520
877.802	23524
877.93	23493
878.058	23356
878.185	23391
878.313	23493
878.441	23368
878.568	23258
878.696	23425
878.824	23497
878.951	23676
879.079	23760
879.206	23832
879.333	23649
879.461	23608
879.588	23672
879.715	23741
879.842	23779
879.97	23718
880.097	23364
880.224	23311
880.351	23349
880.478	23345
880.605	23239
880.732	23315
880.859	23649
880.986	23383
881.112	23337
881.239	23239
881.366	22995
881.493	23105
881.619	22908
881.746	22949
881.872	22896
881.999	22854
882.125	22801
882.252	22965
882.378	22839
882.505	23048
882.631	22774
882.757	22519
882.883	22668
883.01	22550
883.136	22546
883.262	22519
883.388	22417
883.514	22588
883.64	22637
883.766	22417
883.892	22268
884.018	22371
884.143	22512
884.269	22630
884.395	22280
884.52	22128
884.646	22276
884.772	22154
884.897	22109
885.023	22257
885.148	22257
885.274	22371
885.399	22402
885.524	22173
885.65	22185
885.775	22150
885.9	22139
886.025	22322
886.15	22337
886.275	22093
886.4	22131
886.525	22067
886.65	22093
886.775	22074
886.9	22268
887.025	22238
887.149	22090
887.274	22040
887.399	21941
887.523	21968
887.648	21918
887.773	21838
887.897	21983
888.021	22135
888.146	21918
888.27	22036
888.395	22097
888.519	21857
888.643	21930
888.767	22010
888.891	21797
889.015	21857
889.139	21911
889.263	21804
889.387	21835
889.511	22097
889.635	21865
889.759	21812
889.883	21709
890.006	21709
890.13	21732
890.254	21637
890.377	21641
890.501	21408
890.624	21561
890.748	21504
890.871	21466
890.995	21291
891.118	21279
891.241	21355
891.364	21336
891.488	21393
891.611	21241
891.734	21336
891.857	21428
891.98	21230
892.103	21428
892.226	21393
892.349	21340
892.471	21256
892.594	21237
892.717	21340
892.839	21154
892.962	21230
893.085	21389
893.207	21264
893.33	21074
893.452	21188
893.575	21226
893.697	21275
893.819	21348
893.941	21469
894.064	21363
894.186	21104
894.308	21058
894.43	21214
894.552	21332
894.674	21351
894.796	21043
894.918	21154
895.04	21161
895.161	21325
895.283	21157
895.405	21039
895.526	21218
895.648	21192
895.769	21222
895.891	21214
896.012	21211
896.134	21230
896.255	21252
896.376	21203
896.498	21192
896.619	21294
896.74	21119
896.861	21275
896.982	21481
897.103	21606
897.224	21511
897.345	21477
897.466	21382
897.587	21424
897.708	21542
897.828	21443
897.949	21306
898.07	21306
898.19	21329
898.311	21431
898.431	21401
898.552	21408
898.672	21431
898.792	21370
898.913	21443
899.033	21173
899.153	21203
899.273	21051
899.393	21127
899.513	21104
899.633	21207
899.753	21127
899.873	20986
899.993	21211
900.113	20876
900.232	21112
900.352	21058
900.472	20967
900.591	20902
900.711	20887
900.83	20800
900.95	21005
901.069	21066
901.189	20792
901.308	20446
901.427	20419
901.546	20522
901.665	20400
901.784	20488
901.904	20218
902.023	20157
902.141	20088
902.26	20035
902.379	19978
902.498	19986
902.617	19944
902.735	19993
902.854	19784
902.973	19738
903.091	19624
903.21	19525
903.328	19677
903.446	19533
903.565	19521
903.683	19392
903.801	19209
903.919	19392
904.038	19316
904.156	19213
904.274	19255
904.392	19137
904.51	19053
904.627	19114
904.745	19244
904.863	19183
904.981	19008
905.098	18863
905.216	18814
905.334	18947
905.451	18753
905.569	18776
905.686	18802
905.803	18745
905.921	18604
906.038	18738
906.155	18719
906.272	18525
906.389	18589
906.506	18292
906.623	18410
906.74	18308
906.857	18220
906.974	18334
907.091	18429
907.208	18464
907.324	18380
907.441	18159
907.557	18171
907.674	18087
907.79	17977
907.907	17939
908.023	18121
908.139	18083
908.256	18079
908.372	18011
908.488	17870
908.604	17851
908.72	17707
908.836	17783
908.952	17741
909.068	17752
909.184	17984
909.3	17737
909.415	17863
909.531	17828
909.647	17577
909.762	17482
909.878	17486
909.993	17440
910.108	17436
910.224	17387
910.339	17486
910.454	17311
910.57	17231
910.685	17113
910.8	17440
910.915	17372
911.03	17212
911.145	17098
911.259	16972
911.374	17124
911.489	16984
911.604	16831
911.718	16820
911.833	16763
911.947	16615
912.062	16691
912.176	16869
912.291	16862
912.405	16782
912.519	16999
912.633	17033
912.748	16763
912.862	16759
912.976	16668
913.09	16573
913.204	16630
913.318	16531
913.431	16679
913.545	16653
913.659	16683
913.772	16542
913.886	16398
914	16341
914.113	16436
914.226	16478
914.34	16329
914.453	16276
914.566	16462
914.68	16238
914.793	16196
914.906	16051
915.019	16002
915.132	15972
915.245	15945
915.358	16021
915.47	16002
915.583	15960
915.696	15968
915.809	16032
915.921	16063
916.034	15926
916.146	15838
916.259	15876
916.371	15876
916.483	15880
916.595	15671
916.708	15865
916.82	15831
916.932	15778
917.044	15842
917.156	15698
917.268	15603
917.38	15724
917.491	15584
917.603	15526
917.715	15633
917.826	15679
917.938	15443
918.049	15447
918.161	15542
918.272	15618
918.384	15614
918.495	15595
918.606	15329
918.717	15272
918.828	15340
918.939	15382
919.05	15275
919.161	15291
919.272	15218
919.383	15150
919.494	15431
919.604	15584
919.715	15279
919.826	15264
919.936	15264
920.047	15340
920.157	15230
920.267	15469
920.378	15287
920.488	15226
920.598	15420
920.708	15443
920.818	15389
920.928	15329
921.038	15553
921.148	15428
921.258	15214
921.368	15112
921.477	14941
921.587	14971
921.697	14857
921.806	14921
921.916	14960
922.025	14724
922.134	14686
922.244	14564
922.353	14701
922.462	14556
922.571	14389
922.68	14305
922.789	14256
922.898	14221
923.007	14199
923.116	14240
923.224	14187
923.333	14199
923.442	14092
923.55	14138
923.659	14069
923.767	14035
923.876	14058
923.984	14119
924.092	14005
924.201	14065
924.309	14001
924.417	13932
924.525	13917
924.633	13955
924.741	14762
924.849	13689
924.956	13860
925.064	13719
925.172	13594
925.279	13571
925.387	13723
925.494	13613
925.602	13837
925.709	13799
925.816	13563
925.924	13590
926.031	13715
926.138	13597
926.245	13632
926.352	13518
926.459	13548
926.566	13571
926.673	13506
926.779	13472
926.886	13343
926.993	13175
927.099	13133
927.206	13194
927.312	13187
927.419	13301
927.525	13152
927.631	13209
927.737	13012
927.843	13038
927.95	12939
928.056	12981
928.162	13019
928.267	13057
928.373	13658
928.479	13034
928.585	12806
928.69	12973
928.796	12973
928.901	12886
929.007	12658
929.112	12890
929.218	12802
929.323	12700
929.428	12684
929.533	12802
929.638	12627
929.743	12669
929.848	12688
929.953	12627
930.058	12528
930.163	12350
930.267	12376
930.372	12460
930.477	12235
930.581	12521
930.685	12357
930.79	12197
930.894	12167
930.998	12292
931.103	12376
931.207	11999
931.311	11931
931.415	11851
931.519	11611
931.623	11619
