Data from test_V78500241_844.txt Node
Date: Fri Mar 25 15:47:38 CST 2022
User: usil
Spectrometer: V785-0024
Trigger mode: 0
Integration Time (sec): 4.000000E-1
Scans to average: 1
Nonlinearity correction enabled: false
Boxcar width: 0
Storing dark spectrum: false
XAxis mode: Wavelengths
Number of Pixels in Spectrum: 1024
>>>>>Begin Spectral Data<<<<<
801.071	27838
801.214	27793
801.356	27401
801.499	27469
801.641	27252
801.783	27195
801.926	27325
802.068	27374
802.211	27192
802.353	27161
802.496	26899
802.638	26868
802.78	26883
802.923	26910
803.065	26796
803.208	26910
803.35	26971
803.492	27001
803.635	27146
803.777	26960
803.919	27127
804.061	27393
804.204	27138
804.346	26948
804.488	27096
804.63	26963
804.773	26864
804.915	27024
805.057	27245
805.199	27085
805.341	27199
805.483	27241
805.626	27142
805.768	27032
805.91	27184
806.052	27252
806.194	27055
806.336	27389
806.478	27313
806.62	27184
806.762	27336
806.904	27534
807.046	27865
807.188	27618
807.33	27679
807.472	27580
807.614	27663
807.756	27644
807.898	27473
808.04	27397
808.182	27519
808.324	27450
808.465	27538
808.607	27713
808.749	27747
808.891	28029
809.033	27960
809.174	27930
809.316	27823
809.458	27831
809.6	27827
809.741	28097
809.883	28059
810.025	28226
810.166	28211
810.308	28139
810.45	28128
810.591	28017
810.733	28013
810.875	27835
811.016	27785
811.158	27800
811.299	28090
811.441	28002
811.582	28093
811.724	27972
811.865	27705
812.007	28010
812.148	27800
812.29	27838
812.431	27930
812.573	28097
812.714	28386
812.855	28261
812.997	28519
813.138	28634
813.279	28474
813.421	28310
813.562	28356
813.703	28261
813.845	28211
813.986	27770
814.127	27682
814.268	27462
814.41	27583
814.551	27477
814.692	27713
814.833	27568
814.974	27526
815.115	27583
815.256	27389
815.397	27416
815.539	27416
815.68	27294
815.821	27127
815.962	27340
816.103	27351
816.244	27093
816.385	27157
816.526	27005
816.666	26944
816.807	26990
816.948	26990
817.089	26887
817.23	26807
817.371	26883
817.512	26819
817.653	26735
817.793	26891
817.934	26739
818.075	26849
818.216	26750
818.356	26826
818.497	26754
818.638	26549
818.778	26648
818.919	26549
819.06	26697
819.2	26750
819.341	26845
819.481	26819
819.622	27036
819.762	27150
819.903	27249
820.043	27028
820.184	26940
820.324	27051
820.465	26994
820.605	26902
820.746	27013
820.886	26743
821.026	26902
821.167	26887
821.307	27032
821.447	26899
821.588	26644
821.728	26663
821.868	26571
822.008	26275
822.149	26229
822.289	26313
822.429	26153
822.569	25993
822.709	25978
822.849	25769
822.99	25845
823.13	25685
823.27	25769
823.41	25537
823.55	25499
823.69	25734
823.83	25544
823.97	25563
824.11	25445
824.25	25438
824.389	25525
824.529	25525
824.669	25434
824.809	25689
824.949	25655
825.089	25586
825.228	25476
825.368	25297
825.508	25350
825.648	25358
825.787	25339
825.927	25320
826.067	25346
826.206	25407
826.346	25270
826.485	25499
826.625	25324
826.765	25468
826.904	25388
827.044	25065
827.183	24943
827.323	24943
827.462	25057
827.601	24932
827.741	25133
827.88	25012
828.02	25053
828.159	24958
828.298	25069
828.437	25069
828.577	25012
828.716	25118
828.855	25034
828.994	24859
829.134	24711
829.273	24688
829.412	24677
829.551	24646
829.69	24681
829.829	24897
829.968	24787
830.107	24882
830.246	24639
830.385	24604
830.524	24620
830.663	24559
830.802	24391
830.941	24285
831.08	24372
831.219	24346
831.357	24475
831.496	24593
831.635	24338
831.774	24266
831.913	24235
832.051	24213
832.19	24133
832.329	24129
832.467	24049
832.606	24003
832.744	24026
832.883	24034
833.022	23866
833.16	23980
833.299	24057
833.437	24079
833.576	24174
833.714	24087
833.852	24026
833.991	24049
834.129	24190
834.267	24152
834.406	24018
834.544	24087
834.682	24125
834.821	24045
834.959	24270
835.097	23954
835.235	24129
835.373	24026
835.511	23984
835.65	23897
835.788	23912
835.926	23843
836.064	23657
836.202	23691
836.34	23901
836.478	23855
836.615	24011
836.753	23950
836.891	23885
837.029	23927
837.167	23847
837.305	23771
837.443	23676
837.58	23699
837.718	23882
837.856	23726
837.993	23722
838.131	23710
838.269	23653
838.406	23665
838.544	23497
838.681	23425
838.819	23318
838.956	23151
839.094	23296
839.231	23143
839.369	23379
839.506	23577
839.643	23512
839.781	23113
839.918	23086
840.055	23280
840.193	23132
840.33	23200
840.467	23216
840.604	23273
840.742	23417
840.879	22953
841.016	23022
841.153	22965
841.29	23185
841.427	23124
841.564	23200
841.701	23105
841.838	23109
841.975	22987
842.112	23044
842.249	22972
842.385	22877
842.522	23086
842.659	22984
842.796	22965
842.933	22999
843.069	22938
843.206	22923
843.343	22930
843.479	22873
843.616	22896
843.752	22603
843.889	22816
844.025	22801
844.162	22615
844.298	22679
844.435	22603
844.571	22611
844.708	22755
844.844	22885
844.98	22790
845.117	22828
845.253	22424
845.389	22428
845.525	22527
845.661	22512
845.798	22550
845.934	22466
846.07	22367
846.206	22459
846.342	22588
846.478	22276
846.614	22055
846.75	22021
846.886	22097
847.022	22169
847.158	22112
847.294	22154
847.429	22169
847.565	22078
847.701	22417
847.837	21915
847.972	21785
848.108	21888
848.244	21895
848.379	21850
848.515	21770
848.65	21675
848.786	21823
848.921	21728
849.057	21743
849.192	21781
849.328	21743
849.463	21580
849.598	21736
849.734	21667
849.869	21625
850.004	21545
850.14	21370
850.275	21469
850.41	21420
850.545	21485
850.68	21405
850.815	21450
850.95	21420
851.085	21561
851.22	21599
851.355	21564
851.49	21466
851.625	21344
851.76	21428
851.895	21424
852.03	21431
852.165	21450
852.299	21447
852.434	21458
852.569	21538
852.703	21545
852.838	21583
852.973	21633
853.107	21637
853.242	21397
853.376	21336
853.511	21222
853.645	21241
853.78	21363
853.914	21378
854.048	21298
854.183	21302
854.317	21329
854.451	21389
854.585	21306
854.72	21401
854.854	21367
854.988	21211
855.122	21367
855.256	21184
855.39	21207
855.524	21386
855.658	21469
855.792	21355
855.926	21389
856.06	21218
856.194	21367
856.327	21161
856.461	21233
856.595	21184
856.729	21294
856.862	21435
856.996	21363
857.13	21370
857.263	21359
857.397	21420
857.53	21355
857.664	21355
857.797	21450
857.931	21340
858.064	21389
858.197	21416
858.331	21199
858.464	21310
858.597	21104
858.731	21264
858.864	21279
858.997	21180
859.13	21249
859.263	21313
859.396	21401
859.529	21230
859.662	21287
859.795	21214
859.928	21367
860.061	21435
860.194	21386
860.327	21359
860.46	21268
860.592	21393
860.725	21477
860.858	21450
860.99	21298
861.123	21272
861.256	21302
861.388	21374
861.521	21762
861.653	21214
861.786	21062
861.918	21070
862.05	21074
862.183	21207
862.315	21199
862.447	21283
862.58	21119
862.712	21024
862.844	21093
862.976	21131
863.108	21039
863.24	21447
863.372	20941
863.504	21089
863.636	20971
863.768	21066
863.9	20971
864.032	21032
864.164	20956
864.296	20998
864.428	21161
864.559	21100
864.691	20986
864.823	21024
864.954	21093
865.086	21028
865.217	20902
865.349	20834
865.48	21009
865.612	20842
865.743	20899
865.875	20834
866.006	20918
866.137	20796
866.269	20910
866.4	20899
866.531	20807
866.662	20838
866.793	20845
866.924	20826
867.055	20853
867.186	20864
867.317	20807
867.448	20682
867.579	20861
867.71	20686
867.841	20739
867.972	20918
868.103	20906
868.233	20982
868.364	20880
868.495	21062
868.625	21070
868.756	20948
868.886	21036
869.017	21085
869.147	21237
869.278	21245
869.408	21123
869.539	21077
869.669	21157
869.799	21104
869.929	21237
870.06	21116
870.19	21340
870.32	21351
870.45	21386
870.58	21492
870.71	21633
870.84	21595
870.97	21481
871.1	21500
871.23	21686
871.36	21724
871.489	21614
871.619	21595
871.749	21781
871.879	21728
872.008	21705
872.138	21698
872.267	21717
872.397	21694
872.526	21618
872.656	21572
872.785	21473
872.915	21793
873.044	21816
873.173	21701
873.303	21694
873.432	21694
873.561	21747
873.69	21709
873.819	21663
873.948	21705
874.077	21766
874.206	21637
874.335	21667
874.464	21819
874.593	21907
874.722	21960
874.851	21869
874.979	21956
875.108	21911
875.237	21903
875.365	21808
875.494	21736
875.623	22002
875.751	21808
875.88	21918
876.008	22040
876.136	22101
876.265	22348
876.393	22447
876.521	22508
876.65	22413
876.778	22211
876.906	22337
877.034	22173
877.162	22291
877.29	22188
877.418	22280
877.546	22356
877.674	22181
877.802	22257
877.93	22386
878.058	22200
878.185	22120
878.313	22135
878.441	22196
878.568	22158
878.696	22234
878.824	22261
878.951	22333
879.079	22417
879.206	22561
879.333	22428
879.461	22440
879.588	22375
879.715	22413
879.842	22531
879.97	22230
880.097	22135
880.224	22090
880.351	22135
880.478	22067
880.605	22070
880.732	22124
880.859	22379
880.986	22166
881.112	22177
881.239	21968
881.366	21804
881.493	21747
881.619	21705
881.746	21762
881.872	21690
881.999	21625
882.125	21599
882.252	21793
882.378	21641
882.505	21713
882.631	21557
882.757	21420
882.883	21511
883.01	21492
883.136	21283
883.262	21393
883.388	21203
883.514	21382
883.64	21348
883.766	21382
883.892	21173
884.018	21237
884.143	21378
884.269	21264
884.395	21127
884.52	21058
884.646	21036
884.772	20967
884.897	20952
885.023	20994
885.148	21001
885.274	21093
885.399	21077
885.524	21020
885.65	21100
885.775	21020
885.9	21039
886.025	21169
886.15	21116
886.275	20899
886.4	20921
886.525	20990
886.65	20876
886.775	20986
886.9	21135
887.025	21291
887.149	21058
887.274	20697
887.399	20720
887.523	20724
887.648	20849
887.773	20655
887.897	20823
888.021	20842
888.146	20716
888.27	20792
888.395	20990
888.519	20750
888.643	20845
888.767	20712
888.891	20705
889.015	20568
889.139	20644
889.263	20621
889.387	20651
889.511	20849
889.635	20739
889.759	20560
889.883	20541
890.006	20609
890.13	20602
890.254	20492
890.377	20461
890.501	20434
890.624	20294
890.748	20309
890.871	20248
890.995	20214
891.118	20039
891.241	20202
891.364	20206
891.488	20271
891.611	20199
891.734	20088
891.857	20358
891.98	20119
892.103	20210
892.226	20157
892.349	20195
892.471	20008
892.594	20012
892.717	20134
892.839	20058
892.962	19967
893.085	20138
893.207	20035
893.33	19788
893.452	20081
893.575	20088
893.697	20012
893.819	20218
893.941	20138
894.064	20100
894.186	20043
894.308	19967
894.43	20195
894.552	20115
894.674	20126
894.796	19868
894.918	20122
895.04	20202
895.161	20142
895.283	19947
895.405	20035
895.526	19986
895.648	20001
895.769	20081
895.891	20081
896.012	20115
896.134	20081
896.255	20020
896.376	20054
896.498	20138
896.619	20073
896.74	20092
896.861	20058
896.982	20442
897.103	20530
897.224	20454
897.345	20263
897.466	20252
897.587	20377
897.708	20381
897.828	20313
897.949	20256
898.07	20065
898.19	20168
898.311	20389
898.431	20248
898.552	20286
898.672	20374
898.792	20423
898.913	20263
899.033	20221
899.153	20069
899.273	19845
899.393	19974
899.513	20081
899.633	20043
899.753	19978
899.873	19955
899.993	20046
900.113	19974
900.232	20043
900.352	19951
900.472	19917
900.591	19799
900.711	19868
900.83	19666
900.95	19959
901.069	19894
901.189	19609
901.308	19502
901.427	19499
901.546	19320
901.665	19453
901.784	19472
901.904	19270
902.023	19240
902.141	18993
902.26	18951
902.379	19080
902.498	18989
902.617	18848
902.735	18848
902.854	18905
902.973	18840
903.091	18570
903.21	18627
903.328	18471
903.446	18486
903.565	18433
903.683	18353
903.801	18197
903.919	18372
904.038	18270
904.156	18235
904.274	18251
904.392	18102
904.51	18045
904.627	18136
904.745	18197
904.863	18178
904.981	17931
905.098	17851
905.216	17882
905.334	17874
905.451	17802
905.569	17859
905.686	17847
905.803	17847
905.921	17653
906.038	17771
906.155	17695
906.272	17520
906.389	17414
906.506	17356
906.623	17474
906.74	17467
906.857	17296
906.974	17284
907.091	17349
907.208	17337
907.324	17436
907.441	17246
907.557	17086
907.674	17105
907.79	16987
907.907	16995
908.023	17056
908.139	17052
908.256	17090
908.372	16896
908.488	16984
908.604	16881
908.72	16767
908.836	16771
908.952	16744
909.068	16694
909.184	16957
909.3	16653
909.415	16809
909.531	16782
909.647	16516
909.762	16580
909.878	16561
909.993	16527
910.108	16432
910.224	16409
910.339	16375
910.454	16348
910.57	16390
910.685	16310
910.8	16489
910.915	16386
911.03	16284
911.145	16128
911.259	16143
911.374	15960
911.489	16021
911.604	16059
911.718	15876
911.833	15842
911.947	15728
912.062	15648
912.176	15804
912.291	15846
912.405	15823
912.519	16006
912.633	16025
912.748	15865
912.862	15766
912.976	15705
913.09	15511
913.204	15545
913.318	15599
913.431	15709
913.545	15743
913.659	15819
913.772	15572
913.886	15382
914	15462
914.113	15492
914.226	15561
914.34	15561
914.453	15431
914.566	15500
914.68	15378
914.793	15382
914.906	15131
915.019	15123
915.132	14952
915.245	15077
915.358	15081
915.47	15119
915.583	14994
915.696	15051
915.809	15184
915.921	15157
916.034	15001
916.146	15066
916.259	15009
916.371	15089
916.483	15009
916.595	14998
916.708	14948
916.82	14857
916.932	14823
917.044	14853
917.156	14826
917.268	14659
917.38	14724
917.491	14636
917.603	14758
917.715	14781
917.826	14807
917.938	14663
918.049	14632
918.161	14682
918.272	14902
918.384	14712
918.495	14731
918.606	14549
918.717	14400
918.828	14518
918.939	14454
919.05	14328
919.161	14507
919.272	14309
919.383	14362
919.494	14526
919.604	14606
919.715	14431
919.826	14343
919.936	14381
920.047	14564
920.157	14427
920.267	14663
920.378	14469
920.488	14431
920.598	14617
920.708	14777
920.818	14617
920.928	14663
921.038	14758
921.148	14602
921.258	14446
921.368	14290
921.477	14195
921.587	14210
921.697	14058
921.806	14183
921.916	14039
922.025	13833
922.134	13788
922.244	13784
922.353	13887
922.462	13765
922.571	13533
922.68	13514
922.789	13472
922.898	13434
923.007	13415
923.116	13510
923.224	13502
923.333	13449
923.442	13434
923.55	13247
923.659	13411
923.767	13354
923.876	13194
923.984	13365
924.092	13164
924.201	13247
924.309	13255
924.417	13198
924.525	13217
924.633	13091
924.741	14054
924.849	12924
924.956	13145
925.064	13027
925.172	12909
925.279	12848
925.387	12970
925.494	12951
925.602	13000
925.709	12935
925.816	12798
925.924	12863
926.031	12932
926.138	12814
926.245	12875
926.352	12776
926.459	12829
926.566	12928
926.673	12707
926.779	12616
926.886	12635
926.993	12521
927.099	12502
927.206	12452
927.312	12350
927.419	12528
927.525	12483
927.631	12536
927.737	12308
927.843	12273
927.95	12220
928.056	12251
928.162	12228
928.267	12376
928.373	12928
928.479	12334
928.585	12216
928.69	12243
928.796	12296
928.901	12144
929.007	12007
929.112	12197
929.218	12068
929.323	11996
929.428	11958
929.533	12152
929.638	11992
929.743	11946
929.848	12117
929.953	11973
930.058	11863
930.163	11699
930.267	11733
930.372	11847
930.477	11642
930.581	11832
930.685	11684
930.79	11627
930.894	11722
930.998	11547
931.103	11714
931.207	11360
931.311	11261
931.415	11231
931.519	10957
931.623	10980
