Data from test_V78500241_2634.txt Node
Date: Fri Mar 25 16:00:02 CST 2022
User: usil
Spectrometer: V785-0024
Trigger mode: 0
Integration Time (sec): 4.000000E-1
Scans to average: 1
Nonlinearity correction enabled: false
Boxcar width: 0
Storing dark spectrum: false
XAxis mode: Wavelengths
Number of Pixels in Spectrum: 1024
>>>>>Begin Spectral Data<<<<<
801.071	28896
801.214	28938
801.356	28622
801.499	28637
801.641	28478
801.783	28557
801.926	28527
802.068	28440
802.211	28371
802.353	28455
802.496	28223
802.638	28348
802.78	28162
802.923	28116
803.065	28192
803.208	28215
803.35	28204
803.492	28512
803.635	28421
803.777	28341
803.919	28421
804.061	28767
804.204	28493
804.346	28474
804.488	28390
804.63	28554
804.773	28527
804.915	28481
805.057	28672
805.199	28478
805.341	28538
805.483	28645
805.626	28611
805.768	28577
805.91	28668
806.052	28630
806.194	28698
806.336	28725
806.478	28588
806.62	28713
806.762	28782
806.904	28923
807.046	29185
807.188	29159
807.33	29254
807.472	29113
807.614	29109
807.756	29143
807.898	29052
808.04	28953
808.182	28881
808.324	28968
808.465	29071
808.607	29204
808.749	29318
808.891	29356
809.033	29467
809.174	29482
809.316	29296
809.458	29440
809.6	29296
809.741	29623
809.883	29520
810.025	29707
810.166	29573
810.308	29733
810.45	29687
810.591	29296
810.733	29265
810.875	29337
811.016	29254
811.158	29170
811.299	29577
811.441	29490
811.582	29748
811.724	29341
811.865	29277
812.007	29356
812.148	29315
812.29	29497
812.431	29505
812.573	29642
812.714	29722
812.855	29954
812.997	29901
813.138	29958
813.279	29984
813.421	29988
813.562	29851
813.703	29630
813.845	29623
813.986	29364
814.127	29197
814.268	29178
814.41	29174
814.551	29117
814.692	28984
814.833	29025
814.974	28938
815.115	29151
815.256	28987
815.397	28987
815.539	29022
815.68	28911
815.821	28733
815.962	28919
816.103	28938
816.244	28847
816.385	28550
816.526	28626
816.666	28546
816.807	28413
816.948	28459
817.089	28584
817.23	28462
817.371	28436
817.512	28417
817.653	28424
817.793	28417
817.934	28535
818.075	28474
818.216	28379
818.356	28394
818.497	28207
818.638	28158
818.778	28204
818.919	28162
819.06	28272
819.2	28280
819.341	28508
819.481	28394
819.622	28531
819.762	28793
819.903	28687
820.043	28565
820.184	28603
820.324	28512
820.465	28637
820.605	28634
820.746	28535
820.886	28428
821.026	28713
821.167	28531
821.307	28508
821.447	28656
821.588	28287
821.728	28086
821.868	27949
822.008	28002
822.149	27979
822.289	27873
822.429	27587
822.569	27496
822.709	27724
822.849	27561
822.99	27283
823.13	27378
823.27	27466
823.41	27211
823.55	27001
823.69	27313
823.83	27218
823.97	27203
824.11	27081
824.25	27009
824.389	26982
824.529	27119
824.669	27020
824.809	27169
824.949	27176
825.089	27222
825.228	27184
825.368	26948
825.508	26853
825.648	27108
825.787	26891
825.927	26918
826.067	26979
826.206	26857
826.346	27131
826.485	27017
826.625	26921
826.765	27131
826.904	27047
827.044	26701
827.183	26708
827.323	26727
827.462	26693
827.601	26815
827.741	26602
827.88	26754
828.02	26442
828.159	26495
828.298	26663
828.437	26697
828.577	26571
828.716	26765
828.855	26617
828.994	26210
829.134	26415
829.273	26431
829.412	26385
829.551	26248
829.69	26377
829.829	26328
829.968	26469
830.107	26400
830.246	26324
830.385	26252
830.524	26202
830.663	26157
830.802	26096
830.941	26115
831.08	25769
831.219	26027
831.357	26096
831.496	26195
831.635	26016
831.774	25890
831.913	25837
832.051	25814
832.19	25807
832.329	25689
832.467	25628
832.606	25525
832.744	25681
832.883	25674
833.022	25521
833.16	25521
833.299	25753
833.437	25784
833.576	25658
833.714	25651
833.852	25742
833.991	25700
834.129	25616
834.267	25803
834.406	25734
834.544	25647
834.682	25628
834.821	25590
834.959	25822
835.097	25704
835.235	25655
835.373	25681
835.511	25658
835.65	25434
835.788	25662
835.926	25415
836.064	25282
836.202	25362
836.34	25510
836.478	25635
836.615	25510
836.753	25639
836.891	25563
837.029	25609
837.167	25445
837.305	25396
837.443	25441
837.58	25320
837.718	25343
837.856	25441
837.993	25392
838.131	25502
838.269	25137
838.406	25141
838.544	25194
838.681	24920
838.819	24935
838.956	24677
839.094	24760
839.231	24837
839.369	24973
839.506	25072
839.643	25133
839.781	24867
839.918	24719
840.055	24715
840.193	24810
840.33	24658
840.467	24840
840.604	24684
840.742	24886
840.879	24532
841.016	24601
841.153	24601
841.29	24673
841.427	24631
841.564	24631
841.701	24654
841.838	24593
841.975	24642
842.112	24574
842.249	24410
842.385	24391
842.522	24658
842.659	24528
842.796	24437
842.933	24532
843.069	24338
843.206	24403
843.343	24448
843.479	24426
843.616	24452
843.752	24304
843.889	24247
844.025	24308
844.162	24152
844.298	24330
844.435	24270
844.571	24106
844.708	24201
844.844	24460
844.98	24311
845.117	24372
845.253	24171
845.389	24034
845.525	24068
845.661	24049
845.798	24003
845.934	23927
846.07	23931
846.206	24038
846.342	24163
846.478	23965
846.614	23786
846.75	23646
846.886	23687
847.022	23741
847.158	23718
847.294	23752
847.429	23691
847.565	23668
847.701	23961
847.837	23387
847.972	23322
848.108	23478
848.244	23421
848.379	23448
848.515	23265
848.65	23178
848.786	23303
848.921	23311
849.057	23368
849.192	23334
849.328	23288
849.463	23296
849.598	23246
849.734	23048
849.869	23231
850.004	23014
850.14	23098
850.275	23037
850.41	22946
850.545	22904
850.68	22991
850.815	23003
850.95	22858
851.085	23193
851.22	23105
851.355	23064
851.49	23052
851.625	23079
851.76	22953
851.895	22957
852.03	22915
852.165	22930
852.299	23022
852.434	23140
852.569	23067
852.703	23056
852.838	23200
852.973	23231
853.107	23162
853.242	22908
853.376	22790
853.511	22835
853.645	22778
853.78	22942
853.914	22850
854.048	22797
854.183	22790
854.317	22812
854.451	23041
854.585	22892
854.72	22839
854.854	22869
854.988	22782
855.122	22809
855.256	22721
855.39	22793
855.524	22820
855.658	22862
855.792	22892
855.926	22892
856.06	22793
856.194	22972
856.327	22904
856.461	22816
856.595	22831
856.729	22763
856.862	22896
856.996	22866
857.13	23136
857.263	22968
857.397	22987
857.53	22809
857.664	22896
857.797	22946
857.931	22782
858.064	22900
858.197	22919
858.331	22881
858.464	22698
858.597	22805
858.731	22740
858.864	22835
858.997	22824
859.13	22755
859.263	22721
859.396	22946
859.529	22889
859.662	22725
859.795	22828
859.928	22873
860.061	22984
860.194	23105
860.327	22767
860.46	22991
860.592	23067
860.725	23029
860.858	22995
860.99	22786
861.123	22660
861.256	22786
861.388	22774
861.521	23703
861.653	22843
861.786	22554
861.918	22752
862.05	22736
862.183	22793
862.315	22729
862.447	22915
862.58	22706
862.712	22584
862.844	22557
862.976	22626
863.108	22622
863.24	23056
863.372	22546
863.504	22527
863.636	22455
863.768	22554
863.9	22561
864.032	22462
864.164	22402
864.296	22679
864.428	22611
864.559	22497
864.691	22611
864.823	22459
864.954	22550
865.086	22489
865.217	22535
865.349	22333
865.48	22398
865.612	22398
865.743	22561
865.875	22409
866.006	22265
866.137	22436
866.269	22436
866.4	22356
866.531	22272
866.662	22341
866.793	22287
866.924	22394
867.055	22466
867.186	22478
867.317	22310
867.448	22291
867.579	22344
867.71	22188
867.841	22295
867.972	22318
868.103	22352
868.233	22363
868.364	22337
868.495	22421
868.625	22615
868.756	22694
868.886	22478
869.017	22649
869.147	22691
869.278	22554
869.408	22649
869.539	22584
869.669	22691
869.799	22645
869.929	22733
870.06	22702
870.19	22839
870.32	22805
870.45	22908
870.58	22927
870.71	23223
870.84	23052
870.97	23071
871.1	22942
871.23	23048
871.36	23162
871.489	23071
871.619	23132
871.749	23197
871.879	23227
872.008	23223
872.138	23220
872.267	23155
872.397	23052
872.526	22976
872.656	23006
872.785	23121
872.915	23277
873.044	23284
873.173	23265
873.303	23372
873.432	23277
873.561	23364
873.69	23254
873.819	23235
873.948	23398
874.077	23231
874.206	23166
874.335	23170
874.464	23318
874.593	23455
874.722	23356
874.851	23376
874.979	23482
875.108	23425
875.237	23318
875.365	23303
875.494	23292
875.623	23486
875.751	23440
875.88	23356
876.008	23535
876.136	23680
876.265	23726
876.393	23977
876.521	23897
876.65	23939
876.778	23878
876.906	23737
877.034	23794
877.162	23676
877.29	23760
877.418	23863
877.546	23779
877.674	23836
877.802	23661
877.93	23718
878.058	23745
878.185	23672
878.313	23710
878.441	23802
878.568	23554
878.696	23672
878.824	23661
878.951	23828
879.079	23824
879.206	24125
879.333	24015
879.461	23794
879.588	23931
879.715	23954
879.842	23942
879.97	23802
880.097	23646
880.224	23642
880.351	23760
880.478	23798
880.605	23463
880.732	23463
880.859	23923
880.986	23497
881.112	23623
881.239	23391
881.366	23223
881.493	23261
881.619	23246
881.746	23155
881.872	23178
881.999	23075
882.125	23048
882.252	23151
882.378	23189
882.505	23155
882.631	22987
882.757	22755
882.883	22968
883.01	22938
883.136	22691
883.262	22557
883.388	22577
883.514	22790
883.64	22763
883.766	22801
883.892	22577
884.018	22599
884.143	22649
884.269	22725
884.395	22637
884.52	22516
884.646	22466
884.772	22360
884.897	22249
885.023	22432
885.148	22523
885.274	22634
885.399	22527
885.524	22462
885.65	22474
885.775	22360
885.9	22386
886.025	22569
886.15	22653
886.275	22356
886.4	22287
886.525	22443
886.65	22356
886.775	22303
886.9	22565
887.025	22615
887.149	22489
887.274	22246
887.399	22101
887.523	22246
887.648	22223
887.773	22029
887.897	22280
888.021	22166
888.146	22067
888.27	22211
888.395	22268
888.519	22200
888.643	22154
888.767	22325
888.891	22044
889.015	22086
889.139	22067
889.263	22006
889.387	22162
889.511	22173
889.635	21983
889.759	21991
889.883	21911
890.006	22029
890.13	21987
890.254	21823
890.377	21827
890.501	21724
890.624	21637
890.748	21705
890.871	21641
890.995	21530
891.118	21416
891.241	21492
891.364	21561
891.488	21591
891.611	21454
891.734	21614
891.857	21530
891.98	21561
892.103	21481
892.226	21523
892.349	21416
892.471	21256
892.594	21466
892.717	21500
892.839	21412
892.962	21393
893.085	21439
893.207	21363
893.33	21192
893.452	21272
893.575	21469
893.697	21370
893.819	21496
893.941	21580
894.064	21614
894.186	21401
894.308	21359
894.43	21488
894.552	21572
894.674	21389
894.796	21359
894.918	21336
895.04	21268
895.161	21469
895.283	21477
895.405	21298
895.526	21348
895.648	21332
895.769	21340
895.891	21412
896.012	21443
896.134	21519
896.255	21367
896.376	21370
896.498	21370
896.619	21382
896.74	21298
896.861	21492
896.982	21713
897.103	21717
897.224	21583
897.345	21462
897.466	21431
897.587	21622
897.708	21667
897.828	21507
897.949	21511
898.07	21405
898.19	21447
898.311	21553
898.431	21454
898.552	21534
898.672	21538
898.792	21572
898.913	21492
899.033	21454
899.153	21424
899.273	21188
899.393	21249
899.513	21310
899.633	21344
899.753	21260
899.873	21180
899.993	21298
900.113	21188
900.232	21184
900.352	21203
900.472	21017
900.591	21017
900.711	21108
900.83	21070
900.95	21093
901.069	21131
901.189	20963
901.308	20724
901.427	20629
901.546	20739
901.665	20686
901.784	20632
901.904	20309
902.023	20366
902.141	20096
902.26	20115
902.379	20191
902.498	20233
902.617	20065
902.735	20134
902.854	20062
902.973	19959
903.091	19765
903.21	19750
903.328	19811
903.446	19704
903.565	19605
903.683	19567
903.801	19476
903.919	19590
904.038	19384
904.156	19358
904.274	19350
904.392	19396
904.51	19236
904.627	19221
904.745	19285
904.863	19350
904.981	19088
905.098	18973
905.216	18970
905.334	19012
905.451	18875
905.569	18905
905.686	18981
905.803	18993
905.921	18837
906.038	18783
906.155	18741
906.272	18544
906.389	18772
906.506	18513
906.623	18536
906.74	18627
906.857	18403
906.974	18414
907.091	18532
907.208	18589
907.324	18582
907.441	18350
907.557	18266
907.674	18190
907.79	18239
907.907	18213
908.023	18209
908.139	18228
908.256	18167
908.372	18194
908.488	18034
908.604	17999
908.72	17824
908.836	17927
908.952	17863
909.068	17996
909.184	17961
909.3	17859
909.415	17901
909.531	17813
909.647	17710
909.762	17585
909.878	17608
909.993	17741
910.108	17547
910.224	17596
910.339	17440
910.454	17539
910.57	17478
910.685	17410
910.8	17490
910.915	17482
911.03	17467
911.145	17265
911.259	17178
911.374	17166
911.489	17155
911.604	17048
911.718	17064
911.833	16934
911.947	16904
912.062	16778
912.176	16839
912.291	17018
912.405	16847
912.519	17067
912.633	17155
912.748	16972
912.862	16820
912.976	16733
913.09	16618
913.204	16626
913.318	16812
913.431	16828
913.545	16729
913.659	16877
913.772	16744
913.886	16569
914	16542
914.113	16577
914.226	16611
914.34	16546
914.453	16443
914.566	16466
914.68	16428
914.793	16249
914.906	16154
915.019	16097
915.132	16067
915.245	16120
915.358	16109
915.47	16185
915.583	16124
915.696	16074
915.809	16169
915.921	16181
916.034	16105
916.146	15880
916.259	15953
916.371	16029
916.483	16086
916.595	15960
916.708	15918
916.82	15861
916.932	15873
917.044	15888
917.156	15835
917.268	15675
917.38	15644
917.491	15728
917.603	15679
917.715	15739
917.826	15838
917.938	15599
918.049	15488
918.161	15633
918.272	15591
918.384	15747
918.495	15622
918.606	15477
918.717	15408
918.828	15450
918.939	15572
919.05	15401
919.161	15473
919.272	15241
919.383	15306
919.494	15481
919.604	15648
919.715	15485
919.826	15310
919.936	15393
920.047	15412
920.157	15435
920.267	15599
920.378	15408
920.488	15329
920.598	15511
920.708	15660
920.818	15538
920.928	15504
921.038	15728
921.148	15576
921.258	15287
921.368	15298
921.477	15176
921.587	15097
921.697	15005
921.806	15108
921.916	15009
922.025	14815
922.134	14788
922.244	14735
922.353	14804
922.462	14659
922.571	14560
922.68	14404
922.789	14457
922.898	14423
923.007	14393
923.116	14259
923.224	14358
923.333	14305
923.442	14195
923.55	14180
923.659	14256
923.767	14317
923.876	14050
923.984	14142
924.092	14012
924.201	14107
924.309	14172
924.417	14046
924.525	14069
924.633	14065
924.741	14910
924.849	13727
924.956	13993
925.064	13799
925.172	13734
925.279	13799
925.387	13769
925.494	13841
925.602	13871
925.709	13746
925.816	13704
925.924	13662
926.031	13769
926.138	13662
926.245	13742
926.352	13643
926.459	13719
926.566	13769
926.673	13556
926.779	13487
926.886	13476
926.993	13282
927.099	13247
927.206	13244
927.312	13156
927.419	13274
927.525	13289
927.631	13251
927.737	13080
927.843	13145
927.95	13038
928.056	13027
928.162	13076
928.267	13141
928.373	13685
928.479	13213
928.585	12905
928.69	12985
928.796	12996
928.901	12863
929.007	12711
929.112	12943
929.218	12897
929.323	12859
929.428	12776
929.533	12932
929.638	12703
929.743	12749
929.848	12776
929.953	12829
930.058	12658
930.163	12509
930.267	12467
930.372	12642
930.477	12456
930.581	12623
930.685	12433
930.79	12357
930.894	12376
930.998	12338
931.103	12460
931.207	11977
931.311	12038
931.415	11961
931.519	11802
931.623	11718
