Data from test_V78500241_3651.txt Node
Date: Fri Mar 25 16:07:05 CST 2022
User: usil
Spectrometer: V785-0024
Trigger mode: 0
Integration Time (sec): 4.000000E-1
Scans to average: 1
Nonlinearity correction enabled: false
Boxcar width: 0
Storing dark spectrum: false
XAxis mode: Wavelengths
Number of Pixels in Spectrum: 1024
>>>>>Begin Spectral Data<<<<<
801.071	28356
801.214	28204
801.356	28006
801.499	28074
801.641	27899
801.783	27960
801.926	27949
802.068	27701
802.211	27838
802.353	27667
802.496	27587
802.638	27583
802.78	27454
802.923	27466
803.065	27298
803.208	27420
803.35	27477
803.492	27656
803.635	27804
803.777	27656
803.919	27831
804.061	28063
804.204	27827
804.346	27618
804.488	27762
804.63	27751
804.773	27728
804.915	27819
805.057	27827
805.199	27812
805.341	27869
805.483	27808
805.626	27941
805.768	27743
805.91	27975
806.052	27937
806.194	27861
806.336	28078
806.478	27949
806.62	27884
806.762	28143
806.904	28200
807.046	28512
807.188	28238
807.33	28390
807.472	28379
807.614	28314
807.756	28242
807.898	28128
808.04	28086
808.182	28063
808.324	28200
808.465	28409
808.607	28516
808.749	28660
808.891	28797
809.033	28748
809.174	28592
809.316	28733
809.458	28519
809.6	28611
809.741	28672
809.883	28698
810.025	28900
810.166	28778
810.308	28862
810.45	28900
810.591	28847
810.733	28634
810.875	28569
811.016	28455
811.158	28546
811.299	28535
811.441	28656
811.582	28683
811.724	28656
811.865	28599
812.007	28580
812.148	28554
812.29	28653
812.431	28630
812.573	28972
812.714	28999
812.855	29052
812.997	29178
813.138	29269
813.279	29235
813.421	29208
813.562	29025
813.703	28790
813.845	28877
813.986	28573
814.127	28478
814.268	28295
814.41	28211
814.551	28333
814.692	28322
814.833	28116
814.974	28249
815.115	28417
815.256	28139
815.397	28166
815.539	28029
815.68	28128
815.821	28032
815.962	28169
816.103	28013
816.244	27892
816.385	27911
816.526	27838
816.666	27671
816.807	27466
816.948	27759
817.089	27785
817.23	27526
817.371	27561
817.512	27648
817.653	27679
817.793	27603
817.934	27759
818.075	27591
818.216	27694
818.356	27610
818.497	27466
818.638	27378
818.778	27378
818.919	27310
819.06	27401
819.2	27408
819.341	27595
819.481	27629
819.622	27755
819.762	27888
819.903	27998
820.043	27701
820.184	27884
820.324	27606
820.465	27827
820.605	27614
820.746	27774
820.886	27496
821.026	27641
821.167	27694
821.307	27709
821.447	27542
821.588	27469
821.728	27416
821.868	27260
822.008	27176
822.149	26998
822.289	27032
822.429	26868
822.569	26716
822.709	26746
822.849	26678
822.99	26583
823.13	26511
823.27	26579
823.41	26484
823.55	26332
823.69	26431
823.83	26473
823.97	26438
824.11	26210
824.25	26161
824.389	26233
824.529	26358
824.669	26324
824.809	26457
824.949	26172
825.089	26298
825.228	26362
825.368	26092
825.508	26157
825.648	26111
825.787	26183
825.927	26161
826.067	26012
826.206	26054
826.346	26062
826.485	26149
826.625	26084
826.765	26210
826.904	26282
827.044	25928
827.183	25788
827.323	25860
827.462	25860
827.601	25925
827.741	25738
827.88	25860
828.02	25712
828.159	25841
828.298	25887
828.437	25970
828.577	25845
828.716	25940
828.855	25651
828.994	25476
829.134	25529
829.273	25624
829.412	25434
829.551	25430
829.69	25479
829.829	25453
829.968	25693
830.107	25594
830.246	25487
830.385	25537
830.524	25400
830.663	25388
830.802	25217
830.941	25171
831.08	25065
831.219	25274
831.357	25152
831.496	25339
831.635	25107
831.774	24875
831.913	24939
832.051	24806
832.19	24932
832.329	24989
832.467	24741
832.606	24829
832.744	24741
832.883	24753
833.022	24673
833.16	24863
833.299	24776
833.437	24859
833.576	24981
833.714	24863
833.852	24856
833.991	24989
834.129	24837
834.267	24875
834.406	24817
834.544	24768
834.682	24844
834.821	24844
834.959	25053
835.097	24715
835.235	24882
835.373	24848
835.511	24844
835.65	24635
835.788	24646
835.926	24551
836.064	24505
836.202	24551
836.34	24563
836.478	24768
836.615	24715
836.753	24642
836.891	24776
837.029	24749
837.167	24513
837.305	24563
837.443	24612
837.58	24582
837.718	24490
837.856	24604
837.993	24410
838.131	24448
838.269	24452
838.406	24410
838.544	24258
838.681	24213
838.819	24015
838.956	24022
839.094	23977
839.231	23988
839.369	24171
839.506	24365
839.643	24182
839.781	23882
839.918	23843
840.055	23980
840.193	23958
840.33	24015
840.467	23916
840.604	23901
840.742	24106
840.879	23745
841.016	23722
841.153	23661
841.29	23969
841.427	23821
841.564	24034
841.701	23882
841.838	23870
841.975	23794
842.112	23798
842.249	23718
842.385	23710
842.522	23859
842.659	23745
842.796	23798
842.933	23528
843.069	23566
843.206	23554
843.343	23672
843.479	23630
843.616	23642
843.752	23493
843.889	23436
844.025	23482
844.162	23334
844.298	23497
844.435	23398
844.571	23463
844.708	23455
844.844	23581
844.98	23668
845.117	23611
845.253	23497
845.389	23299
845.525	23273
845.661	23284
845.798	23193
845.934	23185
846.07	23155
846.206	23136
846.342	23265
846.478	23086
846.614	22984
846.75	22801
846.886	22915
847.022	22934
847.158	23048
847.294	22938
847.429	22892
847.565	22790
847.701	23102
847.837	22603
847.972	22611
848.108	22767
848.244	22664
848.379	22546
848.515	22459
848.65	22504
848.786	22485
848.921	22481
849.057	22565
849.192	22588
849.328	22542
849.463	22485
849.598	22504
849.734	22394
849.869	22390
850.004	22223
850.14	22306
850.275	22181
850.41	22185
850.545	22219
850.68	22154
850.815	22173
850.95	22150
851.085	22398
851.22	22386
851.355	22310
851.49	22215
851.625	22154
851.76	22325
851.895	22173
852.03	22200
852.165	22124
852.299	22318
852.434	22337
852.569	22238
852.703	22337
852.838	22322
852.973	22440
853.107	22276
853.242	22082
853.376	22063
853.511	21998
853.645	21979
853.78	22230
853.914	22093
854.048	22002
854.183	21972
854.317	22207
854.451	22375
854.585	22063
854.72	22120
854.854	22128
854.988	22021
855.122	22158
855.256	22013
855.39	22021
855.524	22078
855.658	22166
855.792	22063
855.926	22116
856.06	22135
856.194	22112
856.327	22090
856.461	21926
856.595	22097
856.729	21907
856.862	22265
856.996	22162
857.13	22173
857.263	22101
857.397	22196
857.53	22086
857.664	22139
857.797	22063
857.931	22158
858.064	21994
858.197	22188
858.331	22017
858.464	22029
858.597	22017
858.731	22029
858.864	22002
858.997	22055
859.13	22002
859.263	22097
859.396	22211
859.529	21979
859.662	21979
859.795	22074
859.928	21911
860.061	22249
860.194	22242
860.327	22177
860.46	22124
860.592	22249
860.725	22234
860.858	22154
860.99	22025
861.123	22067
861.256	21956
861.388	22067
861.521	22736
861.653	21915
861.786	21892
861.918	21827
862.05	21968
862.183	21934
862.315	22010
862.447	22120
862.58	22013
862.712	21835
862.844	21865
862.976	21918
863.108	21717
863.24	22268
863.372	21663
863.504	21831
863.636	21850
863.768	21728
863.9	21774
864.032	21637
864.164	21701
864.296	21701
864.428	21934
864.559	21865
864.691	21915
864.823	21797
864.954	21781
865.086	21618
865.217	21785
865.349	21557
865.48	21622
865.612	21705
865.743	21774
865.875	21663
866.006	21637
866.137	21606
866.269	21557
866.4	21770
866.531	21583
866.662	21576
866.793	21511
866.924	21568
867.055	21587
867.186	21603
867.317	21526
867.448	21443
867.579	21576
867.71	21583
867.841	21393
867.972	21504
868.103	21591
868.233	21530
868.364	21576
868.495	21660
868.625	21808
868.756	21956
868.886	21781
869.017	21895
869.147	21850
869.278	21827
869.408	21838
869.539	21827
869.669	21846
869.799	21846
869.929	21937
870.06	21876
870.19	22207
870.32	22150
870.45	22032
870.58	22215
870.71	22253
870.84	22257
870.97	22200
871.1	22185
871.23	22379
871.36	22481
871.489	22394
871.619	22344
871.749	22409
871.879	22409
872.008	22394
872.138	22474
872.267	22451
872.397	22371
872.526	22310
872.656	22291
872.785	22352
872.915	22421
873.044	22508
873.173	22466
873.303	22565
873.432	22512
873.561	22565
873.69	22565
873.819	22580
873.948	22565
874.077	22527
874.206	22432
874.335	22451
874.464	22451
874.593	22706
874.722	22611
874.851	22694
874.979	22831
875.108	22877
875.237	22607
875.365	22478
875.494	22641
875.623	22752
875.751	22763
875.88	22706
876.008	22759
876.136	22847
876.265	22991
876.393	23250
876.521	23071
876.65	23143
876.778	23025
876.906	22995
877.034	22919
877.162	22976
877.29	23041
877.418	23022
877.546	23037
877.674	22972
877.802	23136
877.93	22938
878.058	23067
878.185	22889
878.313	22919
878.441	23094
878.568	22862
878.696	23075
878.824	23010
878.951	23124
879.079	23105
879.206	23296
879.333	23140
879.461	23052
879.588	23041
879.715	23284
879.842	23334
879.97	23147
880.097	22911
880.224	22866
880.351	22999
880.478	22911
880.605	22873
880.732	22816
880.859	23037
880.986	22866
881.112	22881
881.239	22660
881.366	22497
881.493	22569
881.619	22440
881.746	22413
881.872	22394
881.999	22299
882.125	22344
882.252	22386
882.378	22379
882.505	22504
882.631	22234
882.757	22204
882.883	22166
883.01	22147
883.136	22040
883.262	21892
883.388	21880
883.514	22109
883.64	22196
883.766	22116
883.892	21907
884.018	21884
884.143	21987
884.269	22059
884.395	21888
884.52	21743
884.646	21747
884.772	21713
884.897	21648
885.023	21751
885.148	21808
885.274	21960
885.399	21884
885.524	21694
885.65	21797
885.775	21789
885.9	21583
886.025	21682
886.15	21778
886.275	21717
886.4	21701
886.525	21701
886.65	21686
886.775	21561
886.9	21747
887.025	21911
887.149	21743
887.274	21610
887.399	21572
887.523	21454
887.648	21435
887.773	21340
887.897	21511
888.021	21549
888.146	21443
888.27	21591
888.395	21606
888.519	21622
888.643	21462
888.767	21599
888.891	21435
889.015	21241
889.139	21275
889.263	21283
889.387	21355
889.511	21439
889.635	21389
889.759	21306
889.883	21283
890.006	21416
890.13	21428
890.254	21256
890.377	21275
890.501	21070
890.624	21017
890.748	21028
890.871	20956
890.995	20758
891.118	20857
891.241	20910
891.364	20834
891.488	20899
891.611	20918
891.734	20819
891.857	20895
891.98	20880
892.103	20952
892.226	20910
892.349	20727
892.471	20674
892.594	20777
892.717	20804
892.839	20724
892.962	20636
893.085	20735
893.207	20651
893.33	20667
893.452	20682
893.575	20868
893.697	20678
893.819	20948
893.941	21017
894.064	20861
894.186	20762
894.308	20777
894.43	20834
894.552	20826
894.674	20834
894.796	20594
894.918	20640
895.04	20777
895.161	20773
895.283	20765
895.405	20590
895.526	20727
895.648	20739
895.769	20807
895.891	20842
896.012	20804
896.134	20864
896.255	20788
896.376	20632
896.498	20686
896.619	20754
896.74	20667
896.861	20743
896.982	20944
897.103	21100
897.224	20895
897.345	20876
897.466	20941
897.587	20990
897.708	21112
897.828	21077
897.949	20872
898.07	20682
898.19	20872
898.311	21116
898.431	20899
898.552	20891
898.672	21036
898.792	21013
898.913	20952
899.033	20830
899.153	20792
899.273	20651
899.393	20678
899.513	20731
899.633	20644
899.753	20708
899.873	20552
899.993	20674
900.113	20568
900.232	20636
900.352	20678
900.472	20465
900.591	20362
900.711	20465
900.83	20355
900.95	20663
901.069	20457
901.189	20351
901.308	20024
901.427	20039
901.546	20016
901.665	20046
901.784	19993
901.904	19849
902.023	19803
902.141	19586
902.26	19518
902.379	19453
902.498	19476
902.617	19449
902.735	19476
902.854	19419
902.973	19362
903.091	19232
903.21	19285
903.328	19088
903.446	19099
903.565	18924
903.683	19015
903.801	18829
903.919	19019
904.038	19019
904.156	18795
904.274	18795
904.392	18730
904.51	18798
904.627	18703
904.745	18791
904.863	18814
904.981	18612
905.098	18433
905.216	18330
905.334	18338
905.451	18353
905.569	18319
905.686	18407
905.803	18376
905.921	18258
906.038	18285
906.155	18201
906.272	18121
906.389	18091
906.506	17901
906.623	17977
906.74	17908
906.857	17821
906.974	17874
907.091	17992
907.208	17950
907.324	18026
907.441	17897
907.557	17729
907.674	17748
907.79	17573
907.907	17684
908.023	17718
908.139	17786
908.256	17737
908.372	17592
908.488	17425
908.604	17425
908.72	17337
908.836	17436
908.952	17395
909.068	17410
909.184	17528
909.3	17440
909.415	17372
909.531	17421
909.647	17124
909.762	17037
909.878	16995
909.993	17018
910.108	16942
910.224	16991
910.339	17029
910.454	16850
910.57	16847
910.685	16790
910.8	17136
910.915	16968
911.03	16854
911.145	16630
911.259	16687
911.374	16618
911.489	16615
911.604	16573
911.718	16382
911.833	16386
911.947	16234
912.062	16265
912.176	16428
912.291	16405
912.405	16447
912.519	16558
912.633	16626
912.748	16512
912.862	16417
912.976	16200
913.09	16090
913.204	16204
913.318	16276
913.431	16295
913.545	16284
913.659	16299
913.772	16253
913.886	15975
914	16010
914.113	16173
914.226	16097
914.34	16055
914.453	15903
914.566	15991
914.68	15918
914.793	15816
914.906	15660
915.019	15603
915.132	15526
915.245	15599
915.358	15606
915.47	15599
915.583	15629
915.696	15595
915.809	15686
915.921	15690
916.034	15481
916.146	15507
916.259	15428
916.371	15629
916.483	15523
916.595	15443
916.708	15454
916.82	15401
916.932	15431
917.044	15450
917.156	15348
917.268	15230
917.38	15272
917.491	15218
917.603	15203
917.715	15298
917.826	15272
917.938	15180
918.049	15119
918.161	15157
918.272	15321
918.384	15370
918.495	15195
918.606	15089
918.717	14910
918.828	14937
918.939	15039
919.05	14853
919.161	14960
919.272	14773
919.383	14769
919.494	15039
919.604	15150
919.715	14941
919.826	14914
919.936	15005
920.047	15005
920.157	14918
920.267	15154
920.378	14952
920.488	14857
920.598	15116
920.708	15329
920.818	15024
920.928	15058
921.038	15195
921.148	15127
921.258	14834
921.368	14785
921.477	14712
921.587	14579
921.697	14579
921.806	14625
921.916	14545
922.025	14438
922.134	14259
922.244	14263
922.353	14313
922.462	14195
922.571	14058
922.68	13906
922.789	13982
922.898	14012
923.007	13906
923.116	13951
923.224	13951
923.333	13986
923.442	13811
923.55	13746
923.659	13799
923.767	13879
923.876	13723
923.984	13830
924.092	13693
924.201	13704
924.309	13613
924.417	13677
924.525	13700
924.633	13559
924.741	14537
924.849	13407
924.956	13441
925.064	13419
925.172	13369
925.279	13270
925.387	13320
925.494	13350
925.602	13529
925.709	13426
925.816	13293
925.924	13240
926.031	13354
926.138	13396
926.245	13369
926.352	13168
926.459	13270
926.566	13266
926.673	13129
926.779	13050
926.886	13065
926.993	12985
927.099	12958
927.206	12821
927.312	12802
927.419	13046
927.525	12905
927.631	13015
927.737	12798
927.843	12711
927.95	12608
928.056	12726
928.162	12658
928.267	12798
928.373	13392
928.479	12802
928.585	12521
928.69	12589
928.796	12753
928.901	12544
929.007	12395
929.112	12517
929.218	12517
929.323	12479
929.428	12369
929.533	12547
929.638	12376
929.743	12342
929.848	12486
929.953	12323
930.058	12239
930.163	12140
930.267	12129
930.372	12243
930.477	12076
930.581	12273
930.685	12136
930.79	11980
930.894	12053
930.998	11977
931.103	12068
931.207	11680
931.311	11657
931.415	11600
931.519	11395
931.623	11318
