Data from test_V78500241_2109.txt Node
Date: Fri Mar 25 15:56:24 CST 2022
User: usil
Spectrometer: V785-0024
Trigger mode: 0
Integration Time (sec): 4.000000E-1
Scans to average: 1
Nonlinearity correction enabled: false
Boxcar width: 0
Storing dark spectrum: false
XAxis mode: Wavelengths
Number of Pixels in Spectrum: 1024
>>>>>Begin Spectral Data<<<<<
801.071	28828
801.214	28919
801.356	28679
801.499	28447
801.641	28344
801.783	28413
801.926	28599
802.068	28493
802.211	28478
802.353	28459
802.496	28181
802.638	28192
802.78	28135
802.923	28177
803.065	28013
803.208	28048
803.35	28230
803.492	28329
803.635	28531
803.777	28257
803.919	28405
804.061	28835
804.204	28527
804.346	28508
804.488	28360
804.63	28512
804.773	28306
804.915	28470
805.057	28523
805.199	28333
805.341	28470
805.483	28675
805.626	28637
805.768	28523
805.91	28542
806.052	28580
806.194	28504
806.336	28691
806.478	28615
806.62	28527
806.762	28668
806.904	28965
807.046	29025
807.188	29048
807.33	29018
807.472	29113
807.614	29003
807.756	28953
807.898	28911
808.04	28801
808.182	28717
808.324	28923
808.465	28915
808.607	29178
808.749	29239
808.891	29417
809.033	29395
809.174	29337
809.316	29204
809.458	29246
809.6	29189
809.741	29345
809.883	29307
810.025	29566
810.166	29490
810.308	29604
810.45	29531
810.591	29490
810.733	29341
810.875	29490
811.016	29231
811.158	29181
811.299	29395
811.441	29315
811.582	29520
811.724	29299
811.865	29181
812.007	29178
812.148	29261
812.29	29425
812.431	29543
812.573	29657
812.714	29627
812.855	29828
812.997	29767
813.138	30114
813.279	29832
813.421	29745
813.562	29775
813.703	29615
813.845	29672
813.986	29288
814.127	29083
814.268	29155
814.41	29056
814.551	28999
814.692	29155
814.833	28927
814.974	28991
815.115	28968
815.256	28869
815.397	28896
815.539	28858
815.68	28797
815.821	28778
815.962	28888
816.103	28835
816.244	28626
816.385	28634
816.526	28656
816.666	28508
816.807	28276
816.948	28413
817.089	28352
817.23	28470
817.371	28356
817.512	28322
817.653	28356
817.793	28322
817.934	28234
818.075	28306
818.216	28207
818.356	28325
818.497	28226
818.638	28048
818.778	28097
818.919	28219
819.06	28181
819.2	28341
819.341	28398
819.481	28344
819.622	28500
819.762	28733
819.903	28603
820.043	28508
820.184	28672
820.324	28531
820.465	28592
820.605	28432
820.746	28455
820.886	28329
821.026	28497
821.167	28409
821.307	28516
821.447	28333
821.588	28185
821.728	28272
821.868	28002
822.008	27766
822.149	27918
822.289	27873
822.429	27515
822.569	27412
822.709	27686
822.849	27233
822.99	27298
823.13	27382
823.27	27332
823.41	27176
823.55	27028
823.69	27142
823.83	27207
823.97	27104
824.11	26967
824.25	27058
824.389	27055
824.529	27104
824.669	27001
824.809	27062
824.949	27135
825.089	26994
825.228	27043
825.368	26800
825.508	26883
825.648	26906
825.787	26914
825.927	26963
826.067	26807
826.206	26895
826.346	27024
826.485	26883
826.625	26872
826.765	27096
826.904	26887
827.044	26659
827.183	26609
827.323	26583
827.462	26670
827.601	26648
827.741	26617
827.88	26682
828.02	26427
828.159	26609
828.298	26750
828.437	26632
828.577	26533
828.716	26530
828.855	26461
828.994	26499
829.134	26164
829.273	26351
829.412	26225
829.551	26286
829.69	26199
829.829	26324
829.968	26294
830.107	26355
830.246	26237
830.385	26126
830.524	26145
830.663	26092
830.802	26035
830.941	25864
831.08	26001
831.219	25864
831.357	25928
831.496	26134
831.635	25868
831.774	25902
831.913	25670
832.051	25609
832.19	25651
832.329	25795
832.467	25677
832.606	25533
832.744	25514
832.883	25586
833.022	25483
833.16	25578
833.299	25491
833.437	25525
833.576	25662
833.714	25643
833.852	25715
833.991	25533
834.129	25742
834.267	25674
834.406	25487
834.544	25624
834.682	25518
834.821	25605
834.959	25635
835.097	25464
835.235	25655
835.373	25597
835.511	25468
835.65	25483
835.788	25594
835.926	25369
836.064	25255
836.202	25152
836.34	25441
836.478	25495
836.615	25472
836.753	25396
836.891	25346
837.029	25369
837.167	25350
837.305	25247
837.443	25274
837.58	25236
837.718	25221
837.856	25316
837.993	25133
838.131	25236
838.269	25129
838.406	25069
838.544	25069
838.681	24825
838.819	24825
838.956	24692
839.094	24681
839.231	24722
839.369	24768
839.506	25103
839.643	24890
839.781	24760
839.918	24559
840.055	24654
840.193	24703
840.33	24616
840.467	24627
840.604	24707
840.742	24859
840.879	24513
841.016	24627
841.153	24437
841.29	24551
841.427	24620
841.564	24589
841.701	24631
841.838	24677
841.975	24399
842.112	24467
842.249	24346
842.385	24498
842.522	24650
842.659	24452
842.796	24475
842.933	24327
843.069	24315
843.206	24342
843.343	24452
843.479	24285
843.616	24323
843.752	24239
843.889	24095
844.025	24201
844.162	24102
844.298	24266
844.435	24022
844.571	24091
844.708	24209
844.844	24338
844.98	24232
845.117	24289
845.253	24007
845.389	23958
845.525	24079
845.661	23920
845.798	23821
845.934	23969
846.07	23851
846.206	23908
846.342	23969
846.478	23859
846.614	23707
846.75	23455
846.886	23714
847.022	23539
847.158	23490
847.294	23585
847.429	23604
847.565	23687
847.701	23771
847.837	23216
847.972	23307
848.108	23429
848.244	23269
848.379	23216
848.515	23166
848.65	23231
848.786	23181
848.921	23185
849.057	23265
849.192	23212
849.328	23124
849.463	23277
849.598	23071
849.734	23155
849.869	22885
850.004	22961
850.14	22919
850.275	22930
850.41	22900
850.545	22862
850.68	22843
850.815	22938
850.95	22862
851.085	23105
851.22	23102
851.355	22980
851.49	22972
851.625	22755
851.76	22862
851.895	22873
852.03	22778
852.165	22896
852.299	22892
852.434	23079
852.569	22908
852.703	22896
852.838	22934
852.973	22957
853.107	23071
853.242	22809
853.376	22736
853.511	22755
853.645	22641
853.78	22938
853.914	22797
854.048	22668
854.183	22733
854.317	22637
854.451	22881
854.585	22809
854.72	22733
854.854	22877
854.988	22801
855.122	22744
855.256	22554
855.39	22702
855.524	22869
855.658	22710
855.792	22721
855.926	22778
856.06	22774
856.194	22812
856.327	22786
856.461	22801
856.595	22736
856.729	22831
856.862	22778
856.996	22786
857.13	22778
857.263	22786
857.397	22809
857.53	22820
857.664	22683
857.797	22759
857.931	22805
858.064	22717
858.197	22790
858.331	22786
858.464	22668
858.597	22615
858.731	22630
858.864	22752
858.997	22649
859.13	22752
859.263	22740
859.396	22923
859.529	22736
859.662	22706
859.795	22729
859.928	22790
860.061	22805
860.194	22942
860.327	22694
860.46	22805
860.592	22721
860.725	22953
860.858	22968
860.99	22801
861.123	22596
861.256	22687
861.388	22744
861.521	23592
861.653	22622
861.786	22497
861.918	22588
862.05	22626
862.183	22790
862.315	22820
862.447	22752
862.58	22626
862.712	22428
862.844	22310
862.976	22599
863.108	22466
863.24	22854
863.372	22318
863.504	22390
863.636	22493
863.768	22489
863.9	22466
864.032	22371
864.164	22478
864.296	22447
864.428	22675
864.559	22535
864.691	22516
864.823	22478
864.954	22398
865.086	22436
865.217	22363
865.349	22268
865.48	22261
865.612	22207
865.743	22531
865.875	22455
866.006	22257
866.137	22329
866.269	22257
866.4	22318
866.531	22215
866.662	22253
866.793	22253
866.924	22375
867.055	22169
867.186	22261
867.317	22173
867.448	22253
867.579	22120
867.71	22173
867.841	22055
867.972	22219
868.103	22249
868.233	22284
868.364	22246
868.495	22379
868.625	22519
868.756	22656
868.886	22470
869.017	22402
869.147	22584
869.278	22573
869.408	22527
869.539	22421
869.669	22504
869.799	22512
869.929	22615
870.06	22694
870.19	22721
870.32	22782
870.45	22869
870.58	22908
870.71	22957
870.84	23075
870.97	22930
871.1	22866
871.23	23041
871.36	23250
871.489	22957
871.619	22991
871.749	23124
871.879	23041
872.008	23155
872.138	23197
872.267	23109
872.397	22896
872.526	22881
872.656	22953
872.785	22896
872.915	23128
873.044	23147
873.173	23102
873.303	23261
873.432	23227
873.561	23197
873.69	23220
873.819	23102
873.948	23242
874.077	23124
874.206	23109
874.335	23079
874.464	23178
874.593	23379
874.722	23246
874.851	23372
874.979	23318
875.108	23364
875.237	23292
875.365	23273
875.494	23254
875.623	23372
875.751	23239
875.88	23337
876.008	23539
876.136	23463
876.265	23604
876.393	23882
876.521	23767
876.65	23748
876.778	23748
876.906	23554
877.034	23615
877.162	23680
877.29	23531
877.418	23668
877.546	23798
877.674	23680
877.802	23543
877.93	23661
878.058	23703
878.185	23497
878.313	23642
878.441	23642
878.568	23539
878.696	23661
878.824	23779
878.951	23779
879.079	23897
879.206	23935
879.333	23771
879.461	23794
879.588	23805
879.715	23824
879.842	23954
879.97	23756
880.097	23589
880.224	23520
880.351	23547
880.478	23440
880.605	23395
880.732	23512
880.859	23699
880.986	23493
881.112	23478
881.239	23387
881.366	23132
881.493	23261
881.619	23102
881.746	23025
881.872	23098
881.999	23105
882.125	23022
882.252	22976
882.378	23094
882.505	23121
882.631	22801
882.757	22622
882.883	22778
883.01	22733
883.136	22744
883.262	22634
883.388	22493
883.514	22744
883.64	22744
883.766	22793
883.892	22451
884.018	22527
884.143	22577
884.269	22869
884.395	22455
884.52	22341
884.646	22299
884.772	22246
884.897	22204
885.023	22333
885.148	22447
885.274	22436
885.399	22512
885.524	22394
885.65	22390
885.775	22379
885.9	22322
886.025	22443
886.15	22443
886.275	22261
886.4	22268
886.525	22204
886.65	22257
886.775	22215
886.9	22417
887.025	22508
887.149	22402
887.274	22200
887.399	22048
887.523	22010
887.648	22086
887.773	22029
887.897	22162
888.021	22215
888.146	22013
888.27	22265
888.395	22078
888.519	22097
888.643	22139
888.767	22086
888.891	22063
889.015	21861
889.139	21827
889.263	21800
889.387	21994
889.511	22109
889.635	21972
889.759	21850
889.883	21964
890.006	21899
890.13	21994
890.254	21793
890.377	21869
890.501	21705
890.624	21610
890.748	21690
890.871	21526
890.995	21583
891.118	21408
891.241	21416
891.364	21454
891.488	21660
891.611	21488
891.734	21477
891.857	21454
891.98	21431
892.103	21443
892.226	21481
892.349	21279
892.471	21325
892.594	21336
892.717	21405
892.839	21310
892.962	21374
893.085	21405
893.207	21317
893.33	21252
893.452	21230
893.575	21325
893.697	21325
893.819	21538
893.941	21469
894.064	21401
894.186	21313
894.308	21317
894.43	21389
894.552	21428
894.674	21344
894.796	21161
894.918	21302
895.04	21283
895.161	21443
895.283	21378
895.405	21249
895.526	21317
895.648	21317
895.769	21256
895.891	21431
896.012	21340
896.134	21351
896.255	21287
896.376	21313
896.498	21272
896.619	21359
896.74	21378
896.861	21389
896.982	21583
897.103	21728
897.224	21599
897.345	21504
897.466	21363
897.587	21485
897.708	21583
897.828	21477
897.949	21492
898.07	21469
898.19	21367
898.311	21504
898.431	21317
898.552	21485
898.672	21530
898.792	21679
898.913	21553
899.033	21378
899.153	21317
899.273	21184
899.393	21138
899.513	21348
899.633	21351
899.753	21317
899.873	21199
899.993	21268
900.113	21089
900.232	21188
900.352	21123
900.472	21081
900.591	20971
900.711	21047
900.83	20990
900.95	21146
901.069	21074
901.189	20861
901.308	20518
901.427	20545
901.546	20568
901.665	20587
901.784	20716
901.904	20358
902.023	20454
902.141	20214
902.26	20183
902.379	20176
902.498	20168
902.617	19978
902.735	20050
902.854	20054
902.973	19986
903.091	19769
903.21	19750
903.328	19670
903.446	19738
903.565	19578
903.683	19594
903.801	19350
903.919	19487
904.038	19434
904.156	19259
904.274	19388
904.392	19198
904.51	19304
904.627	19217
904.745	19301
904.863	19327
904.981	19084
905.098	18909
905.216	18901
905.334	19069
905.451	18985
905.569	19015
905.686	18954
905.803	19008
905.921	18700
906.038	18798
906.155	18749
906.272	18544
906.389	18559
906.506	18490
906.623	18513
906.74	18418
906.857	18399
906.974	18270
907.091	18494
907.208	18574
907.324	18494
907.441	18319
907.557	18201
907.674	18247
907.79	18106
907.907	18155
908.023	18152
908.139	18121
908.256	18064
908.372	18091
908.488	18030
908.604	17984
908.72	17859
908.836	17916
908.952	17843
909.068	17859
909.184	17961
909.3	17866
909.415	17851
909.531	17961
909.647	17551
909.762	17566
909.878	17562
909.993	17638
910.108	17497
910.224	17398
910.339	17505
910.454	17414
910.57	17383
910.685	17330
910.8	17558
910.915	17543
911.03	17315
911.145	17143
911.259	17105
911.374	17109
911.489	17113
911.604	17018
911.718	16965
911.833	16987
911.947	16828
912.062	16797
912.176	16858
912.291	16915
912.405	16809
912.519	17136
912.633	17052
912.748	16869
912.862	16820
912.976	16793
913.09	16611
913.204	16588
913.318	16736
913.431	16778
913.545	16736
913.659	16786
913.772	16687
913.886	16535
914	16474
914.113	16538
914.226	16592
914.34	16546
914.453	16265
914.566	16493
914.68	16344
914.793	16261
914.906	16131
915.019	16093
915.132	16074
915.245	16017
915.358	16120
915.47	16082
915.583	15998
915.696	16109
915.809	16128
915.921	16158
916.034	16017
916.146	15964
916.259	15953
916.371	16006
916.483	15972
916.595	15895
916.708	15823
916.82	15846
916.932	15907
917.044	15838
917.156	15797
917.268	15720
917.38	15701
917.491	15641
917.603	15652
917.715	15717
917.826	15762
917.938	15690
918.049	15587
918.161	15481
918.272	15682
918.384	15682
918.495	15667
918.606	15477
918.717	15397
918.828	15424
918.939	15412
919.05	15332
919.161	15401
919.272	15279
919.383	15302
919.494	15466
919.604	15599
919.715	15428
919.826	15340
919.936	15359
920.047	15447
920.157	15397
920.267	15526
920.378	15412
920.488	15313
920.598	15458
920.708	15717
920.818	15545
920.928	15458
921.038	15675
921.148	15553
921.258	15260
921.368	15146
921.477	15165
921.587	15100
921.697	14902
921.806	15108
921.916	14906
922.025	14777
922.134	14746
922.244	14613
922.353	14705
922.462	14590
922.571	14511
922.68	14377
922.789	14324
922.898	14343
923.007	14336
923.116	14294
923.224	14320
923.333	14294
923.442	14278
923.55	14126
923.659	14126
923.767	14172
923.876	14134
923.984	14142
924.092	14005
924.201	14210
924.309	14031
924.417	14107
924.525	13936
924.633	13982
924.741	14743
924.849	13734
924.956	13826
925.064	13788
925.172	13571
925.279	13700
925.387	13670
925.494	13662
925.602	13849
925.709	13757
925.816	13548
925.924	13658
926.031	13795
926.138	13715
926.245	13693
926.352	13533
926.459	13772
926.566	13704
926.673	13624
926.779	13483
926.886	13426
926.993	13282
927.099	13228
927.206	13266
927.312	13278
927.419	13221
927.525	13244
927.631	13202
927.737	13152
927.843	13133
927.95	12970
928.056	13129
928.162	13057
928.267	13042
928.373	13727
928.479	13099
928.585	12897
928.69	12928
928.796	13027
928.901	13019
929.007	12696
929.112	12909
929.218	12779
929.323	12703
929.428	12783
929.533	12916
929.638	12650
929.743	12726
929.848	12730
929.953	12673
930.058	12570
930.163	12342
930.267	12467
930.372	12555
930.477	12323
930.581	12521
930.685	12365
930.79	12311
930.894	12353
930.998	12304
931.103	12486
931.207	12060
931.311	12034
931.415	11805
931.519	11703
931.623	11619
