Data from test_V78500241_3677.txt Node
Date: Fri Mar 25 16:07:16 CST 2022
User: usil
Spectrometer: V785-0024
Trigger mode: 0
Integration Time (sec): 4.000000E-1
Scans to average: 1
Nonlinearity correction enabled: false
Boxcar width: 0
Storing dark spectrum: false
XAxis mode: Wavelengths
Number of Pixels in Spectrum: 1024
>>>>>Begin Spectral Data<<<<<
801.071	28447
801.214	28405
801.356	27884
801.499	28044
801.641	27850
801.783	27709
801.926	27930
802.068	27789
802.211	27759
802.353	27709
802.496	27538
802.638	27614
802.78	27485
802.923	27401
803.065	27386
803.208	27359
803.35	27488
803.492	27690
803.635	27705
803.777	27534
803.919	27766
804.061	28040
804.204	27755
804.346	27679
804.488	27572
804.63	27770
804.773	27625
804.915	27781
805.057	27808
805.199	27892
805.341	27854
805.483	27964
805.626	27960
805.768	27743
805.91	27907
806.052	28010
806.194	27751
806.336	27994
806.478	27895
806.62	27914
806.762	27991
806.904	28192
807.046	28394
807.188	28306
807.33	28417
807.472	28238
807.614	28341
807.756	28291
807.898	28116
808.04	28135
808.182	28025
808.324	28276
808.465	28440
808.607	28394
808.749	28755
808.891	28740
809.033	28664
809.174	28721
809.316	28740
809.458	28618
809.6	28409
809.741	28668
809.883	28740
810.025	28892
810.166	28831
810.308	28816
810.45	28691
810.591	28790
810.733	28584
810.875	28611
811.016	28512
811.158	28535
811.299	28573
811.441	28740
811.582	28801
811.724	28596
811.865	28535
812.007	28565
812.148	28580
812.29	28698
812.431	28786
812.573	28991
812.714	29056
812.855	29003
812.997	29200
813.138	29242
813.279	29265
813.421	29041
813.562	29105
813.703	28816
813.845	28740
813.986	28584
814.127	28375
814.268	28287
814.41	28299
814.551	28211
814.692	28413
814.833	28242
814.974	28249
815.115	28371
815.256	28139
815.397	28143
815.539	28128
815.68	28082
815.821	28055
815.962	28135
816.103	27991
816.244	27991
816.385	27846
816.526	27876
816.666	27629
816.807	27580
816.948	27713
817.089	27732
817.23	27572
817.371	27568
817.512	27488
817.653	27622
817.793	27530
817.934	27606
818.075	27519
818.216	27416
818.356	27587
818.497	27496
818.638	27165
818.778	27279
818.919	27355
819.06	27317
819.2	27420
819.341	27595
819.481	27519
819.622	27663
819.762	27884
819.903	27743
820.043	27827
820.184	27789
820.324	27606
820.465	27759
820.605	27800
820.746	27660
820.886	27523
821.026	27583
821.167	27625
821.307	27724
821.447	27564
821.588	27610
821.728	27424
821.868	27252
822.008	27051
822.149	27131
822.289	27043
822.429	26853
822.569	26678
822.709	26648
822.849	26476
822.99	26526
823.13	26533
823.27	26556
823.41	26358
823.55	26408
823.69	26400
823.83	26453
823.97	26214
824.11	26164
824.25	26115
824.389	26225
824.529	26267
824.669	26278
824.809	26305
824.949	26218
825.089	26377
825.228	26240
825.368	26084
825.508	26012
825.648	26027
825.787	26100
825.927	26176
826.067	25974
826.206	26035
826.346	26168
826.485	26229
826.625	26077
826.765	26134
826.904	26221
827.044	25849
827.183	25856
827.323	25655
827.462	25890
827.601	25841
827.741	25822
827.88	25772
828.02	25727
828.159	25753
828.298	25704
828.437	25753
828.577	25868
828.716	25906
828.855	25674
828.994	25563
829.134	25445
829.273	25586
829.412	25502
829.551	25441
829.69	25388
829.829	25613
829.968	25525
830.107	25643
830.246	25464
830.385	25434
830.524	25301
830.663	25377
830.802	25270
830.941	25042
831.08	25034
831.219	25129
831.357	25202
831.496	25339
831.635	25072
831.774	25034
831.913	24939
832.051	24951
832.19	24821
832.329	24852
832.467	24825
832.606	24612
832.744	24684
832.883	24749
833.022	24658
833.16	24768
833.299	24719
833.437	24760
833.576	24772
833.714	24814
833.852	24829
833.991	24856
834.129	24924
834.267	24894
834.406	24954
834.544	24935
834.682	24928
834.821	24783
834.959	25004
835.097	24825
835.235	24916
835.373	24848
835.511	24783
835.65	24658
835.788	24707
835.926	24547
836.064	24429
836.202	24521
836.34	24681
836.478	24719
836.615	24555
836.753	24635
836.891	24833
837.029	24688
837.167	24525
837.305	24471
837.443	24471
837.58	24486
837.718	24544
837.856	24559
837.993	24353
838.131	24391
838.269	24395
838.406	24197
838.544	24308
838.681	24273
838.819	24178
838.956	24018
839.094	23939
839.231	24117
839.369	24060
839.506	24304
839.643	24167
839.781	23935
839.918	23836
840.055	24022
840.193	23927
840.33	23878
840.467	23813
840.604	23885
840.742	24121
840.879	23657
841.016	23809
841.153	23824
841.29	23969
841.427	23882
841.564	23908
841.701	23878
841.838	23802
841.975	23790
842.112	23775
842.249	23668
842.385	23577
842.522	23912
842.659	23684
842.796	23608
842.933	23676
843.069	23573
843.206	23600
843.343	23809
843.479	23657
843.616	23684
843.752	23372
843.889	23455
844.025	23501
844.162	23345
844.298	23573
844.435	23459
844.571	23303
844.708	23497
844.844	23558
844.98	23570
845.117	23474
845.253	23368
845.389	23387
845.525	23250
845.661	23299
845.798	23185
845.934	23322
846.07	23216
846.206	23121
846.342	23349
846.478	23029
846.614	23014
846.75	22812
846.886	22938
847.022	22908
847.158	22919
847.294	22725
847.429	22904
847.565	22759
847.701	23143
847.837	22535
847.972	22489
848.108	22630
848.244	22637
848.379	22382
848.515	22451
848.65	22561
848.786	22398
848.921	22512
849.057	22500
849.192	22550
849.328	22542
849.463	22462
849.598	22386
849.734	22379
849.869	22257
850.004	22322
850.14	22360
850.275	22211
850.41	22211
850.545	22200
850.68	22177
850.815	22386
850.95	22192
851.085	22371
851.22	22329
851.355	22188
851.49	22196
851.625	22143
851.76	22234
851.895	22074
852.03	22078
852.165	22207
852.299	22257
852.434	22211
852.569	22158
852.703	22188
852.838	22417
852.973	22322
853.107	22188
853.242	22196
853.376	22090
853.511	21918
853.645	22109
853.78	22135
853.914	22048
854.048	22090
854.183	21937
854.317	22116
854.451	22200
854.585	22097
854.72	21968
854.854	22162
854.988	21941
855.122	22006
855.256	21884
855.39	21998
855.524	21934
855.658	22143
855.792	22128
855.926	22124
856.06	21975
856.194	22196
856.327	22040
856.461	21945
856.595	22017
856.729	22017
856.862	22211
856.996	22036
857.13	22040
857.263	22090
857.397	22093
857.53	22010
857.664	22158
857.797	22032
857.931	22055
858.064	22017
858.197	22177
858.331	21926
858.464	21987
858.597	21960
858.731	22074
858.864	22010
858.997	21994
859.13	22093
859.263	22032
859.396	22086
859.529	22036
859.662	21968
859.795	22021
859.928	22025
860.061	22261
860.194	22147
860.327	22120
860.46	21937
860.592	22200
860.725	22246
860.858	22257
860.99	22059
861.123	21911
861.256	21918
861.388	22154
861.521	22824
861.653	21960
861.786	21778
861.918	21934
862.05	21941
862.183	21865
862.315	21930
862.447	22010
862.58	21991
862.712	21876
862.844	21728
862.976	21964
863.108	21766
863.24	22192
863.372	21671
863.504	21751
863.636	21694
863.768	21793
863.9	21766
864.032	21622
864.164	21694
864.296	21804
864.428	21743
864.559	21838
864.691	21732
864.823	21724
864.954	21766
865.086	21819
865.217	21633
865.349	21454
865.48	21667
865.612	21713
865.743	21705
865.875	21728
866.006	21603
866.137	21625
866.269	21542
866.4	21675
866.531	21572
866.662	21614
866.793	21576
866.924	21515
867.055	21701
867.186	21542
867.317	21603
867.448	21389
867.579	21515
867.71	21458
867.841	21477
867.972	21663
868.103	21656
868.233	21424
868.364	21599
868.495	21739
868.625	21755
868.756	21884
868.886	21739
869.017	21903
869.147	21785
869.278	21915
869.408	21816
869.539	21869
869.669	21835
869.799	21854
869.929	21907
870.06	21964
870.19	22162
870.32	22109
870.45	22173
870.58	22215
870.71	22382
870.84	22329
870.97	22200
871.1	22223
871.23	22382
871.36	22428
871.489	22310
871.619	22299
871.749	22394
871.879	22352
872.008	22527
872.138	22478
872.267	22459
872.397	22310
872.526	22249
872.656	22265
872.785	22287
872.915	22459
873.044	22497
873.173	22447
873.303	22508
873.432	22531
873.561	22489
873.69	22493
873.819	22379
873.948	22538
874.077	22493
874.206	22234
874.335	22440
874.464	22573
874.593	22653
874.722	22683
874.851	22763
874.979	22641
875.108	22854
875.237	22687
875.365	22569
875.494	22626
875.623	22725
875.751	22691
875.88	22672
876.008	22820
876.136	22934
876.265	23094
876.393	23189
876.521	23056
876.65	23216
876.778	23083
876.906	23079
877.034	22896
877.162	22957
877.29	22915
877.418	22999
877.546	23044
877.674	22980
877.802	22900
877.93	22976
878.058	22896
878.185	22816
878.313	22873
878.441	23014
878.568	22828
878.696	22839
878.824	23025
878.951	22980
879.079	23204
879.206	23273
879.333	23231
879.461	23083
879.588	23109
879.715	23109
879.842	23155
879.97	22999
880.097	22793
880.224	22809
880.351	22763
880.478	22820
880.605	22778
880.732	22831
880.859	23071
880.986	22812
881.112	22805
881.239	22679
881.366	22489
881.493	22432
881.619	22550
881.746	22432
881.872	22440
881.999	22348
882.125	22367
882.252	22367
882.378	22379
882.505	22500
882.631	22185
882.757	22139
882.883	22086
883.01	22135
883.136	22200
883.262	22021
883.388	21945
883.514	22070
883.64	22105
883.766	22059
883.892	21876
884.018	21911
884.143	22082
884.269	22112
884.395	21838
884.52	21682
884.646	21823
884.772	21587
884.897	21625
885.023	21698
885.148	21865
885.274	21857
885.399	21797
885.524	21812
885.65	21755
885.775	21679
885.9	21663
886.025	21789
886.15	21819
886.275	21679
886.4	21580
886.525	21686
886.65	21603
886.775	21629
886.9	21835
887.025	21983
887.149	21618
887.274	21530
887.399	21359
887.523	21545
887.648	21477
887.773	21370
887.897	21492
888.021	21397
888.146	21386
888.27	21542
888.395	21500
888.519	21488
888.643	21439
888.767	21557
888.891	21458
889.015	21268
889.139	21367
889.263	21332
889.387	21359
889.511	21542
889.635	21454
889.759	21348
889.883	21310
890.006	21283
890.13	21207
890.254	21188
890.377	21294
890.501	21131
890.624	21051
890.748	21036
890.871	20811
890.995	20785
891.118	20773
891.241	20807
891.364	20864
891.488	20891
891.611	20876
891.734	20746
891.857	20921
891.98	20777
892.103	20899
892.226	20918
892.349	20743
892.471	20609
892.594	20648
892.717	20636
892.839	20667
892.962	20735
893.085	20769
893.207	20663
893.33	20594
893.452	20632
893.575	20720
893.697	20765
893.819	20815
893.941	21005
894.064	20967
894.186	20598
894.308	20708
894.43	20765
894.552	21005
894.674	20727
894.796	20629
894.918	20689
895.04	20617
895.161	20735
895.283	20617
895.405	20606
895.526	20788
895.648	20758
895.769	20632
895.891	20712
896.012	20746
896.134	20781
896.255	20651
896.376	20621
896.498	20682
896.619	20705
896.74	20804
896.861	20636
896.982	20952
897.103	21211
897.224	21017
897.345	20971
897.466	20792
897.587	20914
897.708	21058
897.828	20811
897.949	20811
898.07	20708
898.19	20800
898.311	20948
898.431	20769
898.552	20815
898.672	21043
898.792	20929
898.913	20880
899.033	20769
899.153	20689
899.273	20602
899.393	20678
899.513	20693
899.633	20670
899.753	20777
899.873	20667
899.993	20598
900.113	20705
900.232	20663
900.352	20507
900.472	20522
900.591	20328
900.711	20328
900.83	20412
900.95	20549
901.069	20549
901.189	20324
901.308	20100
901.427	20027
901.546	19967
901.665	20069
901.784	20031
901.904	19909
902.023	19788
902.141	19616
902.26	19529
902.379	19559
902.498	19563
902.617	19457
902.735	19445
902.854	19400
902.973	19388
903.091	19114
903.21	19099
903.328	19152
903.446	19069
903.565	19129
903.683	18913
903.801	18829
903.919	18894
904.038	18943
904.156	18719
904.274	18779
904.392	18745
904.51	18772
904.627	18658
904.745	18734
904.863	18768
904.981	18566
905.098	18414
905.216	18456
905.334	18483
905.451	18361
905.569	18418
905.686	18551
905.803	18403
905.921	18228
906.038	18194
906.155	18247
906.272	18019
906.389	18152
906.506	17954
906.623	17935
906.74	17882
906.857	17885
906.974	17878
907.091	18041
907.208	18060
907.324	17809
907.441	17821
907.557	17695
907.674	17638
907.79	17611
907.907	17619
908.023	17596
908.139	17657
908.256	17547
908.372	17551
908.488	17436
908.604	17414
908.72	17277
908.836	17322
908.952	17307
909.068	17414
909.184	17471
909.3	17345
909.415	17356
909.531	17360
909.647	17174
909.762	17075
909.878	16961
909.993	17090
910.108	16892
910.224	16930
910.339	17014
910.454	16877
910.57	16908
910.685	16706
910.8	16953
910.915	16934
911.03	16911
911.145	16675
911.259	16592
911.374	16599
911.489	16596
911.604	16531
911.718	16265
911.833	16424
911.947	16409
912.062	16169
912.176	16379
912.291	16375
912.405	16398
912.519	16577
912.633	16519
912.748	16394
912.862	16287
912.976	16185
913.09	16192
913.204	16192
913.318	16147
913.431	16276
913.545	16272
913.659	16295
913.772	16211
913.886	15979
914	16055
914.113	16124
914.226	16093
914.34	15922
914.453	15873
914.566	15949
914.68	15873
914.793	15850
914.906	15694
915.019	15534
915.132	15500
915.245	15511
915.358	15663
915.47	15656
915.583	15572
915.696	15595
915.809	15641
915.921	15717
916.034	15519
916.146	15420
916.259	15435
916.371	15454
916.483	15530
916.595	15450
916.708	15386
916.82	15344
916.932	15363
917.044	15310
917.156	15287
917.268	15245
917.38	15203
917.491	15241
917.603	15249
917.715	15123
917.826	15291
917.938	15135
918.049	14998
918.161	15104
918.272	15359
918.384	15249
918.495	15119
918.606	14998
918.717	14838
918.828	14998
918.939	14883
919.05	14921
919.161	14921
919.272	14785
919.383	14804
919.494	14963
919.604	15097
919.715	14868
919.826	14861
919.936	14933
920.047	14921
920.157	14941
920.267	15051
920.378	15036
920.488	14819
920.598	14975
920.708	15218
920.818	14967
920.928	15066
921.038	15119
921.148	15131
921.258	14849
921.368	14834
921.477	14568
921.587	14629
921.697	14492
921.806	14670
921.916	14492
922.025	14237
922.134	14355
922.244	14225
922.353	14244
922.462	14161
922.571	14107
922.68	13967
922.789	13807
922.898	13928
923.007	13944
923.116	13909
923.224	13811
923.333	13830
923.442	13830
923.55	13738
923.659	13833
923.767	13841
923.876	13769
923.984	13727
924.092	13613
924.201	13658
924.309	13776
924.417	13582
924.525	13578
924.633	13639
924.741	14564
924.849	13327
924.956	13666
925.064	13324
925.172	13339
925.279	13346
925.387	13350
925.494	13441
925.602	13521
925.709	13373
925.816	13198
925.924	13354
926.031	13407
926.138	13293
926.245	13419
926.352	13236
926.459	13251
926.566	13304
926.673	13213
926.779	13072
926.886	13110
926.993	13019
927.099	12977
927.206	12928
927.312	12875
927.419	12977
927.525	13015
927.631	12886
927.737	12787
927.843	12753
927.95	12677
928.056	12673
928.162	12753
928.267	12760
928.373	13457
928.479	12798
928.585	12521
928.69	12669
928.796	12757
928.901	12585
929.007	12410
929.112	12551
929.218	12593
929.323	12445
929.428	12486
929.533	12544
929.638	12361
929.743	12437
929.848	12448
929.953	12330
930.058	12247
930.163	12186
930.267	12133
930.372	12311
930.477	12098
930.581	12308
930.685	12167
930.79	12022
930.894	12060
930.998	12083
931.103	12163
931.207	11741
931.311	11726
931.415	11558
931.519	11455
931.623	11353
