Data from test_V78500241_551.txt Node
Date: Fri Mar 25 15:45:37 CST 2022
User: usil
Spectrometer: V785-0024
Trigger mode: 0
Integration Time (sec): 4.000000E-1
Scans to average: 1
Nonlinearity correction enabled: false
Boxcar width: 0
Storing dark spectrum: false
XAxis mode: Wavelengths
Number of Pixels in Spectrum: 1024
>>>>>Begin Spectral Data<<<<<
801.071	27682
801.214	27717
801.356	27412
801.499	27439
801.641	27237
801.783	27264
801.926	27264
802.068	27112
802.211	27154
802.353	27024
802.496	26979
802.638	26853
802.78	26857
802.923	26800
803.065	26853
803.208	26823
803.35	26845
803.492	27032
803.635	27036
803.777	26792
803.919	27104
804.061	27294
804.204	27036
804.346	26861
804.488	26948
804.63	26910
804.773	26918
804.915	27051
805.057	27226
805.199	26960
805.341	27005
805.483	27207
805.626	27180
805.768	27043
805.91	27138
806.052	27256
806.194	27093
806.336	27332
806.478	27184
806.62	27226
806.762	27370
806.904	27469
807.046	27644
807.188	27705
807.33	27504
807.472	27622
807.614	27469
807.756	27534
807.898	27397
808.04	27317
808.182	27416
808.324	27526
808.465	27424
808.607	27545
808.749	27724
808.891	27918
809.033	27846
809.174	27888
809.316	27797
809.458	27793
809.6	27732
809.741	28059
809.883	27819
810.025	28128
810.166	28040
810.308	28032
810.45	27930
810.591	27888
810.733	27789
810.875	27774
811.016	27732
811.158	27694
811.299	27945
811.441	27865
811.582	27907
811.724	27808
811.865	27797
812.007	27736
812.148	27675
812.29	27838
812.431	28097
812.573	28268
812.714	28082
812.855	28268
812.997	28401
813.138	28481
813.279	28382
813.421	28379
813.562	28249
813.703	28090
813.845	28120
813.986	27755
814.127	27591
814.268	27553
814.41	27507
814.551	27344
814.692	27523
814.833	27336
814.974	27549
815.115	27481
815.256	27279
815.397	27340
815.539	27370
815.68	27249
815.821	27211
815.962	27230
816.103	27252
816.244	27123
816.385	27142
816.526	27001
816.666	26861
816.807	26739
816.948	26823
817.089	26853
817.23	26724
817.371	26899
817.512	26701
817.653	26826
817.793	26663
817.934	26716
818.075	26811
818.216	26754
818.356	26769
818.497	26682
818.638	26275
818.778	26537
818.919	26473
819.06	26537
819.2	26518
819.341	26765
819.481	26667
819.622	26929
819.762	27142
819.903	26933
820.043	26902
820.184	26804
820.324	26819
820.465	26845
820.605	26853
820.746	26971
820.886	26609
821.026	26785
821.167	26887
821.307	26895
821.447	26708
821.588	26724
821.728	26511
821.868	26438
822.008	26233
822.149	26218
822.289	26278
822.429	25982
822.569	26031
822.709	25860
822.849	25594
822.99	25772
823.13	25670
823.27	25651
823.41	25529
823.55	25540
823.69	25559
823.83	25533
823.97	25403
824.11	25293
824.25	25312
824.389	25304
824.529	25518
824.669	25510
824.809	25586
824.949	25495
825.089	25537
825.228	25327
825.368	25221
825.508	25217
825.648	25301
825.787	25278
825.927	25304
826.067	25118
826.206	25225
826.346	25171
826.485	25308
826.625	25137
826.765	25354
826.904	25145
827.044	24821
827.183	24992
827.323	24802
827.462	24935
827.601	24863
827.741	24757
827.88	25012
828.02	24814
828.159	24890
828.298	24970
828.437	24970
828.577	24738
828.716	25038
828.855	24913
828.994	24669
829.134	24642
829.273	24665
829.412	24544
829.551	24566
829.69	24631
829.829	24703
829.968	24650
830.107	24703
830.246	24498
830.385	24471
830.524	24441
830.663	24429
830.802	24399
830.941	24334
831.08	24178
831.219	24232
831.357	24254
831.496	24517
831.635	24300
831.774	24194
831.913	24072
832.051	23973
832.19	23882
832.329	24087
832.467	23786
832.606	23824
832.744	23828
832.883	23965
833.022	23863
833.16	24079
833.299	23859
833.437	23958
833.576	24068
833.714	23973
833.852	23988
833.991	23961
834.129	24064
834.267	23885
834.406	23969
834.544	23946
834.682	23977
834.821	23988
834.959	24083
835.097	23935
835.235	23923
835.373	24057
835.511	23882
835.65	23695
835.788	23798
835.926	23767
836.064	23516
836.202	23687
836.34	23832
836.478	23923
836.615	23764
836.753	23870
836.891	23878
837.029	23893
837.167	23802
837.305	23630
837.443	23703
837.58	23482
837.718	23649
837.856	23581
837.993	23543
838.131	23474
838.269	23467
838.406	23478
838.544	23402
838.681	23318
838.819	23353
838.956	23037
839.094	23014
839.231	22995
839.369	23216
839.506	23505
839.643	23353
839.781	23204
839.918	22919
840.055	23006
840.193	23113
840.33	23052
840.467	22980
840.604	23018
840.742	23364
840.879	22877
841.016	23037
841.153	22995
841.29	23231
841.427	23003
841.564	22991
841.701	22984
841.838	22904
841.975	22873
842.112	22961
842.249	23025
842.385	22790
842.522	22900
842.659	22866
842.796	22854
842.933	22809
843.069	22664
843.206	22668
843.343	22908
843.479	22782
843.616	22706
843.752	22573
843.889	22516
844.025	22649
844.162	22565
844.298	22596
844.435	22599
844.571	22535
844.708	22618
844.844	22675
844.98	22710
845.117	22592
845.253	22382
845.389	22379
845.525	22436
845.661	22478
845.798	22337
845.934	22303
846.07	22276
846.206	22238
846.342	22535
846.478	22272
846.614	22032
846.75	22002
846.886	22063
847.022	22090
847.158	22109
847.294	22036
847.429	22131
847.565	21937
847.701	22268
847.837	21755
847.972	21720
848.108	21827
848.244	21880
848.379	21682
848.515	21599
848.65	21641
848.786	21603
848.921	21481
849.057	21644
849.192	21663
849.328	21656
849.463	21641
849.598	21538
849.734	21618
849.869	21553
850.004	21317
850.14	21424
850.275	21321
850.41	21287
850.545	21370
850.68	21321
850.815	21454
850.95	21325
851.085	21553
851.22	21576
851.355	21275
851.49	21435
851.625	21272
851.76	21222
851.895	21287
852.03	21287
852.165	21370
852.299	21291
852.434	21378
852.569	21424
852.703	21332
852.838	21458
852.973	21526
853.107	21336
853.242	21252
853.376	21283
853.511	21074
853.645	21154
853.78	21294
853.914	21161
854.048	21272
854.183	21294
854.317	21176
854.451	21359
854.585	21157
854.72	21150
854.854	21298
854.988	21226
855.122	21226
855.256	21123
855.39	21123
855.524	21260
855.658	21154
855.792	21226
855.926	21180
856.06	21306
856.194	21184
856.327	21157
856.461	21195
856.595	21142
856.729	21150
856.862	21321
856.996	21176
857.13	21165
857.263	21329
857.397	21291
857.53	21077
857.664	21161
857.797	21180
857.931	21245
858.064	21233
858.197	21370
858.331	21222
858.464	21123
858.597	20979
858.731	21131
858.864	21256
858.997	21108
859.13	21233
859.263	21138
859.396	21256
859.529	21119
859.662	21138
859.795	21272
859.928	21222
860.061	21420
860.194	21260
860.327	21241
860.46	21108
860.592	21317
860.725	21192
860.858	21279
860.99	21249
861.123	21085
861.256	21100
861.388	21154
861.521	21781
861.653	20918
861.786	21051
861.918	20937
862.05	21055
862.183	21135
862.315	21036
862.447	21294
862.58	21112
862.712	20777
862.844	20857
862.976	21051
863.108	20990
863.24	21386
863.372	20720
863.504	20933
863.636	20899
863.768	20906
863.9	20887
864.032	20876
864.164	20906
864.296	20982
864.428	20944
864.559	20906
864.691	20902
864.823	20906
864.954	20971
865.086	20712
865.217	20758
865.349	20781
865.48	20800
865.612	20842
865.743	20979
865.875	20838
866.006	20670
866.137	20724
866.269	20804
866.4	20769
866.531	20785
866.662	20788
866.793	20716
866.924	20701
867.055	20845
867.186	20727
867.317	20686
867.448	20590
867.579	20727
867.71	20651
867.841	20625
867.972	20804
868.103	20777
868.233	20609
868.364	20735
868.495	20769
868.625	20990
868.756	21199
868.886	20891
869.017	20990
869.147	21135
869.278	21089
869.408	21051
869.539	21001
869.669	21116
869.799	21024
869.929	20990
870.06	21013
870.19	21252
870.32	21355
870.45	21363
870.58	21382
870.71	21450
870.84	21428
870.97	21443
871.1	21329
871.23	21511
871.36	21408
871.489	21557
871.619	21568
871.749	21549
871.879	21587
872.008	21660
872.138	21610
872.267	21568
872.397	21424
872.526	21424
872.656	21298
872.785	21420
872.915	21526
873.044	21637
873.173	21603
873.303	21656
873.432	21637
873.561	21709
873.69	21507
873.819	21698
873.948	21656
874.077	21671
874.206	21485
874.335	21572
874.464	21778
874.593	21838
874.722	21831
874.851	21762
874.979	21854
875.108	21747
875.237	21770
875.365	21778
875.494	21785
875.623	21774
875.751	21743
875.88	21785
876.008	21903
876.136	22051
876.265	22223
876.393	22310
876.521	22291
876.65	22188
876.778	22318
876.906	22230
877.034	22112
877.162	22249
877.29	22185
877.418	22177
877.546	22154
877.674	22147
877.802	22067
877.93	22105
878.058	22173
878.185	22109
878.313	22143
878.441	22211
878.568	21842
878.696	21998
878.824	22219
878.951	22242
879.079	22306
879.206	22390
879.333	22322
879.461	22207
879.588	22192
879.715	22287
879.842	22432
879.97	22329
880.097	22029
880.224	22010
880.351	22059
880.478	22093
880.605	21941
880.732	22044
880.859	22215
880.986	21968
881.112	21972
881.239	21831
881.366	21686
881.493	21530
881.619	21690
881.746	21580
881.872	21648
881.999	21462
882.125	21485
882.252	21603
882.378	21523
882.505	21682
882.631	21378
882.757	21462
882.883	21374
883.01	21275
883.136	21249
883.262	21180
883.388	21123
883.514	21256
883.64	21222
883.766	21165
883.892	21047
884.018	21017
884.143	21176
884.269	21226
884.395	21100
884.52	20948
884.646	20944
884.772	20849
884.897	20826
885.023	20891
885.148	21066
885.274	21074
885.399	21032
885.524	20902
885.65	20887
885.775	20910
885.9	20842
886.025	20941
886.15	20979
886.275	20788
886.4	20819
886.525	20792
886.65	20876
886.775	20876
886.9	21116
887.025	21070
887.149	20834
887.274	20617
887.399	20663
887.523	20667
887.648	20735
887.773	20560
887.897	20842
888.021	20701
888.146	20587
888.27	20777
888.395	20811
888.519	20689
888.643	20750
888.767	20754
888.891	20507
889.015	20514
889.139	20617
889.263	20511
889.387	20552
889.511	20674
889.635	20625
889.759	20450
889.883	20362
890.006	20545
890.13	20514
890.254	20552
890.377	20408
890.501	20199
890.624	20225
890.748	20214
890.871	20157
890.995	20107
891.118	19993
891.241	20081
891.364	20111
891.488	20142
891.611	19974
891.734	20107
891.857	20062
891.98	20050
892.103	20134
892.226	20065
892.349	20001
892.471	19883
892.594	19940
892.717	20050
892.839	19932
892.962	19940
893.085	20054
893.207	19871
893.33	19860
893.452	19864
893.575	19989
893.697	19917
893.819	20062
893.941	20058
894.064	20115
894.186	19852
894.308	19807
894.43	20024
894.552	20115
894.674	19989
894.796	19894
894.918	19963
895.04	19940
895.161	20050
895.283	19970
895.405	19890
895.526	19951
895.648	19974
895.769	19986
895.891	19959
896.012	19982
896.134	20069
896.255	19898
896.376	19947
896.498	19936
896.619	19936
896.74	20016
896.861	20024
896.982	20233
897.103	20594
897.224	20206
897.345	20225
897.466	20153
897.587	20271
897.708	20256
897.828	20103
897.949	20221
898.07	20073
898.19	20176
898.311	20218
898.431	20100
898.552	20107
898.672	20305
898.792	20202
898.913	20176
899.033	20065
899.153	19974
899.273	19909
899.393	19852
899.513	20084
899.633	19951
899.753	19997
899.873	19951
899.993	19940
900.113	19780
900.232	19856
900.352	19868
900.472	19898
900.591	19655
900.711	19750
900.83	19742
900.95	19723
901.069	19780
901.189	19590
901.308	19396
901.427	19339
901.546	19346
901.665	19327
901.784	19285
901.904	19156
902.023	19046
902.141	18875
902.26	18928
902.379	18932
902.498	18806
902.617	18844
902.735	18821
902.854	18837
902.973	18722
903.091	18525
903.21	18536
903.328	18593
903.446	18388
903.565	18289
903.683	18353
903.801	18247
903.919	18251
904.038	18209
904.156	17958
904.274	18220
904.392	18068
904.51	18098
904.627	17958
904.745	17965
904.863	18060
904.981	17813
905.098	17783
905.216	17786
905.334	17798
905.451	17809
905.569	17653
905.686	17745
905.803	17737
905.921	17520
906.038	17680
906.155	17562
906.272	17433
906.389	17307
906.506	17368
906.623	17273
906.74	17162
906.857	17166
906.974	17193
907.091	17387
907.208	17334
907.324	17322
907.441	17128
907.557	17083
907.674	16965
907.79	16930
907.907	17018
908.023	17067
908.139	16908
908.256	16930
908.372	16885
908.488	16953
908.604	16786
908.72	16691
908.836	16740
908.952	16675
909.068	16736
909.184	16839
909.3	16664
909.415	16717
909.531	16653
909.647	16634
909.762	16280
909.878	16310
909.993	16485
910.108	16466
910.224	16348
910.339	16322
910.454	16287
910.57	16265
910.685	16097
910.8	16424
910.915	16386
911.03	16318
911.145	16036
911.259	16002
911.374	16017
911.489	15915
911.604	15869
911.718	15827
911.833	15770
911.947	15625
912.062	15698
912.176	15808
912.291	15774
912.405	15804
912.519	15983
912.633	16017
912.748	15846
912.862	15778
912.976	15625
913.09	15428
913.204	15523
913.318	15519
913.431	15682
913.545	15652
913.659	15751
913.772	15485
913.886	15450
914	15458
914.113	15443
914.226	15523
914.34	15424
914.453	15241
914.566	15386
914.68	15325
914.793	15264
914.906	15093
915.019	15055
915.132	14952
915.245	15043
915.358	14971
915.47	15070
915.583	14963
915.696	14986
915.809	15157
915.921	15123
916.034	14933
916.146	14845
916.259	14918
916.371	14952
916.483	14895
916.595	14880
916.708	14883
916.82	14861
916.932	14804
917.044	14693
917.156	14750
917.268	14678
917.38	14708
917.491	14568
917.603	14629
917.715	14727
917.826	14769
917.938	14564
918.049	14522
918.161	14552
918.272	14765
918.384	14724
918.495	14655
918.606	14427
918.717	14370
918.828	14476
918.939	14423
919.05	14336
919.161	14465
919.272	14221
919.383	14343
919.494	14507
919.604	14739
919.715	14469
919.826	14317
919.936	14393
920.047	14488
920.157	14415
920.267	14640
920.378	14579
920.488	14396
920.598	14606
920.708	14708
920.818	14621
920.928	14522
921.038	14720
921.148	14712
921.258	14355
921.368	14298
921.477	14301
921.587	14202
921.697	14024
921.806	14237
921.916	14035
922.025	13856
922.134	13856
922.244	13742
922.353	13875
922.462	13658
922.571	13582
922.68	13586
922.789	13457
922.898	13460
923.007	13495
923.116	13483
923.224	13358
923.333	13468
923.442	13255
923.55	13221
923.659	13415
923.767	13335
923.876	13266
923.984	13244
924.092	13107
924.201	13213
924.309	13270
924.417	13187
924.525	13156
924.633	13171
924.741	13902
924.849	12954
924.956	13031
925.064	12897
925.172	12802
925.279	12867
925.387	12882
925.494	12837
925.602	13053
925.709	12958
925.816	12753
925.924	12726
926.031	12916
926.138	12802
926.245	12886
926.352	12753
926.459	12878
926.566	12871
926.673	12806
926.779	12627
926.886	12604
926.993	12445
927.099	12448
927.206	12376
927.312	12311
927.419	12483
927.525	12490
927.631	12445
927.737	12342
927.843	12247
927.95	12243
928.056	12205
928.162	12270
928.267	12285
928.373	12897
928.479	12323
928.585	12091
928.69	12224
928.796	12232
928.901	12041
929.007	11969
929.112	12163
929.218	12053
929.323	11980
929.428	11996
929.533	12140
929.638	11977
929.743	11980
929.848	11958
929.953	11992
930.058	11855
930.163	11676
930.267	11756
930.372	11840
930.477	11672
930.581	11893
930.685	11726
930.79	11558
930.894	11661
930.998	11520
931.103	11741
931.207	11398
931.311	11250
931.415	11098
931.519	10930
931.623	10889
