Data from test_V78500241_1789.txt Node
Date: Fri Mar 25 15:54:11 CST 2022
User: usil
Spectrometer: V785-0024
Trigger mode: 0
Integration Time (sec): 4.000000E-1
Scans to average: 1
Nonlinearity correction enabled: false
Boxcar width: 0
Storing dark spectrum: false
XAxis mode: Wavelengths
Number of Pixels in Spectrum: 1024
>>>>>Begin Spectral Data<<<<<
801.071	28451
801.214	28246
801.356	28101
801.499	27838
801.641	27960
801.783	27873
801.926	27888
802.068	27899
802.211	27827
802.353	27842
802.496	27519
802.638	27420
802.78	27542
802.923	27507
803.065	27329
803.208	27477
803.35	27504
803.492	27804
803.635	27747
803.777	27652
803.919	27736
804.061	27991
804.204	27876
804.346	27724
804.488	27717
804.63	27850
804.773	27663
804.915	27816
805.057	28036
805.199	27785
805.341	27907
805.483	27846
805.626	27876
805.768	27789
805.91	27922
806.052	28036
806.194	27835
806.336	28150
806.478	27972
806.62	27846
806.762	28044
806.904	28120
807.046	28447
807.188	28413
807.33	28447
807.472	28489
807.614	28379
807.756	28489
807.898	28211
808.04	28162
808.182	28173
808.324	28211
808.465	28215
808.607	28519
808.749	28637
808.891	28649
809.033	28752
809.174	28668
809.316	28592
809.458	28622
809.6	28432
809.741	28637
809.883	28782
810.025	28854
810.166	28934
810.308	28881
810.45	28881
810.591	28725
810.733	28767
810.875	28440
811.016	28390
811.158	28428
811.299	28645
811.441	28778
811.582	28786
811.724	28702
811.865	28569
812.007	28592
812.148	28588
812.29	28634
812.431	28801
812.573	28900
812.714	28896
812.855	29041
812.997	29086
813.138	29490
813.279	29109
813.421	29216
813.562	29022
813.703	29067
813.845	28771
813.986	28493
814.127	28474
814.268	28318
814.41	28432
814.551	28310
814.692	28284
814.833	28299
814.974	28188
815.115	28363
815.256	28139
815.397	28242
815.539	28200
815.68	28013
815.821	28147
815.962	27983
816.103	28147
816.244	27949
816.385	27934
816.526	27797
816.666	27644
816.807	27462
816.948	27599
817.089	27724
817.23	27728
817.371	27679
817.512	27629
817.653	27648
817.793	27523
817.934	27488
818.075	27591
818.216	27641
818.356	27572
818.497	27515
818.638	27332
818.778	27298
818.919	27329
819.06	27424
819.2	27496
819.341	27561
819.481	27705
819.622	27755
819.762	27994
819.903	27922
820.043	27648
820.184	27751
820.324	27583
820.465	27686
820.605	27724
820.746	27648
820.886	27530
821.026	27637
821.167	27751
821.307	27759
821.447	27386
821.588	27511
821.728	27302
821.868	27291
822.008	27028
822.149	27055
822.289	27112
822.429	26693
822.569	26701
822.709	26807
822.849	26552
822.99	26598
823.13	26442
823.27	26438
823.41	26404
823.55	26244
823.69	26404
823.83	26381
823.97	26343
824.11	26218
824.25	26275
824.389	26248
824.529	26286
824.669	26256
824.809	26298
824.949	26252
825.089	26275
825.228	26419
825.368	26111
825.508	26168
825.648	26077
825.787	25986
825.927	26065
826.067	26142
826.206	26039
826.346	26035
826.485	26096
826.625	26008
826.765	26172
826.904	26012
827.044	25883
827.183	25837
827.323	25719
827.462	25944
827.601	25822
827.741	25689
827.88	25849
828.02	25681
828.159	25742
828.298	25784
828.437	25616
828.577	25734
828.716	25879
828.855	25510
828.994	25552
829.134	25632
829.273	25491
829.412	25571
829.551	25464
829.69	25403
829.829	25567
829.968	25586
830.107	25628
830.246	25468
830.385	25506
830.524	25274
830.663	25263
830.802	25141
830.941	25156
831.08	25080
831.219	25156
831.357	25213
831.496	25225
831.635	24977
831.774	24989
831.913	24894
832.051	24848
832.19	24989
832.329	24924
832.467	24768
832.606	24688
832.744	24627
832.883	24772
833.022	24661
833.16	24745
833.299	24776
833.437	24673
833.576	24878
833.714	24920
833.852	24909
833.991	24875
834.129	24817
834.267	24833
834.406	24829
834.544	24821
834.682	24795
834.821	24772
834.959	24928
835.097	24726
835.235	24916
835.373	24802
835.511	24741
835.65	24700
835.788	24608
835.926	24490
836.064	24407
836.202	24418
836.34	24635
836.478	24882
836.615	24703
836.753	24764
836.891	24631
837.029	24658
837.167	24536
837.305	24433
837.443	24517
837.58	24445
837.718	24441
837.856	24525
837.993	24342
838.131	24418
838.269	24350
838.406	24342
838.544	24247
838.681	24190
838.819	24110
838.956	23935
839.094	23908
839.231	24038
839.369	24083
839.506	24304
839.643	24174
839.781	23950
839.918	23939
840.055	23973
840.193	23840
840.33	23920
840.467	23920
840.604	23923
840.742	24068
840.879	23691
841.016	23832
841.153	23767
841.29	23832
841.427	23764
841.564	23923
841.701	23904
841.838	23775
841.975	23611
842.112	23752
842.249	23733
842.385	23497
842.522	23794
842.659	23611
842.796	23512
842.933	23554
843.069	23623
843.206	23463
843.343	23592
843.479	23581
843.616	23585
843.752	23501
843.889	23474
844.025	23539
844.162	23277
844.298	23398
844.435	23474
844.571	23322
844.708	23490
844.844	23478
844.98	23573
845.117	23539
845.253	23360
845.389	23277
845.525	23322
845.661	23235
845.798	23083
845.934	23261
846.07	23079
846.206	23216
846.342	23083
846.478	23071
846.614	22782
846.75	22786
846.886	22797
847.022	22957
847.158	22896
847.294	22755
847.429	22911
847.565	22721
847.701	23064
847.837	22508
847.972	22519
848.108	22702
848.244	22645
848.379	22550
848.515	22466
848.65	22455
848.786	22314
848.921	22481
849.057	22481
849.192	22421
849.328	22497
849.463	22474
849.598	22306
849.734	22333
849.869	22303
850.004	22040
850.14	22192
850.275	22192
850.41	22021
850.545	22082
850.68	22249
850.815	22188
850.95	22150
851.085	22352
851.22	22352
851.355	22242
851.49	22135
851.625	22078
851.76	22162
851.895	21972
852.03	22120
852.165	22219
852.299	22325
852.434	22322
852.569	22112
852.703	22147
852.838	22200
852.973	22329
853.107	22226
853.242	22139
853.376	21934
853.511	21998
853.645	21876
853.78	22055
853.914	22025
854.048	21975
854.183	21888
854.317	21960
854.451	22192
854.585	21979
854.72	21945
854.854	22021
854.988	21926
855.122	21911
855.256	21838
855.39	21941
855.524	22059
855.658	22002
855.792	22078
855.926	21956
856.06	22063
856.194	22093
856.327	22082
856.461	21941
856.595	21945
856.729	22010
856.862	22090
856.996	22074
857.13	22101
857.263	22021
857.397	22223
857.53	22082
857.664	22032
857.797	21968
857.931	22070
858.064	21941
858.197	22177
858.331	21983
858.464	21975
858.597	21800
858.731	21945
858.864	21835
858.997	21934
859.13	21911
859.263	22074
859.396	22109
859.529	21998
859.662	21926
859.795	21907
859.928	22101
860.061	22101
860.194	22177
860.327	21964
860.46	21994
860.592	22051
860.725	22173
860.858	22097
860.99	21941
861.123	22048
861.256	21892
861.388	22029
861.521	22557
861.653	21937
861.786	21884
861.918	21899
862.05	21838
862.183	21934
862.315	21964
862.447	22002
862.58	21873
862.712	21720
862.844	21720
862.976	21793
863.108	21804
863.24	22272
863.372	21713
863.504	21591
863.636	21701
863.768	21686
863.9	21785
864.032	21542
864.164	21610
864.296	21682
864.428	21690
864.559	21675
864.691	21747
864.823	21698
864.954	21648
865.086	21663
865.217	21580
865.349	21553
865.48	21622
865.612	21599
865.743	21701
865.875	21644
866.006	21511
866.137	21644
866.269	21618
866.4	21462
866.531	21511
866.662	21523
866.793	21507
866.924	21462
867.055	21686
867.186	21545
867.317	21469
867.448	21447
867.579	21317
867.71	21447
867.841	21424
867.972	21549
868.103	21386
868.233	21515
868.364	21504
868.495	21622
868.625	21709
868.756	21842
868.886	21747
869.017	21755
869.147	21869
869.278	21800
869.408	21762
869.539	21842
869.669	21926
869.799	21857
869.929	21892
870.06	21960
870.19	22032
870.32	22128
870.45	22090
870.58	22120
870.71	22162
870.84	22303
870.97	22116
871.1	22139
871.23	22314
871.36	22440
871.489	22344
871.619	22375
871.749	22405
871.879	22455
872.008	22428
872.138	22356
872.267	22318
872.397	22333
872.526	22188
872.656	22181
872.785	22196
872.915	22382
873.044	22493
873.173	22386
873.303	22599
873.432	22424
873.561	22512
873.69	22504
873.819	22421
873.948	22531
874.077	22348
874.206	22268
874.335	22371
874.464	22497
874.593	22527
874.722	22523
874.851	22626
874.979	22611
875.108	22698
875.237	22580
875.365	22508
875.494	22557
875.623	22660
875.751	22584
875.88	22637
876.008	22752
876.136	22797
876.265	23162
876.393	23052
876.521	22980
876.65	23086
876.778	22980
876.906	22915
877.034	23003
877.162	22984
877.29	22961
877.418	22972
877.546	22930
877.674	22850
877.802	22908
877.93	22942
878.058	22930
878.185	22881
878.313	22972
878.441	22900
878.568	22881
878.696	22938
878.824	22949
878.951	23075
879.079	23140
879.206	23170
879.333	23041
879.461	22923
879.588	23067
879.715	23079
879.842	23258
879.97	23094
880.097	22786
880.224	22698
880.351	22771
880.478	22858
880.605	22778
880.732	22854
880.859	23060
880.986	22748
881.112	22782
881.239	22691
881.366	22554
881.493	22516
881.619	22428
881.746	22428
881.872	22318
881.999	22360
882.125	22230
882.252	22451
882.378	22329
882.505	22318
882.631	22177
882.757	22055
882.883	22032
883.01	22090
883.136	21926
883.262	21850
883.388	21850
883.514	22006
883.64	22078
883.766	21899
883.892	21823
884.018	21690
884.143	22044
884.269	21994
884.395	21759
884.52	21534
884.646	21679
884.772	21595
884.897	21568
885.023	21667
885.148	21823
885.274	21804
885.399	21622
885.524	21656
885.65	21663
885.775	21656
885.9	21675
886.025	21778
886.15	21789
886.275	21599
886.4	21492
886.525	21652
886.65	21496
886.775	21587
886.9	21732
887.025	21850
887.149	21587
887.274	21553
887.399	21374
887.523	21344
887.648	21367
887.773	21329
887.897	21435
888.021	21454
888.146	21382
888.27	21488
888.395	21549
888.519	21545
888.643	21424
888.767	21450
888.891	21370
889.015	21214
889.139	21310
889.263	21161
889.387	21310
889.511	21397
889.635	21355
889.759	21211
889.883	21192
890.006	21169
890.13	21325
890.254	21180
890.377	21096
890.501	20982
890.624	21039
890.748	20982
890.871	20864
890.995	20838
891.118	20667
891.241	20883
891.364	20785
891.488	20921
891.611	20777
891.734	20781
891.857	20823
891.98	20788
892.103	20845
892.226	20796
892.349	20765
892.471	20594
892.594	20697
892.717	20792
892.839	20686
892.962	20716
893.085	20663
893.207	20651
893.33	20579
893.452	20602
893.575	20678
893.697	20412
893.819	20792
893.941	20941
894.064	20777
894.186	20590
894.308	20590
894.43	20644
894.552	20830
894.674	20636
894.796	20434
894.918	20735
895.04	20640
895.161	20583
895.283	20720
895.405	20560
895.526	20689
895.648	20705
895.769	20609
895.891	20621
896.012	20792
896.134	20625
896.255	20568
896.376	20625
896.498	20727
896.619	20716
896.74	20522
896.861	20762
896.982	20921
897.103	20990
897.224	20891
897.345	20925
897.466	20872
897.587	20899
897.708	21005
897.828	20887
897.949	20781
898.07	20727
898.19	20678
898.311	20948
898.431	20883
898.552	20880
898.672	20895
898.792	21005
898.913	20777
899.033	20686
899.153	20670
899.273	20587
899.393	20587
899.513	20594
899.633	20568
899.753	20541
899.873	20549
899.993	20549
900.113	20461
900.232	20507
900.352	20499
900.472	20415
900.591	20408
900.711	20339
900.83	20320
900.95	20454
901.069	20488
901.189	20298
901.308	20027
901.427	19978
901.546	19868
901.665	19978
901.784	20035
901.904	19753
902.023	19738
902.141	19575
902.26	19339
902.379	19556
902.498	19460
902.617	19350
902.735	19525
902.854	19445
902.973	19312
903.091	19095
903.21	19099
903.328	19126
903.446	19042
903.565	18920
903.683	18924
903.801	18798
903.919	18859
904.038	18875
904.156	18787
904.274	18768
904.392	18795
904.51	18700
904.627	18665
904.745	18597
904.863	18646
904.981	18490
905.098	18365
905.216	18308
905.334	18456
905.451	18372
905.569	18353
905.686	18357
905.803	18304
905.921	18159
906.038	18262
906.155	18091
906.272	17973
906.389	18026
906.506	17866
906.623	17874
906.74	17832
906.857	17836
906.974	17805
907.091	17851
907.208	17992
907.324	17901
907.441	17824
907.557	17596
907.674	17653
907.79	17577
907.907	17543
908.023	17687
908.139	17649
908.256	17440
908.372	17383
908.488	17452
908.604	17284
908.72	17299
908.836	17315
908.952	17261
909.068	17391
909.184	17334
909.3	17299
909.415	17322
909.531	17140
909.647	17090
909.762	17006
909.878	16953
909.993	16984
910.108	16987
910.224	17052
910.339	16877
910.454	16786
910.57	16824
910.685	16771
910.8	16965
910.915	16919
911.03	16771
911.145	16656
911.259	16588
911.374	16660
911.489	16493
911.604	16466
911.718	16253
911.833	16424
911.947	16329
912.062	16082
912.176	16291
912.291	16402
912.405	16207
912.519	16474
912.633	16508
912.748	16341
912.862	16367
912.976	16150
913.09	16109
913.204	16135
913.318	16090
913.431	16181
913.545	16226
913.659	16310
913.772	16135
913.886	15922
914	15888
914.113	16124
914.226	16128
914.34	15953
914.453	15778
914.566	15930
914.68	15903
914.793	15720
914.906	15523
915.019	15629
915.132	15454
915.245	15477
915.358	15618
915.47	15469
915.583	15580
915.696	15599
915.809	15606
915.921	15633
916.034	15485
916.146	15397
916.259	15412
916.371	15530
916.483	15545
916.595	15344
916.708	15283
916.82	15336
916.932	15332
917.044	15317
917.156	15249
917.268	15268
917.38	15161
917.491	15142
917.603	15070
917.715	15260
917.826	15237
917.938	15104
918.049	15032
918.161	15051
918.272	15127
918.384	15241
918.495	15062
918.606	14944
918.717	14826
918.828	14906
918.939	15020
919.05	14929
919.161	14990
919.272	14682
919.383	14762
919.494	14933
919.604	15150
919.715	14815
919.826	14830
919.936	14849
920.047	14899
920.157	14887
920.267	15074
920.378	14849
920.488	14834
920.598	14906
920.708	15039
920.818	15005
920.928	14990
921.038	15123
921.148	15138
921.258	14834
921.368	14807
921.477	14568
921.587	14674
921.697	14442
921.806	14549
921.916	14457
922.025	14294
922.134	14206
922.244	14172
922.353	14358
922.462	14218
922.571	13997
922.68	13917
922.789	13890
922.898	13925
923.007	13909
923.116	13928
923.224	13841
923.333	14001
923.442	13723
923.55	13662
923.659	13769
923.767	13795
923.876	13696
923.984	13677
924.092	13586
924.201	13609
924.309	13647
924.417	13548
924.525	13529
924.633	13533
924.741	14434
924.849	13415
924.956	13445
925.064	13304
925.172	13225
925.279	13263
925.387	13259
925.494	13301
925.602	13468
925.709	13308
925.816	13149
925.924	13335
926.031	13384
926.138	13251
926.245	13270
926.352	13107
926.459	13293
926.566	13274
926.673	13156
926.779	13012
926.886	12996
926.993	12886
927.099	12916
927.206	12798
927.312	12776
927.419	12886
927.525	12856
927.631	12829
927.737	12722
927.843	12654
927.95	12532
928.056	12749
928.162	12585
928.267	12658
928.373	13293
928.479	12757
928.585	12471
928.69	12559
928.796	12608
928.901	12452
929.007	12300
929.112	12502
929.218	12448
929.323	12471
929.428	12296
929.533	12433
929.638	12308
929.743	12258
929.848	12232
929.953	12270
930.058	12254
930.163	12053
930.267	12117
930.372	12216
930.477	12003
930.581	12270
930.685	11988
930.79	11920
930.894	11965
930.998	11908
931.103	12060
931.207	11733
931.311	11649
931.415	11516
931.519	11261
931.623	11284
