Data from test_V78500241_2095.txt Node
Date: Fri Mar 25 15:56:18 CST 2022
User: usil
Spectrometer: V785-0024
Trigger mode: 0
Integration Time (sec): 4.000000E-1
Scans to average: 1
Nonlinearity correction enabled: false
Boxcar width: 0
Storing dark spectrum: false
XAxis mode: Wavelengths
Number of Pixels in Spectrum: 1024
>>>>>Begin Spectral Data<<<<<
801.071	28774
801.214	28896
801.356	28592
801.499	28565
801.641	28394
801.783	28394
801.926	28599
802.068	28603
802.211	28436
802.353	28409
802.496	28230
802.638	28162
802.78	28230
802.923	28090
803.065	28105
803.208	27823
803.35	28211
803.492	28303
803.635	28382
803.777	28268
803.919	28485
804.061	28725
804.204	28508
804.346	28356
804.488	28329
804.63	28341
804.773	28322
804.915	28432
805.057	28607
805.199	28295
805.341	28538
805.483	28531
805.626	28523
805.768	28428
805.91	28481
806.052	28584
806.194	28481
806.336	28755
806.478	28702
806.62	28618
806.762	28759
806.904	28923
807.046	29067
807.188	29079
807.33	28991
807.472	29052
807.614	28946
807.756	28908
807.898	28900
808.04	28946
808.182	28759
808.324	28915
808.465	28831
808.607	29086
808.749	29372
808.891	29334
809.033	29486
809.174	29334
809.316	29181
809.458	29128
809.6	29216
809.741	29509
809.883	29334
810.025	29638
810.166	29642
810.308	29497
810.45	29589
810.591	29429
810.733	29242
810.875	29231
811.016	29174
811.158	29151
811.299	29292
811.441	29417
811.582	29349
811.724	29296
811.865	29200
812.007	29258
812.148	29220
812.29	29174
812.431	29368
812.573	29493
812.714	29661
812.855	29737
812.997	29935
813.138	29961
813.279	29904
813.421	29813
813.562	29760
813.703	29600
813.845	29531
813.986	29318
814.127	29071
814.268	28911
814.41	29033
814.551	28904
814.692	29041
814.833	28934
814.974	28972
815.115	28995
815.256	28938
815.397	28835
815.539	28885
815.68	28812
815.821	28717
815.962	28809
816.103	28858
816.244	28679
816.385	28527
816.526	28504
816.666	28424
816.807	28200
816.948	28363
817.089	28318
817.23	28295
817.371	28192
817.512	28272
817.653	28409
817.793	28234
817.934	28329
818.075	28344
818.216	28409
818.356	28226
818.497	28048
818.638	28048
818.778	28013
818.919	28010
819.06	28211
819.2	28246
819.341	28063
819.481	28379
819.622	28382
819.762	28748
819.903	28797
820.043	28451
820.184	28481
820.324	28428
820.465	28546
820.605	28417
820.746	28462
820.886	28192
821.026	28394
821.167	28363
821.307	28394
821.447	28261
821.588	28200
821.728	27960
821.868	28010
822.008	27835
822.149	27732
822.289	27755
822.429	27614
822.569	27454
822.709	27545
822.849	27207
822.99	27439
823.13	27249
823.27	27340
823.41	27104
823.55	26967
823.69	27154
823.83	27150
823.97	27032
824.11	26918
824.25	26731
824.389	26986
824.529	27020
824.669	26902
824.809	27142
824.949	27005
825.089	27051
825.228	27009
825.368	26758
825.508	26667
825.648	26788
825.787	26819
825.927	26929
826.067	26902
826.206	26864
826.346	26948
826.485	26819
826.625	26735
826.765	26887
826.904	26979
827.044	26644
827.183	26609
827.323	26503
827.462	26579
827.601	26503
827.741	26575
827.88	26526
828.02	26404
828.159	26446
828.298	26511
828.437	26549
828.577	26415
828.716	26530
828.855	26503
828.994	26161
829.134	26412
829.273	26275
829.412	26145
829.551	26062
829.69	26225
829.829	26153
829.968	26271
830.107	26267
830.246	26172
830.385	26252
830.524	26065
830.663	25978
830.802	25917
830.941	25696
831.08	25826
831.219	26005
831.357	25894
831.496	25928
831.635	25871
831.774	25818
831.913	25864
832.051	25601
832.19	25632
832.329	25639
832.467	25559
832.606	25365
832.744	25384
832.883	25594
833.022	25449
833.16	25495
833.299	25407
833.437	25514
833.576	25605
833.714	25571
833.852	25616
833.991	25605
834.129	25582
834.267	25681
834.406	25510
834.544	25575
834.682	25499
834.821	25457
834.959	25605
835.097	25495
835.235	25685
835.373	25384
835.511	25483
835.65	25441
835.788	25479
835.926	25194
836.064	25145
836.202	25263
836.34	25384
836.478	25476
836.615	25346
836.753	25289
836.891	25476
837.029	25525
837.167	25377
837.305	25228
837.443	25164
837.58	25225
837.718	25369
837.856	25373
837.993	25152
838.131	25187
838.269	25137
838.406	24947
838.544	25004
838.681	24719
838.819	24867
838.956	24753
839.094	24821
839.231	24658
839.369	24852
839.506	24992
839.643	24992
839.781	24593
839.918	24722
840.055	24654
840.193	24593
840.33	24502
840.467	24642
840.604	24620
840.742	24802
840.879	24479
841.016	24544
841.153	24418
841.29	24692
841.427	24502
841.564	24494
841.701	24460
841.838	24395
841.975	24448
842.112	24502
842.249	24418
842.385	24353
842.522	24471
842.659	24410
842.796	24380
842.933	24342
843.069	24323
843.206	24201
843.343	24384
843.479	24209
843.616	24251
843.752	24072
843.889	24171
844.025	24254
844.162	24087
844.298	24117
844.435	23920
844.571	24079
844.708	24049
844.844	24239
844.98	24197
845.117	24194
845.253	24041
845.389	23927
845.525	23916
845.661	23988
845.798	23722
845.934	23889
846.07	23885
846.206	23870
846.342	23984
846.478	23775
846.614	23657
846.75	23406
846.886	23531
847.022	23604
847.158	23524
847.294	23478
847.429	23627
847.565	23482
847.701	23798
847.837	23250
847.972	23299
848.108	23337
848.244	23345
848.379	23170
848.515	23022
848.65	22984
848.786	23166
848.921	23223
849.057	23155
849.192	23079
849.328	23071
849.463	23094
849.598	23029
849.734	22976
849.869	22976
850.004	22839
850.14	22934
850.275	22892
850.41	22748
850.545	22835
850.68	22881
850.815	22911
850.95	22820
851.085	23132
851.22	22980
851.355	22854
851.49	22885
851.625	22778
851.76	22927
851.895	22839
852.03	22801
852.165	22938
852.299	22850
852.434	22930
852.569	22923
852.703	22831
852.838	22812
852.973	23109
853.107	22908
853.242	22812
853.376	22675
853.511	22611
853.645	22694
853.78	22828
853.914	22748
854.048	22668
854.183	22675
854.317	22816
854.451	22889
854.585	22767
854.72	22767
854.854	22869
854.988	22504
855.122	22615
855.256	22512
855.39	22668
855.524	22759
855.658	22759
855.792	22786
855.926	22630
856.06	22755
856.194	22877
856.327	22831
856.461	22611
856.595	22618
856.729	22588
856.862	22748
856.996	22694
857.13	22915
857.263	22698
857.397	22763
857.53	22645
857.664	22694
857.797	22744
857.931	22839
858.064	22649
858.197	22668
858.331	22740
858.464	22694
858.597	22603
858.731	22675
858.864	22713
858.997	22687
859.13	22717
859.263	22672
859.396	22755
859.529	22694
859.662	22672
859.795	22740
859.928	22774
860.061	22866
860.194	22934
860.327	22698
860.46	22672
860.592	22759
860.725	22908
860.858	22862
860.99	22744
861.123	22767
861.256	22645
861.388	22744
861.521	23604
861.653	22596
861.786	22512
861.918	22653
862.05	22527
862.183	22645
862.315	22717
862.447	22755
862.58	22519
862.712	22390
862.844	22451
862.976	22546
863.108	22489
863.24	22987
863.372	22398
863.504	22394
863.636	22413
863.768	22573
863.9	22455
864.032	22421
864.164	22413
864.296	22531
864.428	22531
864.559	22409
864.691	22455
864.823	22443
864.954	22466
865.086	22470
865.217	22432
865.349	22272
865.48	22310
865.612	22284
865.743	22440
865.875	22325
866.006	22158
866.137	22402
866.269	22219
866.4	22382
866.531	22352
866.662	22154
866.793	22318
866.924	22310
867.055	22322
867.186	22306
867.317	22131
867.448	22150
867.579	22287
867.71	22162
867.841	22120
867.972	22265
868.103	22185
868.233	22348
868.364	22253
868.495	22447
868.625	22523
868.756	22577
868.886	22497
869.017	22557
869.147	22675
869.278	22694
869.408	22504
869.539	22546
869.669	22615
869.799	22432
869.929	22596
870.06	22519
870.19	22873
870.32	22752
870.45	22869
870.58	22774
870.71	22965
870.84	22980
870.97	22854
871.1	22847
871.23	22957
871.36	23064
871.489	22968
871.619	23083
871.749	23071
871.879	23117
872.008	23273
872.138	23098
872.267	23227
872.397	22911
872.526	22892
872.656	23006
872.785	22831
872.915	23025
873.044	23235
873.173	23136
873.303	23121
873.432	23121
873.561	23121
873.69	23174
873.819	23136
873.948	23102
874.077	23098
874.206	23086
874.335	23052
874.464	23200
874.593	23284
874.722	23410
874.851	23372
874.979	23334
875.108	23410
875.237	23155
875.365	23151
875.494	23360
875.623	23391
875.751	23162
875.88	23299
876.008	23318
876.136	23520
876.265	23661
876.393	23855
876.521	23824
876.65	23756
876.778	23676
876.906	23634
877.034	23707
877.162	23577
877.29	23619
877.418	23809
877.546	23619
877.674	23554
877.802	23630
877.93	23646
878.058	23528
878.185	23531
878.313	23566
878.441	23509
878.568	23448
878.696	23436
878.824	23676
878.951	23707
879.079	23798
879.206	23969
879.333	23726
879.461	23672
879.588	23771
879.715	23779
879.842	23851
879.97	23707
880.097	23433
880.224	23395
880.351	23581
880.478	23493
880.605	23467
880.732	23341
880.859	23615
880.986	23528
881.112	23467
881.239	23360
881.366	23143
881.493	23098
881.619	23098
881.746	23193
881.872	22968
881.999	22991
882.125	23033
882.252	23155
882.378	23071
882.505	23143
882.631	22858
882.757	22801
882.883	22809
883.01	22679
883.136	22713
883.262	22618
883.388	22508
883.514	22672
883.64	22672
883.766	22577
883.892	22417
884.018	22561
884.143	22508
884.269	22637
884.395	22402
884.52	22299
884.646	22287
884.772	22253
884.897	22211
885.023	22333
885.148	22303
885.274	22405
885.399	22470
885.524	22314
885.65	22325
885.775	22333
885.9	22367
886.025	22329
886.15	22318
886.275	22409
886.4	22363
886.525	22242
886.65	22421
886.775	22341
886.9	22394
887.025	22474
887.149	22226
887.274	22025
887.399	22070
887.523	22097
887.648	22074
887.773	21994
887.897	22177
888.021	22044
888.146	22006
888.27	22105
888.395	22036
888.519	22063
888.643	22017
888.767	22185
888.891	22006
889.015	21903
889.139	21873
889.263	21876
889.387	22055
889.511	22055
889.635	22002
889.759	21915
889.883	21930
890.006	21899
890.13	21869
890.254	21778
890.377	21804
890.501	21572
890.624	21564
890.748	21751
890.871	21530
890.995	21363
891.118	21294
891.241	21454
891.364	21496
891.488	21492
891.611	21306
891.734	21458
891.857	21473
891.98	21405
892.103	21466
892.226	21302
892.349	21313
892.471	21329
892.594	21317
892.717	21291
892.839	21230
892.962	21294
893.085	21348
893.207	21226
893.33	21233
893.452	21207
893.575	21370
893.697	21367
893.819	21401
893.941	21424
894.064	21389
894.186	21245
894.308	21230
894.43	21408
894.552	21329
894.674	21374
894.796	21195
894.918	21256
895.04	21291
895.161	21287
895.283	21332
895.405	21226
895.526	21359
895.648	21275
895.769	21226
895.891	21283
896.012	21306
896.134	21218
896.255	21245
896.376	21195
896.498	21237
896.619	21211
896.74	21291
896.861	21389
896.982	21530
897.103	21519
897.224	21648
897.345	21473
897.466	21370
897.587	21492
897.708	21576
897.828	21523
897.949	21458
898.07	21203
898.19	21332
898.311	21545
898.431	21386
898.552	21439
898.672	21504
898.792	21435
898.913	21557
899.033	21313
899.153	21264
899.273	21017
899.393	21249
899.513	21272
899.633	21256
899.753	21214
899.873	21077
899.993	21279
900.113	21150
900.232	21131
900.352	21104
900.472	21032
900.591	20929
900.711	21112
900.83	20864
900.95	20994
901.069	20925
901.189	20811
901.308	20598
901.427	20518
901.546	20419
901.665	20438
901.784	20629
901.904	20328
902.023	20278
902.141	20039
902.26	20115
902.379	20039
902.498	20035
902.617	19921
902.735	19997
902.854	19989
902.973	19913
903.091	19696
903.21	19628
903.328	19761
903.446	19613
903.565	19457
903.683	19582
903.801	19388
903.919	19377
904.038	19403
904.156	19228
904.274	19285
904.392	19187
904.51	19194
904.627	19164
904.745	19255
904.863	19415
904.981	19042
905.098	18935
905.216	18928
905.334	18863
905.451	18897
905.569	18920
905.686	18981
905.803	18882
905.921	18741
906.038	18817
906.155	18650
906.272	18536
906.389	18589
906.506	18426
906.623	18407
906.74	18388
906.857	18323
906.974	18258
907.091	18395
907.208	18490
907.324	18479
907.441	18258
907.557	18182
907.674	18083
907.79	18026
907.907	18064
908.023	18087
908.139	18190
908.256	17996
908.372	18026
908.488	18034
908.604	17904
908.72	17767
908.836	17870
908.952	17783
909.068	17828
909.184	17859
909.3	17847
909.415	17832
909.531	17878
909.647	17482
909.762	17478
909.878	17516
909.993	17554
910.108	17524
910.224	17589
910.339	17566
910.454	17364
910.57	17349
910.685	17307
910.8	17509
910.915	17535
911.03	17402
911.145	17132
911.259	17056
911.374	17136
911.489	17018
911.604	16999
911.718	16854
911.833	16805
911.947	16839
912.062	16687
912.176	16896
912.291	16763
912.405	16885
912.519	17018
912.633	16934
912.748	16809
912.862	16839
912.976	16710
913.09	16538
913.204	16569
913.318	16596
913.431	16755
913.545	16645
913.659	16679
913.772	16580
913.886	16428
914	16436
914.113	16508
914.226	16565
914.34	16527
914.453	16295
914.566	16417
914.68	16344
914.793	16337
914.906	16116
915.019	16021
915.132	16025
915.245	16010
915.358	16067
915.47	16032
915.583	15907
915.696	16017
915.809	16158
915.921	16139
916.034	15934
916.146	15953
916.259	15949
916.371	15903
916.483	16116
916.595	15850
916.708	15816
916.82	15949
916.932	15747
917.044	15842
917.156	15770
917.268	15671
917.38	15698
917.491	15618
917.603	15603
917.715	15595
917.826	15698
917.938	15515
918.049	15378
918.161	15576
918.272	15709
918.384	15675
918.495	15671
918.606	15504
918.717	15272
918.828	15424
918.939	15439
919.05	15310
919.161	15291
919.272	15211
919.383	15241
919.494	15378
919.604	15610
919.715	15302
919.826	15211
919.936	15252
920.047	15382
920.157	15264
920.267	15584
920.378	15393
920.488	15340
920.598	15488
920.708	15686
920.818	15405
920.928	15424
921.038	15625
921.148	15447
921.258	15272
921.368	15093
921.477	14971
921.587	14998
921.697	14956
921.806	15013
921.916	14906
922.025	14712
922.134	14693
922.244	14613
922.353	14731
922.462	14579
922.571	14393
922.68	14343
922.789	14431
922.898	14206
923.007	14332
923.116	14355
923.224	14290
923.333	14233
923.442	14164
923.55	14027
923.659	14126
923.767	14218
923.876	13967
923.984	14145
924.092	13989
924.201	14020
924.309	14035
924.417	14050
924.525	13947
924.633	14043
924.741	14853
924.849	13750
924.956	13887
925.064	13708
925.172	13647
925.279	13616
925.387	13662
925.494	13753
925.602	13753
925.709	13738
925.816	13552
925.924	13567
926.031	13624
926.138	13670
926.245	13681
926.352	13559
926.459	13670
926.566	13704
926.673	13506
926.779	13499
926.886	13434
926.993	13236
927.099	13331
927.206	13206
927.312	13099
927.419	13266
927.525	13114
927.631	13255
927.737	13099
927.843	13065
927.95	12958
928.056	13057
928.162	13023
928.267	13103
928.373	13738
928.479	13080
928.585	12875
928.69	13008
928.796	12973
928.901	12875
929.007	12833
929.112	12856
929.218	12875
929.323	12757
929.428	12684
929.533	12909
929.638	12715
929.743	12730
929.848	12719
929.953	12620
930.058	12551
930.163	12418
930.267	12513
930.372	12673
930.477	12429
930.581	12616
930.685	12410
930.79	12357
930.894	12403
930.998	12273
931.103	12448
931.207	12045
931.311	12049
931.415	11965
931.519	11707
931.623	11657
