Data from test_V78500241_2390.txt Node
Date: Fri Mar 25 15:58:21 CST 2022
User: usil
Spectrometer: V785-0024
Trigger mode: 0
Integration Time (sec): 4.000000E-1
Scans to average: 1
Nonlinearity correction enabled: false
Boxcar width: 0
Storing dark spectrum: false
XAxis mode: Wavelengths
Number of Pixels in Spectrum: 1024
>>>>>Begin Spectral Data<<<<<
801.071	28812
801.214	28733
801.356	28394
801.499	28371
801.641	28322
801.783	28226
801.926	28409
802.068	28386
802.211	28207
802.353	28093
802.496	28074
802.638	28017
802.78	27975
802.923	27854
803.065	27835
803.208	28112
803.35	28017
803.492	28215
803.635	28090
803.777	28150
803.919	28181
804.061	28512
804.204	28234
804.346	28310
804.488	28006
804.63	28257
804.773	28211
804.915	28272
805.057	28394
805.199	28196
805.341	28257
805.483	28489
805.626	28367
805.768	28322
805.91	28352
806.052	28538
806.194	28379
806.336	28561
806.478	28500
806.62	28500
806.762	28645
806.904	28622
807.046	28957
807.188	28793
807.33	28854
807.472	28934
807.614	28786
807.756	28805
807.898	28752
808.04	28687
808.182	28626
808.324	28820
808.465	28755
808.607	28984
808.749	28953
808.891	29128
809.033	29227
809.174	29288
809.316	29086
809.458	29033
809.6	29029
809.741	29132
809.883	29143
810.025	29433
810.166	29368
810.308	29368
810.45	29334
810.591	29364
810.733	29041
810.875	29189
811.016	29052
811.158	29014
811.299	29124
811.441	29159
811.582	29254
811.724	29086
811.865	29166
812.007	29231
812.148	29143
812.29	29132
812.431	29284
812.573	29444
812.714	29520
812.855	29623
812.997	29699
813.138	29847
813.279	29836
813.421	29581
813.562	29543
813.703	29337
813.845	29307
813.986	28972
814.127	28991
814.268	28805
814.41	28919
814.551	28748
814.692	28888
814.833	28790
814.974	28866
815.115	28816
815.256	28588
815.397	28771
815.539	28637
815.68	28630
815.821	28565
815.962	28881
816.103	28752
816.244	28588
816.385	28409
816.526	28390
816.666	28090
816.807	28120
816.948	28162
817.089	28246
817.23	28143
817.371	28070
817.512	28211
817.653	28261
817.793	28055
817.934	28051
818.075	28177
818.216	28044
818.356	28093
818.497	27991
818.638	27888
818.778	27865
818.919	27857
819.06	28093
819.2	28021
819.341	28055
819.481	28158
819.622	28337
819.762	28489
819.903	28379
820.043	28390
820.184	28295
820.324	28173
820.465	28318
820.605	28200
820.746	28253
820.886	28025
821.026	28291
821.167	28105
821.307	28333
821.447	28200
821.588	27934
821.728	28120
821.868	27766
822.008	27618
822.149	27724
822.289	27420
822.429	27462
822.569	27306
822.709	27332
822.849	27173
822.99	27184
823.13	27176
823.27	26998
823.41	26956
823.55	26834
823.69	26925
823.83	26842
823.97	26887
824.11	26636
824.25	26667
824.389	26762
824.529	26807
824.669	26727
824.809	26853
824.949	26914
825.089	26876
825.228	26853
825.368	26762
825.508	26617
825.648	26686
825.787	26689
825.927	26712
826.067	26674
826.206	26781
826.346	26602
826.485	26587
826.625	26590
826.765	26811
826.904	26693
827.044	26473
827.183	26442
827.323	26278
827.462	26453
827.601	26377
827.741	26374
827.88	26400
828.02	26130
828.159	26355
828.298	26434
828.437	26358
828.577	26332
828.716	26476
828.855	26149
828.994	26027
829.134	26065
829.273	26012
829.412	26050
829.551	25955
829.69	26024
829.829	26073
829.968	26077
830.107	26161
830.246	26107
830.385	26012
830.524	26027
830.663	25856
830.802	25632
830.941	25738
831.08	25544
831.219	25674
831.357	25746
831.496	25986
831.635	25681
831.774	25586
831.913	25483
832.051	25426
832.19	25354
832.329	25430
832.467	25343
832.606	25301
832.744	25316
832.883	25217
833.022	25194
833.16	25441
833.299	25403
833.437	25365
833.576	25422
833.714	25373
833.852	25407
833.991	25487
834.129	25544
834.267	25548
834.406	25377
834.544	25575
834.682	25438
834.821	25335
834.959	25601
835.097	25228
835.235	25472
835.373	25350
835.511	25373
835.65	25301
835.788	25278
835.926	25103
836.064	25095
836.202	25141
836.34	25187
836.478	25266
836.615	25091
836.753	25160
836.891	25156
837.029	25293
837.167	25046
837.305	25194
837.443	25129
837.58	24875
837.718	25179
837.856	24992
837.993	25008
838.131	25103
838.269	24905
838.406	24840
838.544	24913
838.681	24764
838.819	24642
838.956	24593
839.094	24475
839.231	24540
839.369	24677
839.506	25000
839.643	24802
839.781	24429
839.918	24441
840.055	24525
840.193	24471
840.33	24327
840.467	24388
840.604	24395
840.742	24673
840.879	24334
841.016	24319
841.153	24232
841.29	24551
841.427	24273
841.564	24365
841.701	24384
841.838	24243
841.975	24380
842.112	24433
842.249	24144
842.385	24243
842.522	24315
842.659	24216
842.796	24178
842.933	24190
843.069	24148
843.206	24117
843.343	24072
843.479	24129
843.616	24060
843.752	23931
843.889	23961
844.025	24205
844.162	23870
844.298	23965
844.435	24003
844.571	23916
844.708	23870
844.844	24098
844.98	24079
845.117	24098
845.253	23832
845.389	23954
845.525	23775
845.661	23726
845.798	23615
845.934	23802
846.07	23634
846.206	23741
846.342	23764
846.478	23596
846.614	23471
846.75	23273
846.886	23459
847.022	23455
847.158	23425
847.294	23239
847.429	23452
847.565	23360
847.701	23520
847.837	23113
847.972	23102
848.108	23128
848.244	23178
848.379	23014
848.515	22850
848.65	22816
848.786	22999
848.921	23090
849.057	23113
849.192	23006
849.328	23079
849.463	23018
849.598	22972
849.734	22748
849.869	22790
850.004	22729
850.14	22691
850.275	22706
850.41	22660
850.545	22653
850.68	22599
850.815	22790
850.95	22801
851.085	22896
851.22	22820
851.355	22862
851.49	22668
851.625	22596
851.76	22771
851.895	22713
852.03	22679
852.165	22717
852.299	22793
852.434	22881
852.569	22740
852.703	22717
852.838	22744
852.973	22755
853.107	22991
853.242	22675
853.376	22611
853.511	22478
853.645	22561
853.78	22710
853.914	22580
854.048	22554
854.183	22573
854.317	22573
854.451	22641
854.585	22481
854.72	22554
854.854	22763
854.988	22546
855.122	22584
855.256	22493
855.39	22554
855.524	22584
855.658	22630
855.792	22622
855.926	22599
856.06	22577
856.194	22702
856.327	22584
856.461	22405
856.595	22455
856.729	22485
856.862	22618
856.996	22500
857.13	22512
857.263	22603
857.397	22637
857.53	22561
857.664	22611
857.797	22531
857.931	22687
858.064	22596
858.197	22687
858.331	22531
858.464	22489
858.597	22481
858.731	22504
858.864	22557
858.997	22436
859.13	22622
859.263	22630
859.396	22596
859.529	22569
859.662	22603
859.795	22466
859.928	22504
860.061	22634
860.194	22793
860.327	22550
860.46	22500
860.592	22653
860.725	22698
860.858	22767
860.99	22577
861.123	22485
861.256	22440
861.388	22462
861.521	23166
861.653	22325
861.786	22306
861.918	22428
862.05	22417
862.183	22451
862.315	22531
862.447	22637
862.58	22481
862.712	22344
862.844	22226
862.976	22382
863.108	22344
863.24	22664
863.372	22261
863.504	22207
863.636	22215
863.768	22223
863.9	22261
864.032	22261
864.164	22124
864.296	22375
864.428	22234
864.559	22219
864.691	22291
864.823	22249
864.954	22246
865.086	22295
865.217	22124
865.349	22128
865.48	22238
865.612	22124
865.743	22295
865.875	22074
866.006	22143
866.137	22090
866.269	22150
866.4	22059
866.531	22177
866.662	22044
866.793	22181
866.924	22059
867.055	22036
867.186	22150
867.317	22090
867.448	21918
867.579	22013
867.71	22105
867.841	21956
867.972	21998
868.103	22002
868.233	21934
868.364	22105
868.495	22181
868.625	22238
868.756	22440
868.886	22253
869.017	22234
869.147	22325
869.278	22455
869.408	22344
869.539	22276
869.669	22413
869.799	22363
869.929	22421
870.06	22462
870.19	22710
870.32	22519
870.45	22618
870.58	22691
870.71	22752
870.84	22820
870.97	22713
871.1	22683
871.23	22900
871.36	22987
871.489	22873
871.619	22930
871.749	22797
871.879	22923
872.008	23041
872.138	22927
872.267	23067
872.397	22694
872.526	22820
872.656	22706
872.785	22820
872.915	22847
873.044	22934
873.173	22908
873.303	22934
873.432	22869
873.561	22991
873.69	22904
873.819	22908
873.948	22991
874.077	22968
874.206	22885
874.335	22847
874.464	23048
874.593	23117
874.722	23185
874.851	23208
874.979	23208
875.108	23246
875.237	22957
875.365	23010
875.494	23212
875.623	23174
875.751	23094
875.88	23056
876.008	23132
876.136	23200
876.265	23524
876.393	23623
876.521	23558
876.65	23638
876.778	23387
876.906	23410
877.034	23493
877.162	23524
877.29	23360
877.418	23471
877.546	23505
877.674	23474
877.802	23391
877.93	23516
878.058	23490
878.185	23330
878.313	23391
878.441	23402
878.568	23258
878.696	23387
878.824	23387
878.951	23672
879.079	23672
879.206	23786
879.333	23638
879.461	23501
879.588	23680
879.715	23676
879.842	23828
879.97	23512
880.097	23387
880.224	23265
880.351	23265
880.478	23341
880.605	23216
880.732	23242
880.859	23497
880.986	23227
881.112	23311
881.239	23181
881.366	22972
881.493	23048
881.619	22923
881.746	22835
881.872	22892
881.999	22828
882.125	22828
882.252	22843
882.378	22820
882.505	22987
882.631	22725
882.757	22645
882.883	22470
883.01	22436
883.136	22489
883.262	22329
883.388	22363
883.514	22455
883.64	22626
883.766	22405
883.892	22268
884.018	22402
884.143	22557
884.269	22599
884.395	22238
884.52	22173
884.646	22242
884.772	22139
884.897	22040
885.023	22154
885.148	22318
885.274	22246
885.399	22230
885.524	22177
885.65	22162
885.775	22166
885.9	22116
886.025	22253
886.15	22230
886.275	22074
886.4	22249
886.525	22074
886.65	22154
886.775	22097
886.9	22147
887.025	22386
887.149	22162
887.274	21876
887.399	21911
887.523	21911
887.648	21880
887.773	21793
887.897	22040
888.021	21850
888.146	21873
888.27	22051
888.395	21968
888.519	21956
888.643	21888
888.767	21838
888.891	21747
889.015	21698
889.139	21774
889.263	21694
889.387	21759
889.511	22013
889.635	21888
889.759	21732
889.883	21595
890.006	21694
890.13	21724
890.254	21736
890.377	21667
890.501	21416
890.624	21428
890.748	21523
890.871	21348
890.995	21302
891.118	21230
891.241	21195
891.364	21256
891.488	21420
891.611	21169
891.734	21222
891.857	21340
891.98	21138
892.103	21348
892.226	21252
892.349	21313
892.471	21123
892.594	21154
892.717	21173
892.839	21074
892.962	21165
893.085	21207
893.207	21123
893.33	21135
893.452	21146
893.575	21058
893.697	21150
893.819	21363
893.941	21226
894.064	21203
894.186	21013
894.308	20944
894.43	21142
894.552	21245
894.674	21291
894.796	20990
894.918	21169
895.04	21066
895.161	21123
895.283	21188
895.405	20929
895.526	21047
895.648	21154
895.769	21131
895.891	21127
896.012	21237
896.134	21157
896.255	21146
896.376	21116
896.498	21203
896.619	21081
896.74	21108
896.861	21184
896.982	21519
897.103	21545
897.224	21329
897.345	21306
897.466	21268
897.587	21367
897.708	21553
897.828	21298
897.949	21401
898.07	21199
898.19	21325
898.311	21344
898.431	21348
898.552	21386
898.672	21336
898.792	21500
898.913	21264
899.033	21161
899.153	21169
899.273	21005
899.393	21077
899.513	21116
899.633	20998
899.753	21036
899.873	20963
899.993	21096
900.113	20914
900.232	20948
900.352	21009
900.472	20914
900.591	20834
900.711	20872
900.83	20792
900.95	20876
901.069	20998
901.189	20720
901.308	20507
901.427	20427
901.546	20377
901.665	20362
901.784	20336
901.904	20210
902.023	20161
902.141	19883
902.26	20016
902.379	20005
902.498	19993
902.617	19845
902.735	19852
902.854	19887
902.973	19811
903.091	19655
903.21	19445
903.328	19506
903.446	19438
903.565	19285
903.683	19411
903.801	19175
903.919	19255
904.038	19270
904.156	19019
904.274	19209
904.392	19042
904.51	19038
904.627	18989
904.745	19129
904.863	19160
904.981	18958
905.098	18844
905.216	18821
905.334	18715
905.451	18859
905.569	18661
905.686	18833
905.803	18791
905.921	18604
906.038	18703
906.155	18601
906.272	18433
906.389	18429
906.506	18414
906.623	18224
906.74	18239
906.857	18167
906.974	18102
907.091	18330
907.208	18448
907.324	18323
907.441	18201
907.557	18015
907.674	18041
907.79	17942
907.907	17961
908.023	18060
908.139	17973
908.256	17923
908.372	17878
908.488	17927
908.604	17843
908.72	17748
908.836	17710
908.952	17672
909.068	17798
909.184	17836
909.3	17600
909.415	17745
909.531	17653
909.647	17452
909.762	17478
909.878	17376
909.993	17398
910.108	17368
910.224	17391
910.339	17353
910.454	17288
910.57	17189
910.685	17132
910.8	17471
910.915	17311
911.03	17121
911.145	17079
911.259	17056
911.374	17018
911.489	16885
911.604	16820
911.718	16748
911.833	16721
911.947	16649
912.062	16546
912.176	16717
912.291	16797
912.405	16691
912.519	16930
912.633	16885
912.748	16812
912.862	16668
912.976	16561
913.09	16306
913.204	16390
913.318	16516
913.431	16641
913.545	16626
913.659	16668
913.772	16409
913.886	16299
914	16204
914.113	16398
914.226	16451
914.34	16421
914.453	16200
914.566	16329
914.68	16257
914.793	16234
914.906	15972
915.019	15892
915.132	15953
915.245	15960
915.358	15945
915.47	15892
915.583	15937
915.696	15857
915.809	16086
915.921	15979
916.034	15743
916.146	15766
916.259	15903
916.371	15873
916.483	15819
916.595	15747
916.708	15743
916.82	15717
916.932	15644
917.044	15701
917.156	15511
917.268	15519
917.38	15545
917.491	15572
917.603	15492
917.715	15469
917.826	15644
917.938	15393
918.049	15351
918.161	15511
918.272	15545
918.384	15564
918.495	15401
918.606	15233
918.717	15150
918.828	15336
918.939	15268
919.05	15135
919.161	15252
919.272	15081
919.383	15104
919.494	15325
919.604	15359
919.715	15325
919.826	15116
919.936	15241
920.047	15275
920.157	15173
920.267	15389
920.378	15294
920.488	15097
920.598	15340
920.708	15526
920.818	15344
920.928	15283
921.038	15416
921.148	15431
921.258	15112
921.368	15119
921.477	15005
921.587	14887
921.697	14868
921.806	14937
921.916	14895
922.025	14651
922.134	14587
922.244	14511
922.353	14579
922.462	14415
922.571	14415
922.68	14225
922.789	14130
922.898	14221
923.007	14176
923.116	14176
923.224	14138
923.333	14180
923.442	14088
923.55	14005
923.659	14123
923.767	14031
923.876	14008
923.984	14073
924.092	13898
924.201	13982
924.309	13986
924.417	13864
924.525	13879
924.633	13909
924.741	14792
924.849	13605
924.956	13712
925.064	13590
925.172	13533
925.279	13552
925.387	13571
925.494	13624
925.602	13712
925.709	13628
925.816	13411
925.924	13533
926.031	13586
926.138	13487
926.245	13563
926.352	13434
926.459	13533
926.566	13590
926.673	13476
926.779	13270
926.886	13350
926.993	13141
927.099	13126
927.206	13061
927.312	13091
927.419	13171
927.525	13095
927.631	13141
927.737	13027
927.843	13034
927.95	12810
928.056	12981
928.162	13027
928.267	13004
928.373	13605
928.479	12935
928.585	12764
928.69	12810
928.796	12878
928.901	12753
929.007	12555
929.112	12757
929.218	12669
929.323	12734
929.428	12623
929.533	12772
929.638	12486
929.743	12479
929.848	12673
929.953	12616
930.058	12471
930.163	12369
930.267	12369
930.372	12471
930.477	12311
930.581	12445
930.685	12334
930.79	12133
930.894	12228
930.998	12262
931.103	12277
931.207	11912
931.311	11901
931.415	11786
931.519	11573
931.623	11627
