Data from test_V78500241_1783.txt Node
Date: Fri Mar 25 15:54:09 CST 2022
User: usil
Spectrometer: V785-0024
Trigger mode: 0
Integration Time (sec): 4.000000E-1
Scans to average: 1
Nonlinearity correction enabled: false
Boxcar width: 0
Storing dark spectrum: false
XAxis mode: Wavelengths
Number of Pixels in Spectrum: 1024
>>>>>Begin Spectral Data<<<<<
801.071	28607
801.214	28447
801.356	28341
801.499	28371
801.641	28185
801.783	28097
801.926	28318
802.068	28143
802.211	28158
802.353	28078
802.496	27899
802.638	27911
802.78	27705
802.923	27857
803.065	27762
803.208	27789
803.35	27888
803.492	28101
803.635	28078
803.777	27918
803.919	28112
804.061	28329
804.204	28116
804.346	28059
804.488	28021
804.63	28120
804.773	27987
804.915	28211
805.057	28265
805.199	28166
805.341	28257
805.483	28215
805.626	28200
805.768	28070
805.91	28188
806.052	28367
806.194	28272
806.336	28451
806.478	28344
806.62	28318
806.762	28497
806.904	28626
807.046	28816
807.188	28550
807.33	28736
807.472	28858
807.614	28706
807.756	28782
807.898	28538
808.04	28405
808.182	28497
808.324	28656
808.465	28596
808.607	28915
808.749	28976
808.891	29006
809.033	29159
809.174	28942
809.316	28877
809.458	29010
809.6	28847
809.741	29018
809.883	29018
810.025	29303
810.166	29212
810.308	29105
810.45	29223
810.591	29090
810.733	28987
810.875	29041
811.016	28892
811.158	28976
811.299	29223
811.441	28965
811.582	29079
811.724	28888
811.865	28919
812.007	28904
812.148	28976
812.29	29064
812.431	29044
812.573	29356
812.714	29395
812.855	29619
812.997	29493
813.138	29649
813.279	29661
813.421	29478
813.562	29512
813.703	29364
813.845	29185
813.986	28987
814.127	28729
814.268	28748
814.41	28717
814.551	28622
814.692	28725
814.833	28611
814.974	28702
815.115	28797
815.256	28554
815.397	28618
815.539	28664
815.68	28504
815.821	28344
815.962	28466
816.103	28519
816.244	28295
816.385	28398
816.526	28223
816.666	28006
816.807	28017
816.948	28070
817.089	28109
817.23	27991
817.371	27956
817.512	28051
817.653	28032
817.793	27979
817.934	27918
818.075	27987
818.216	27960
818.356	27835
818.497	27880
818.638	27724
818.778	27644
818.919	27827
819.06	27816
819.2	27934
819.341	28013
819.481	27964
819.622	28090
819.762	28261
819.903	28223
820.043	28078
820.184	28169
820.324	28173
820.465	28375
820.605	28101
820.746	28105
820.886	27865
821.026	28116
821.167	28120
821.307	28219
821.447	28109
821.588	27835
821.728	27774
821.868	27530
822.008	27526
822.149	27420
822.289	27408
822.429	27283
822.569	27173
822.709	27195
822.849	26948
822.99	26990
823.13	26994
823.27	26933
823.41	26796
823.55	26686
823.69	26819
823.83	26838
823.97	26625
824.11	26697
824.25	26511
824.389	26632
824.529	26697
824.669	26587
824.809	26750
824.949	26712
825.089	26629
825.228	26697
825.368	26473
825.508	26537
825.648	26423
825.787	26495
825.927	26560
826.067	26438
826.206	26457
826.346	26476
826.485	26571
826.625	26541
826.765	26568
826.904	26480
827.044	26320
827.183	26206
827.323	26046
827.462	26366
827.601	26294
827.741	26176
827.88	26126
828.02	26092
828.159	26218
828.298	26305
828.437	26172
828.577	26035
828.716	26233
828.855	26161
828.994	25917
829.134	25879
829.273	25936
829.412	25936
829.551	25769
829.69	25871
829.829	25986
829.968	25959
830.107	25902
830.246	26012
830.385	25772
830.524	25757
830.663	25635
830.802	25670
830.941	25537
831.08	25544
831.219	25662
831.357	25502
831.496	25738
831.635	25453
831.774	25487
831.913	25324
832.051	25358
832.19	25194
832.329	25263
832.467	25270
832.606	25175
832.744	25206
832.883	25133
833.022	25000
833.16	25164
833.299	25179
833.437	25240
833.576	25129
833.714	25133
833.852	25373
833.991	25213
834.129	25244
834.267	25289
834.406	25171
834.544	25301
834.682	25327
834.821	25202
834.959	25274
835.097	25126
835.235	25369
835.373	25206
835.511	25293
835.65	25221
835.788	25088
835.926	24833
836.064	24878
836.202	24985
836.34	25148
836.478	24996
836.615	25099
836.753	25095
836.891	25164
837.029	25072
837.167	25000
837.305	24894
837.443	24856
837.58	24867
837.718	24909
837.856	25046
837.993	24764
838.131	24798
838.269	24776
838.406	24798
838.544	24768
838.681	24570
838.819	24513
838.956	24357
839.094	24281
839.231	24407
839.369	24483
839.506	24738
839.643	24726
839.781	24441
839.918	24254
840.055	24247
840.193	24350
840.33	24224
840.467	24251
840.604	24384
840.742	24525
840.879	24148
841.016	24152
841.153	24224
841.29	24353
841.427	24220
841.564	24384
841.701	24281
841.838	24300
841.975	24186
842.112	24155
842.249	24060
842.385	24110
842.522	24205
842.659	24159
842.796	24026
842.933	24098
843.069	23942
843.206	23904
843.343	23999
843.479	24064
843.616	23950
843.752	23813
843.889	23710
844.025	23969
844.162	23821
844.298	23794
844.435	23657
844.571	23668
844.708	23942
844.844	24034
844.98	24003
845.117	23973
845.253	23760
845.389	23592
845.525	23657
845.661	23680
845.798	23482
845.934	23554
846.07	23604
846.206	23455
846.342	23611
846.478	23573
846.614	23360
846.75	23220
846.886	23208
847.022	23349
847.158	23246
847.294	23170
847.429	23269
847.565	23239
847.701	23436
847.837	22961
847.972	22900
848.108	23006
848.244	23060
848.379	22858
848.515	22820
848.65	22923
848.786	22786
848.921	22729
849.057	23010
849.192	22976
849.328	22793
849.463	22843
849.598	22831
849.734	22771
849.869	22664
850.004	22706
850.14	22527
850.275	22634
850.41	22596
850.545	22592
850.68	22611
850.815	22653
850.95	22546
851.085	22763
851.22	22694
851.355	22573
851.49	22645
851.625	22531
851.76	22500
851.895	22554
852.03	22500
852.165	22561
852.299	22634
852.434	22611
852.569	22588
852.703	22615
852.838	22664
852.973	22645
853.107	22831
853.242	22542
853.376	22432
853.511	22257
853.645	22371
853.78	22565
853.914	22402
854.048	22432
854.183	22421
854.317	22379
854.451	22622
854.585	22459
854.72	22428
854.854	22497
854.988	22348
855.122	22557
855.256	22226
855.39	22413
855.524	22626
855.658	22554
855.792	22546
855.926	22413
856.06	22447
856.194	22424
856.327	22287
856.461	22226
856.595	22303
856.729	22424
856.862	22481
856.996	22500
857.13	22527
857.263	22588
857.397	22504
857.53	22314
857.664	22512
857.797	22466
857.931	22394
858.064	22398
858.197	22447
858.331	22516
858.464	22280
858.597	22409
858.731	22390
858.864	22337
858.997	22421
859.13	22382
859.263	22443
859.396	22573
859.529	22424
859.662	22333
859.795	22382
859.928	22459
860.061	22447
860.194	22702
860.327	22455
860.46	22390
860.592	22561
860.725	22478
860.858	22447
860.99	22440
861.123	22329
861.256	22375
861.388	22432
861.521	23083
861.653	22162
861.786	22044
861.918	22192
862.05	22394
862.183	22325
862.315	22303
862.447	22382
862.58	22348
862.712	22124
862.844	22051
862.976	22090
863.108	22200
863.24	22607
863.372	22093
863.504	22010
863.636	22188
863.768	22207
863.9	22048
864.032	22093
864.164	22109
864.296	22177
864.428	22257
864.559	22131
864.691	22192
864.823	22131
864.954	22044
865.086	22032
865.217	22036
865.349	22082
865.48	22067
865.612	22048
865.743	22044
865.875	22021
866.006	21979
866.137	22029
866.269	21842
866.4	21903
866.531	21888
866.662	21941
866.793	21861
866.924	21835
867.055	21972
867.186	21968
867.317	21945
867.448	21907
867.579	21907
867.71	21690
867.841	21797
867.972	21827
868.103	21797
868.233	21930
868.364	21991
868.495	22078
868.625	22246
868.756	22382
868.886	22093
869.017	22093
869.147	22371
869.278	22253
869.408	22162
869.539	22055
869.669	22192
869.799	22265
869.929	22337
870.06	22166
870.19	22557
870.32	22421
870.45	22504
870.58	22512
870.71	22679
870.84	22618
870.97	22577
871.1	22664
871.23	22790
871.36	22702
871.489	22683
871.619	22698
871.749	22721
871.879	22858
872.008	22873
872.138	22797
872.267	22740
872.397	22634
872.526	22535
872.656	22683
872.785	22607
872.915	22812
873.044	22919
873.173	22691
873.303	22881
873.432	22812
873.561	22812
873.69	22763
873.819	22668
873.948	22904
874.077	22782
874.206	22748
874.335	22774
874.464	22923
874.593	23075
874.722	22889
874.851	22995
874.979	22938
875.108	22961
875.237	23022
875.365	22828
875.494	22942
875.623	23128
875.751	22923
875.88	22953
876.008	23197
876.136	23132
876.265	23200
876.393	23501
876.521	23353
876.65	23539
876.778	23398
876.906	23315
877.034	23288
877.162	23410
877.29	23398
877.418	23383
877.546	23497
877.674	23311
877.802	23364
877.93	23261
878.058	23269
878.185	23235
878.313	23402
878.441	23280
878.568	23197
878.696	23364
878.824	23379
878.951	23410
879.079	23486
879.206	23646
879.333	23467
879.461	23512
879.588	23490
879.715	23433
879.842	23558
879.97	23398
880.097	23193
880.224	23098
880.351	23220
880.478	23124
880.605	23124
880.732	23181
880.859	23436
880.986	23181
881.112	23353
881.239	23006
881.366	22953
881.493	22843
881.619	22694
881.746	22786
881.872	22694
881.999	22683
882.125	22554
882.252	22649
882.378	22656
882.505	22759
882.631	22733
882.757	22485
882.883	22428
883.01	22344
883.136	22204
883.262	22223
883.388	22280
883.514	22360
883.64	22428
883.766	22291
883.892	22150
884.018	22166
884.143	22428
884.269	22470
884.395	22143
884.52	21949
884.646	22032
884.772	21838
884.897	21759
885.023	22116
885.148	22181
885.274	22090
885.399	22086
885.524	21945
885.65	22013
885.775	22021
885.9	22131
886.025	22093
886.15	22021
886.275	21968
886.4	21945
886.525	21941
886.65	22013
886.775	21979
886.9	22234
887.025	22162
887.149	22013
887.274	21876
887.399	21751
887.523	21713
887.648	21812
887.773	21656
887.897	21823
888.021	21819
888.146	21705
888.27	21888
888.395	21831
888.519	21857
888.643	21816
888.767	21785
888.891	21770
889.015	21526
889.139	21599
889.263	21405
889.387	21663
889.511	21717
889.635	21686
889.759	21614
889.883	21492
890.006	21667
890.13	21682
890.254	21492
890.377	21557
890.501	21283
890.624	21233
890.748	21355
890.871	21237
890.995	21146
891.118	21096
891.241	21119
891.364	21127
891.488	21218
891.611	21150
891.734	21066
891.857	21184
891.98	21214
892.103	21169
892.226	21195
892.349	21116
892.471	20902
892.594	20994
892.717	21051
892.839	21043
892.962	21009
893.085	20948
893.207	20998
893.33	20876
893.452	20857
893.575	20986
893.697	20960
893.819	21218
893.941	21138
894.064	21032
894.186	20842
894.308	20838
894.43	21070
894.552	21287
894.674	21176
894.796	20876
894.918	20910
895.04	20967
895.161	21051
895.283	21058
895.405	20967
895.526	21001
895.648	20952
895.769	21055
895.891	21051
896.012	21055
896.134	21001
896.255	20979
896.376	20845
896.498	21066
896.619	21039
896.74	20857
896.861	21089
896.982	21272
897.103	21294
897.224	21351
897.345	21138
897.466	21127
897.587	21093
897.708	21310
897.828	21256
897.949	21123
898.07	20998
898.19	21051
898.311	21279
898.431	21047
898.552	21180
898.672	21336
898.792	21230
898.913	21203
899.033	21017
899.153	20975
899.273	20933
899.393	20918
899.513	21039
899.633	20906
899.753	20967
899.873	20849
899.993	20902
900.113	20891
900.232	20929
900.352	20807
900.472	20731
900.591	20651
900.711	20705
900.83	20636
900.95	20750
901.069	20792
901.189	20530
901.308	20332
901.427	20298
901.546	20267
901.665	20305
901.784	20282
901.904	20149
902.023	20062
902.141	19879
902.26	19784
902.379	19845
902.498	19788
902.617	19700
902.735	19799
902.854	19715
902.973	19651
903.091	19506
903.21	19430
903.328	19441
903.446	19384
903.565	19114
903.683	19194
903.801	19107
903.919	19183
904.038	19095
904.156	19042
904.274	19091
904.392	18970
904.51	18989
904.627	18954
904.745	18882
904.863	18932
904.981	18909
905.098	18715
905.216	18669
905.334	18692
905.451	18753
905.569	18540
905.686	18688
905.803	18563
905.921	18376
906.038	18623
906.155	18388
906.272	18353
906.389	18304
906.506	18129
906.623	18197
906.74	18232
906.857	18003
906.974	17980
907.091	18270
907.208	18308
907.324	18228
907.441	18095
907.557	17901
907.674	18011
907.79	17756
907.907	17851
908.023	17946
908.139	17817
908.256	17843
908.372	17805
908.488	17798
908.604	17767
908.72	17566
908.836	17615
908.952	17642
909.068	17691
909.184	17764
909.3	17512
909.415	17676
909.531	17657
909.647	17288
909.762	17258
909.878	17265
909.993	17311
910.108	17280
910.224	17356
910.339	17307
910.454	17090
910.57	17033
910.685	17018
910.8	17395
910.915	17284
911.03	17079
911.145	16946
911.259	16812
911.374	16930
911.489	16729
911.604	16725
911.718	16607
911.833	16554
911.947	16577
912.062	16489
912.176	16634
912.291	16626
912.405	16599
912.519	16721
912.633	16782
912.748	16615
912.862	16622
912.976	16538
913.09	16352
913.204	16367
913.318	16371
913.431	16538
913.545	16538
913.659	16527
913.772	16360
913.886	16299
914	16246
914.113	16306
914.226	16356
914.34	16287
914.453	16082
914.566	16280
914.68	16090
914.793	16036
914.906	15857
915.019	15743
915.132	15728
915.245	15682
915.358	15808
915.47	15819
915.583	15850
915.696	15812
915.809	15907
915.921	15941
916.034	15831
916.146	15675
916.259	15705
916.371	15774
916.483	15789
916.595	15568
916.708	15698
916.82	15610
916.932	15606
917.044	15526
917.156	15599
917.268	15496
917.38	15408
917.491	15332
917.603	15466
917.715	15477
917.826	15526
917.938	15408
918.049	15329
918.161	15401
918.272	15545
918.384	15519
918.495	15329
918.606	15214
918.717	15055
918.828	15176
918.939	15275
919.05	15119
919.161	15100
919.272	14998
919.383	14979
919.494	15127
919.604	15382
919.715	15135
919.826	14982
919.936	15081
920.047	15195
920.157	15081
920.267	15256
920.378	15146
920.488	15085
920.598	15268
920.708	15473
920.818	15298
920.928	15161
921.038	15420
921.148	15302
921.258	15097
921.368	14963
921.477	14872
921.587	14872
921.697	14648
921.806	14899
921.916	14727
922.025	14522
922.134	14499
922.244	14492
922.353	14514
922.462	14393
922.571	14332
922.68	14157
922.789	14096
922.898	14092
923.007	14119
923.116	14180
923.224	14058
923.333	14062
923.442	14020
923.55	13989
923.659	13925
923.767	13982
923.876	13928
923.984	13967
924.092	13845
924.201	13845
924.309	13841
924.417	13864
924.525	13814
924.633	13833
924.741	14552
924.849	13571
924.956	13655
925.064	13597
925.172	13407
925.279	13529
925.387	13518
925.494	13411
925.602	13544
925.709	13529
925.816	13487
925.924	13480
926.031	13552
926.138	13499
926.245	13438
926.352	13384
926.459	13388
926.566	13472
926.673	13384
926.779	13175
926.886	13206
926.993	13019
927.099	12996
927.206	13004
927.312	12985
927.419	13141
927.525	13000
927.631	13091
927.737	12939
927.843	12894
927.95	12726
928.056	12814
928.162	12852
928.267	12875
928.373	13472
928.479	12916
928.585	12745
928.69	12867
928.796	12871
928.901	12776
929.007	12540
929.112	12662
929.218	12673
929.323	12582
929.428	12639
929.533	12684
929.638	12494
929.743	12532
929.848	12509
929.953	12486
930.058	12437
930.163	12190
930.267	12273
930.372	12403
930.477	12201
930.581	12437
930.685	12289
930.79	12110
930.894	12133
930.998	12083
931.103	12277
931.207	11874
931.311	11870
931.415	11737
931.519	11516
931.623	11429
