Data from test_V78500241_3627.txt Node
Date: Fri Mar 25 16:06:55 CST 2022
User: usil
Spectrometer: V785-0024
Trigger mode: 0
Integration Time (sec): 4.000000E-1
Scans to average: 1
Nonlinearity correction enabled: false
Boxcar width: 0
Storing dark spectrum: false
XAxis mode: Wavelengths
Number of Pixels in Spectrum: 1024
>>>>>Begin Spectral Data<<<<<
801.071	28656
801.214	28630
801.356	28405
801.499	28295
801.641	28249
801.783	28341
801.926	28226
802.068	28162
802.211	28150
802.353	28032
802.496	28029
802.638	27884
802.78	27800
802.923	27831
803.065	27762
803.208	27755
803.35	27835
803.492	28036
803.635	28109
803.777	28006
803.919	28055
804.061	28405
804.204	28162
804.346	28013
804.488	28051
804.63	27937
804.773	28116
804.915	28318
805.057	28226
805.199	28173
805.341	28223
805.483	28348
805.626	28291
805.768	28086
805.91	28280
806.052	28401
806.194	28226
806.336	28348
806.478	28348
806.62	28299
806.762	28306
806.904	28584
807.046	28854
807.188	28618
807.33	28740
807.472	28793
807.614	28755
807.756	28797
807.898	28561
808.04	28527
808.182	28611
808.324	28615
808.465	28702
808.607	28915
808.749	29094
808.891	29102
809.033	29212
809.174	28965
809.316	29037
809.458	28991
809.6	28991
809.741	29102
809.883	29102
810.025	29227
810.166	29113
810.308	29284
810.45	29246
810.591	29109
810.733	29105
810.875	28968
811.016	28915
811.158	28869
811.299	29060
811.441	29223
811.582	29155
811.724	28942
811.865	29056
812.007	28995
812.148	28824
812.29	29006
812.431	29128
812.573	29387
812.714	29414
812.855	29577
812.997	29570
813.138	29752
813.279	29585
813.421	29543
813.562	29292
813.703	29379
813.845	29239
813.986	29067
814.127	28683
814.268	28675
814.41	28790
814.551	28660
814.692	28713
814.833	28622
814.974	28656
815.115	28611
815.256	28550
815.397	28592
815.539	28679
815.68	28432
815.821	28375
815.962	28577
816.103	28478
816.244	28348
816.385	28253
816.526	28215
816.666	28086
816.807	27926
816.948	28074
817.089	28131
817.23	27998
817.371	27953
817.512	27975
817.653	27934
817.793	28006
817.934	28040
818.075	27934
818.216	28051
818.356	27975
818.497	27762
818.638	27717
818.778	27797
818.919	27865
819.06	27831
819.2	27987
819.341	27911
819.481	27998
819.622	28173
819.762	28287
819.903	28295
820.043	28268
820.184	28185
820.324	28162
820.465	28169
820.605	28070
820.746	28074
820.886	28036
821.026	28044
821.167	28177
821.307	28150
821.447	28162
821.588	27914
821.728	27728
821.868	27637
822.008	27469
822.149	27553
822.289	27340
822.429	27211
822.569	27024
822.709	27291
822.849	26960
822.99	26891
823.13	27017
823.27	26845
823.41	26887
823.55	26697
823.69	26845
823.83	26739
823.97	26693
824.11	26571
824.25	26552
824.389	26575
824.529	26773
824.669	26663
824.809	26746
824.949	26659
825.089	26693
825.228	26682
825.368	26499
825.508	26526
825.648	26575
825.787	26537
825.927	26674
826.067	26461
826.206	26583
826.346	26568
826.485	26632
826.625	26511
826.765	26549
826.904	26465
827.044	26377
827.183	26336
827.323	26218
827.462	26256
827.601	26263
827.741	26256
827.88	26191
828.02	26119
828.159	26153
828.298	26233
828.437	26381
828.577	26225
828.716	26252
828.855	26001
828.994	26031
829.134	25856
829.273	25963
829.412	25890
829.551	25761
829.69	26092
829.829	26100
829.968	25978
830.107	25963
830.246	25925
830.385	25837
830.524	25890
830.663	25723
830.802	25601
830.941	25460
831.08	25613
831.219	25586
831.357	25533
831.496	25784
831.635	25635
831.774	25533
831.913	25316
832.051	25354
832.19	25187
832.329	25266
832.467	25247
832.606	25179
832.744	25206
832.883	25148
833.022	25095
833.16	25183
833.299	25263
833.437	25263
833.576	25107
833.714	25282
833.852	25263
833.991	25426
834.129	25270
834.267	25263
834.406	25285
834.544	25263
834.682	25278
834.821	25209
834.959	25449
835.097	25187
835.235	25343
835.373	25274
835.511	25202
835.65	24916
835.788	25091
835.926	24989
836.064	24992
836.202	24886
836.34	25034
836.478	25042
836.615	25046
836.753	24970
836.891	25266
837.029	25012
837.167	25053
837.305	24943
837.443	24981
837.58	24882
837.718	24935
837.856	24966
837.993	24882
838.131	24886
838.269	24726
838.406	24825
838.544	24783
838.681	24559
838.819	24502
838.956	24346
839.094	24384
839.231	24445
839.369	24639
839.506	24821
839.643	24566
839.781	24403
839.918	24285
840.055	24350
840.193	24247
840.33	24384
840.467	24372
840.604	24338
840.742	24631
840.879	24243
841.016	24102
841.153	24323
841.29	24437
841.427	24220
841.564	24258
841.701	24254
841.838	24285
841.975	24228
842.112	24209
842.249	24038
842.385	24064
842.522	24273
842.659	24201
842.796	24022
842.933	23988
843.069	23988
843.206	23942
843.343	24102
843.479	23942
843.616	23980
843.752	23718
843.889	23805
844.025	23866
844.162	23756
844.298	23935
844.435	23847
844.571	23878
844.708	23805
844.844	23977
844.98	24026
845.117	23855
845.253	23752
845.389	23722
845.525	23634
845.661	23748
845.798	23531
845.934	23623
846.07	23615
846.206	23733
846.342	23551
846.478	23444
846.614	23383
846.75	23231
846.886	23166
847.022	23436
847.158	23292
847.294	23265
847.429	23288
847.565	23273
847.701	23425
847.837	23041
847.972	22946
848.108	23121
848.244	23029
848.379	22892
848.515	22752
848.65	22790
848.786	22801
848.921	22854
849.057	22976
849.192	22953
849.328	22866
849.463	22873
849.598	22854
849.734	22843
849.869	22668
850.004	22721
850.14	22637
850.275	22573
850.41	22516
850.545	22443
850.68	22554
850.815	22577
850.95	22675
851.085	22816
851.22	22744
851.355	22611
851.49	22717
851.625	22569
851.76	22592
851.895	22550
852.03	22603
852.165	22645
852.299	22630
852.434	22729
852.569	22626
852.703	22710
852.838	22691
852.973	22759
853.107	22869
853.242	22542
853.376	22508
853.511	22352
853.645	22413
853.78	22497
853.914	22333
854.048	22390
854.183	22379
854.317	22611
854.451	22637
854.585	22542
854.72	22284
854.854	22550
854.988	22371
855.122	22436
855.256	22504
855.39	22443
855.524	22550
855.658	22512
855.792	22569
855.926	22440
856.06	22519
856.194	22421
856.327	22360
856.461	22299
856.595	22512
856.729	22299
856.862	22588
856.996	22538
857.13	22512
857.263	22512
857.397	22478
857.53	22459
857.664	22462
857.797	22382
857.931	22626
858.064	22489
858.197	22535
858.331	22481
858.464	22287
858.597	22280
858.731	22322
858.864	22455
858.997	22493
859.13	22440
859.263	22432
859.396	22630
859.529	22318
859.662	22516
859.795	22394
859.928	22440
860.061	22596
860.194	22687
860.327	22565
860.46	22360
860.592	22573
860.725	22706
860.858	22508
860.99	22386
861.123	22386
861.256	22394
861.388	22508
861.521	23318
861.653	22436
861.786	22128
861.918	22207
862.05	22329
862.183	22333
862.315	22348
862.447	22428
862.58	22470
862.712	22173
862.844	22017
862.976	22177
863.108	22196
863.24	22622
863.372	22166
863.504	22204
863.636	22158
863.768	22215
863.9	22185
864.032	22093
864.164	22063
864.296	22082
864.428	22200
864.559	22287
864.691	22173
864.823	22131
864.954	22112
865.086	22074
865.217	22059
865.349	22067
865.48	22074
865.612	22070
865.743	22162
865.875	22166
866.006	21991
866.137	22017
866.269	22074
866.4	21975
866.531	21930
866.662	21972
866.793	21918
866.924	22044
867.055	22036
867.186	21956
867.317	21850
867.448	21899
867.579	21979
867.71	21972
867.841	21911
867.972	21968
868.103	21838
868.233	21994
868.364	22017
868.495	21991
868.625	22242
868.756	22196
868.886	22131
869.017	22139
869.147	22303
869.278	22280
869.408	22310
869.539	22188
869.669	22325
869.799	22242
869.929	22348
870.06	22162
870.19	22390
870.32	22653
870.45	22500
870.58	22630
870.71	22622
870.84	22656
870.97	22485
871.1	22599
871.23	22740
871.36	22790
871.489	22637
871.619	22812
871.749	22809
871.879	22797
872.008	22858
872.138	22816
872.267	22778
872.397	22713
872.526	22713
872.656	22596
872.785	22725
872.915	22828
873.044	22892
873.173	22759
873.303	22915
873.432	22908
873.561	23014
873.69	22759
873.819	22721
873.948	22873
874.077	22892
874.206	22736
874.335	22873
874.464	22938
874.593	22976
874.722	22953
874.851	23132
874.979	23151
875.108	23086
875.237	23136
875.365	22987
875.494	23098
875.623	23128
875.751	22968
875.88	23006
876.008	23147
876.136	23121
876.265	23406
876.393	23493
876.521	23455
876.65	23547
876.778	23372
876.906	23414
877.034	23436
877.162	23280
877.29	23273
877.418	23303
877.546	23482
877.674	23531
877.802	23395
877.93	23296
878.058	23459
878.185	23356
878.313	23258
878.441	23292
878.568	23250
878.696	23398
878.824	23318
878.951	23459
879.079	23581
879.206	23703
879.333	23505
879.461	23520
879.588	23539
879.715	23535
879.842	23589
879.97	23474
880.097	23311
880.224	23235
880.351	23239
880.478	23197
880.605	23220
880.732	23208
880.859	23395
880.986	23223
881.112	23227
881.239	23083
881.366	22904
881.493	22778
881.619	22698
881.746	22843
881.872	22771
881.999	22645
882.125	22634
882.252	22828
882.378	22748
882.505	22771
882.631	22561
882.757	22394
882.883	22561
883.01	22656
883.136	22402
883.262	22268
883.388	22295
883.514	22523
883.64	22432
883.766	22360
883.892	22215
884.018	22139
884.143	22337
884.269	22535
884.395	22154
884.52	22112
884.646	22070
884.772	22074
884.897	21937
885.023	22112
885.148	22192
885.274	22128
885.399	22143
885.524	22059
885.65	22051
885.775	21964
885.9	21918
886.025	22017
886.15	22036
886.275	21895
886.4	21892
886.525	21968
886.65	22036
886.775	21899
886.9	22207
887.025	22215
887.149	22013
887.274	21888
887.399	21895
887.523	21781
887.648	21728
887.773	21682
887.897	21907
888.021	21778
888.146	21743
888.27	21739
888.395	22090
888.519	21766
888.643	21766
888.767	21800
888.891	21774
889.015	21568
889.139	21580
889.263	21580
889.387	21831
889.511	21774
889.635	21812
889.759	21660
889.883	21519
890.006	21728
890.13	21633
890.254	21561
890.377	21393
890.501	21477
890.624	21332
890.748	21336
890.871	21272
890.995	21188
891.118	21119
891.241	21150
891.364	21272
891.488	21245
891.611	21161
891.734	21252
891.857	21211
891.98	21173
892.103	21218
892.226	21161
892.349	21142
892.471	20990
892.594	21150
892.717	21169
892.839	21051
892.962	21074
893.085	21081
893.207	21062
893.33	20925
893.452	20895
893.575	21077
893.697	20994
893.819	21066
893.941	21298
894.064	21081
894.186	20986
894.308	20971
894.43	21169
894.552	21123
894.674	21024
894.796	21096
894.918	20986
895.04	21058
895.161	21100
895.283	21116
895.405	20956
895.526	21036
895.648	21077
895.769	21051
895.891	21142
896.012	21093
896.134	21066
896.255	21081
896.376	20899
896.498	21074
896.619	21028
896.74	21058
896.861	21195
896.982	21393
897.103	21507
897.224	21344
897.345	21188
897.466	21169
897.587	21165
897.708	21363
897.828	21245
897.949	21150
898.07	21070
898.19	21150
898.311	21256
898.431	21180
898.552	21203
898.672	21264
898.792	21275
898.913	21176
899.033	21062
899.153	20967
899.273	20902
899.393	20971
899.513	21032
899.633	20975
899.753	20975
899.873	20899
899.993	20929
900.113	20941
900.232	21005
900.352	20792
900.472	20815
900.591	20590
900.711	20727
900.83	20594
900.95	20883
901.069	20746
901.189	20670
901.308	20381
901.427	20248
901.546	20237
901.665	20313
901.784	20282
901.904	20149
902.023	20092
902.141	19925
902.26	19917
902.379	19974
902.498	19818
902.617	19837
902.735	19727
902.854	19807
902.973	19685
903.091	19483
903.21	19590
903.328	19499
903.446	19445
903.565	19400
903.683	19354
903.801	19095
903.919	19164
904.038	19168
904.156	19110
904.274	19027
904.392	18996
904.51	18928
904.627	19107
904.745	18951
904.863	19046
904.981	18894
905.098	18779
905.216	18772
905.334	18665
905.451	18608
905.569	18639
905.686	18669
905.803	18673
905.921	18506
906.038	18589
906.155	18494
906.272	18281
906.389	18422
906.506	18182
906.623	18186
906.74	18190
906.857	18053
906.974	18102
907.091	18300
907.208	18216
907.324	18178
907.441	18102
907.557	17901
907.674	17935
907.79	17893
907.907	17916
908.023	17969
908.139	17954
908.256	17939
908.372	17870
908.488	17726
908.604	17714
908.72	17699
908.836	17611
908.952	17634
909.068	17695
909.184	17627
909.3	17642
909.415	17695
909.531	17707
909.647	17398
909.762	17322
909.878	17292
909.993	17223
910.108	17265
910.224	17235
910.339	17277
910.454	17311
910.57	17151
910.685	17075
910.8	17334
910.915	17292
911.03	17216
911.145	16984
911.259	16900
911.374	16961
911.489	16835
911.604	16759
911.718	16725
911.833	16691
911.947	16588
912.062	16485
912.176	16687
912.291	16774
912.405	16558
912.519	16835
912.633	16869
912.748	16641
912.862	16573
912.976	16516
913.09	16367
913.204	16402
913.318	16504
913.431	16615
913.545	16641
913.659	16546
913.772	16405
913.886	16226
914	16246
914.113	16382
914.226	16348
914.34	16344
914.453	16143
914.566	16344
914.68	16124
914.793	16090
914.906	15915
915.019	15766
915.132	15698
915.245	15865
915.358	15785
915.47	15804
915.583	15899
915.696	15724
915.809	15861
915.921	15979
916.034	15743
916.146	15675
916.259	15694
916.371	15812
916.483	15736
916.595	15694
916.708	15584
916.82	15644
916.932	15538
917.044	15488
917.156	15534
917.268	15466
917.38	15591
917.491	15519
917.603	15412
917.715	15568
917.826	15572
917.938	15405
918.049	15279
918.161	15389
918.272	15576
918.384	15507
918.495	15302
918.606	15226
918.717	15184
918.828	15245
918.939	15230
919.05	15184
919.161	15047
919.272	15017
919.383	15104
919.494	15279
919.604	15458
919.715	15207
919.826	15157
919.936	15195
920.047	15154
920.157	15180
920.267	15287
920.378	15165
920.488	15157
920.598	15370
920.708	15511
920.818	15283
920.928	15291
921.038	15477
921.148	15412
921.258	15093
921.368	15055
921.477	14853
921.587	14830
921.697	14686
921.806	14872
921.916	14758
922.025	14568
922.134	14537
922.244	14495
922.353	14606
922.462	14450
922.571	14366
922.68	14081
922.789	14145
922.898	14119
923.007	14103
923.116	14244
923.224	14176
923.333	14168
923.442	14024
923.55	13963
923.659	14103
923.767	14008
923.876	13997
923.984	13955
924.092	13864
924.201	13967
924.309	13849
924.417	13841
924.525	13841
924.633	13799
924.741	14807
924.849	13597
924.956	13746
925.064	13582
925.172	13556
925.279	13613
925.387	13586
925.494	13533
925.602	13647
925.709	13700
925.816	13441
925.924	13502
926.031	13540
926.138	13502
926.245	13601
926.352	13358
926.459	13457
926.566	13571
926.673	13422
926.779	13316
926.886	13247
926.993	13103
927.099	13061
927.206	13034
927.312	13065
927.419	13042
927.525	13065
927.631	13042
927.737	12932
927.843	12924
927.95	12867
928.056	12844
928.162	12882
928.267	12806
928.373	13556
928.479	12951
928.585	12665
928.69	12909
928.796	12848
928.901	12719
929.007	12574
929.112	12817
929.218	12722
929.323	12677
929.428	12601
929.533	12779
929.638	12513
929.743	12517
929.848	12566
929.953	12563
930.058	12509
930.163	12300
930.267	12342
930.372	12300
930.477	12216
930.581	12452
930.685	12277
930.79	12182
930.894	12110
930.998	12216
931.103	12292
931.207	11870
931.311	11783
931.415	11703
931.519	11444
931.623	11474
