Data from test_V78500241_2924.txt Node
Date: Fri Mar 25 16:02:03 CST 2022
User: usil
Spectrometer: V785-0024
Trigger mode: 0
Integration Time (sec): 4.000000E-1
Scans to average: 1
Nonlinearity correction enabled: false
Boxcar width: 0
Storing dark spectrum: false
XAxis mode: Wavelengths
Number of Pixels in Spectrum: 1024
>>>>>Begin Spectral Data<<<<<
801.071	28656
801.214	28809
801.356	28519
801.499	28493
801.641	28409
801.783	28379
801.926	28641
802.068	28447
802.211	28630
802.353	28436
802.496	28101
802.638	28200
802.78	28185
802.923	28105
803.065	28093
803.208	27994
803.35	28097
803.492	28382
803.635	28398
803.777	28261
803.919	28367
804.061	28755
804.204	28512
804.346	28360
804.488	28265
804.63	28485
804.773	28356
804.915	28417
805.057	28379
805.199	28272
805.341	28360
805.483	28687
805.626	28436
805.768	28489
805.91	28462
806.052	28656
806.194	28417
806.336	28828
806.478	28538
806.62	28630
806.762	28831
806.904	28892
807.046	29124
807.188	29044
807.33	29159
807.472	29067
807.614	28869
807.756	28976
807.898	28748
808.04	28805
808.182	28820
808.324	28968
808.465	29029
808.607	29071
808.749	29261
808.891	29402
809.033	29417
809.174	29368
809.316	29292
809.458	29296
809.6	29124
809.741	29395
809.883	29414
810.025	29581
810.166	29566
810.308	29589
810.45	29455
810.591	29524
810.733	29318
810.875	29391
811.016	29132
811.158	29273
811.299	29398
811.441	29497
811.582	29455
811.724	29246
811.865	29246
812.007	29387
812.148	29292
812.29	29277
812.431	29474
812.573	29566
812.714	29714
812.855	29767
812.997	29908
813.138	30167
813.279	30087
813.421	29908
813.562	29608
813.703	29611
813.845	29585
813.986	29200
814.127	29083
814.268	28930
814.41	29235
814.551	28812
814.692	29109
814.833	28915
814.974	29029
815.115	28980
815.256	28839
815.397	28858
815.539	28949
815.68	28869
815.821	28843
815.962	28771
816.103	28831
816.244	28786
816.385	28717
816.526	28584
816.666	28485
816.807	28303
816.948	28413
817.089	28329
817.23	28295
817.371	28310
817.512	28394
817.653	28386
817.793	28303
817.934	28470
818.075	28455
818.216	28413
818.356	28215
818.497	28177
818.638	28181
818.778	28082
818.919	28086
819.06	28185
819.2	28261
819.341	28356
819.481	28344
819.622	28451
819.762	28554
819.903	28634
820.043	28466
820.184	28440
820.324	28413
820.465	28596
820.605	28519
820.746	28398
820.886	28398
821.026	28348
821.167	28428
821.307	28367
821.447	28306
821.588	28367
821.728	28162
821.868	28013
822.008	27705
822.149	27751
822.289	27698
822.429	27466
822.569	27420
822.709	27583
822.849	27222
822.99	27279
823.13	27252
823.27	27408
823.41	27112
823.55	27001
823.69	27233
823.83	27138
823.97	27013
824.11	26910
824.25	26902
824.389	26838
824.529	26902
824.669	27020
824.809	27165
824.949	27131
825.089	27066
825.228	27066
825.368	26777
825.508	26929
825.648	26815
825.787	26986
825.927	26921
826.067	26731
826.206	26804
826.346	26956
826.485	26982
826.625	26735
826.765	26940
826.904	26842
827.044	26625
827.183	26648
827.323	26549
827.462	26746
827.601	26556
827.741	26541
827.88	26758
828.02	26404
828.159	26526
828.298	26507
828.437	26568
828.577	26434
828.716	26606
828.855	26438
828.994	26183
829.134	26320
829.273	26122
829.412	26233
829.551	26263
829.69	26069
829.829	26305
829.968	26324
830.107	26282
830.246	26244
830.385	26199
830.524	26305
830.663	26180
830.802	25868
830.941	25883
831.08	25780
831.219	25940
831.357	25788
831.496	26084
831.635	25791
831.774	25753
831.913	25753
832.051	25662
832.19	25655
832.329	25594
832.467	25453
832.606	25525
832.744	25521
832.883	25559
833.022	25544
833.16	25628
833.299	25632
833.437	25601
833.576	25635
833.714	25525
833.852	25601
833.991	25647
834.129	25708
834.267	25727
834.406	25609
834.544	25712
834.682	25635
834.821	25495
834.959	25913
835.097	25537
835.235	25567
835.373	25578
835.511	25712
835.65	25468
835.788	25369
835.926	25293
836.064	25206
836.202	25240
836.34	25479
836.478	25567
836.615	25479
836.753	25514
836.891	25422
837.029	25369
837.167	25289
837.305	25289
837.443	25335
837.58	25152
837.718	25301
837.856	25354
837.993	25095
838.131	25221
838.269	25088
838.406	25160
838.544	25095
838.681	24886
838.819	24897
838.956	24681
839.094	24612
839.231	24711
839.369	24954
839.506	25065
839.643	24939
839.781	24738
839.918	24673
840.055	24738
840.193	24703
840.33	24521
840.467	24574
840.604	24661
840.742	24985
840.879	24429
841.016	24483
841.153	24471
841.29	24696
841.427	24582
841.564	24627
841.701	24536
841.838	24570
841.975	24441
842.112	24517
842.249	24422
842.385	24361
842.522	24601
842.659	24391
842.796	24216
842.933	24395
843.069	24369
843.206	24247
843.343	24327
843.479	24346
843.616	24285
843.752	24205
843.889	24205
844.025	24235
844.162	24224
844.298	24338
844.435	24133
844.571	24015
844.708	24296
844.844	24125
844.98	24323
845.117	24262
845.253	24079
845.389	24057
845.525	24030
845.661	24018
845.798	23843
845.934	23988
846.07	23798
846.206	23920
846.342	23851
846.478	23855
846.614	23703
846.75	23455
846.886	23535
847.022	23600
847.158	23551
847.294	23562
847.429	23699
847.565	23509
847.701	23657
847.837	23341
847.972	23280
848.108	23490
848.244	23364
848.379	23326
848.515	23079
848.65	23178
848.786	23277
848.921	23128
849.057	23425
849.192	23128
849.328	23143
849.463	23231
849.598	23117
849.734	23052
849.869	23048
850.004	22942
850.14	22980
850.275	22942
850.41	22984
850.545	22908
850.68	22862
850.815	23010
850.95	23022
851.085	23128
851.22	23083
851.355	22885
851.49	22942
851.625	23018
851.76	22942
851.895	22877
852.03	22831
852.165	22877
852.299	22904
852.434	23079
852.569	22942
852.703	22984
852.838	22949
852.973	23086
853.107	22831
853.242	22900
853.376	22881
853.511	22630
853.645	22790
853.78	22919
853.914	22744
854.048	22710
854.183	22767
854.317	22702
854.451	22877
854.585	22752
854.72	22805
854.854	22850
854.988	22771
855.122	22645
855.256	22603
855.39	22706
855.524	22896
855.658	22805
855.792	22710
855.926	22805
856.06	22786
856.194	22858
856.327	22710
856.461	22721
856.595	22664
856.729	22691
856.862	22790
856.996	22797
857.13	22797
857.263	22919
857.397	22839
857.53	22904
857.664	22771
857.797	22809
857.931	22949
858.064	22877
858.197	22877
858.331	22736
858.464	22744
858.597	22713
858.731	22820
858.864	22729
858.997	22847
859.13	22835
859.263	22744
859.396	22816
859.529	22831
859.662	22622
859.795	22698
859.928	22843
860.061	23010
860.194	22961
860.327	22801
860.46	22809
860.592	22911
860.725	22824
860.858	22873
860.99	22778
861.123	22767
861.256	22713
861.388	22740
861.521	23509
861.653	22577
861.786	22687
861.918	22615
862.05	22668
862.183	22687
862.315	22668
862.447	22713
862.58	22649
862.712	22557
862.844	22447
862.976	22599
863.108	22550
863.24	22965
863.372	22485
863.504	22516
863.636	22432
863.768	22421
863.9	22459
864.032	22375
864.164	22432
864.296	22447
864.428	22584
864.559	22649
864.691	22432
864.823	22489
864.954	22436
865.086	22375
865.217	22424
865.349	22440
865.48	22405
865.612	22306
865.743	22481
865.875	22451
866.006	22382
866.137	22295
866.269	22382
866.4	22352
866.531	22257
866.662	22150
866.793	22276
866.924	22215
867.055	22344
867.186	22276
867.317	22291
867.448	22105
867.579	22162
867.71	22242
867.841	22234
867.972	22291
868.103	22291
868.233	22405
868.364	22276
868.495	22386
868.625	22481
868.756	22557
868.886	22398
869.017	22474
869.147	22577
869.278	22474
869.408	22478
869.539	22569
869.669	22588
869.799	22622
869.929	22790
870.06	22584
870.19	22797
870.32	22866
870.45	22843
870.58	22873
870.71	22991
870.84	23029
870.97	22831
871.1	22862
871.23	23132
871.36	23064
871.489	23029
871.619	23143
871.749	23147
871.879	23086
872.008	23128
872.138	23098
872.267	23029
872.397	23041
872.526	23014
872.656	22934
872.785	23071
872.915	23178
873.044	23265
873.173	23098
873.303	23132
873.432	23250
873.561	23242
873.69	23128
873.819	23071
873.948	23113
874.077	23239
874.206	23140
874.335	23242
874.464	23220
874.593	23395
874.722	23261
874.851	23356
874.979	23345
875.108	23425
875.237	23345
875.365	23318
875.494	23250
875.623	23284
875.751	23318
875.88	23391
876.008	23417
876.136	23398
876.265	23821
876.393	23779
876.521	23790
876.65	23748
876.778	23691
876.906	23710
877.034	23672
877.162	23775
877.29	23699
877.418	23634
877.546	23756
877.674	23596
877.802	23558
877.93	23630
878.058	23733
878.185	23600
878.313	23627
878.441	23592
878.568	23566
878.696	23668
878.824	23623
878.951	23737
879.079	23729
879.206	23882
879.333	23805
879.461	23657
879.588	23745
879.715	23809
879.842	23954
879.97	23790
880.097	23554
880.224	23539
880.351	23493
880.478	23520
880.605	23406
880.732	23398
880.859	23672
880.986	23421
881.112	23429
881.239	23395
881.366	23189
881.493	23166
881.619	23235
881.746	23041
881.872	23109
881.999	23044
882.125	22987
882.252	23094
882.378	23064
882.505	23124
882.631	22900
882.757	22793
882.883	22759
883.01	22778
883.136	22622
883.262	22561
883.388	22542
883.514	22740
883.64	22710
883.766	22607
883.892	22565
884.018	22531
884.143	22710
884.269	22771
884.395	22527
884.52	22303
884.646	22329
884.772	22310
884.897	22200
885.023	22341
885.148	22557
885.274	22561
885.399	22512
885.524	22318
885.65	22443
885.775	22531
885.9	22371
886.025	22493
886.15	22421
886.275	22352
886.4	22318
886.525	22261
886.65	22246
886.775	22226
886.9	22405
887.025	22417
887.149	22436
887.274	22185
887.399	22135
887.523	22166
887.648	22055
887.773	21994
887.897	22082
888.021	22154
888.146	22002
888.27	22238
888.395	22162
888.519	22093
888.643	22166
888.767	22055
888.891	21994
889.015	21880
889.139	21956
889.263	21903
889.387	21972
889.511	22051
889.635	22059
889.759	21789
889.883	21819
890.006	22010
890.13	21922
890.254	21873
890.377	21869
890.501	21713
890.624	21504
890.748	21743
890.871	21492
890.995	21492
891.118	21439
891.241	21477
891.364	21405
891.488	21462
891.611	21530
891.734	21496
891.857	21462
891.98	21454
892.103	21462
892.226	21378
892.349	21313
892.471	21180
892.594	21367
892.717	21291
892.839	21283
892.962	21317
893.085	21488
893.207	21302
893.33	21294
893.452	21233
893.575	21435
893.697	21389
893.819	21507
893.941	21534
894.064	21405
894.186	21302
894.308	21116
894.43	21405
894.552	21545
894.674	21272
894.796	21260
894.918	21332
895.04	21256
895.161	21408
895.283	21272
895.405	21214
895.526	21260
895.648	21332
895.769	21302
895.891	21344
896.012	21336
896.134	21306
896.255	21344
896.376	21302
896.498	21340
896.619	21386
896.74	21207
896.861	21344
896.982	21614
897.103	21591
897.224	21572
897.345	21515
897.466	21389
897.587	21401
897.708	21778
897.828	21637
897.949	21393
898.07	21420
898.19	21454
898.311	21591
898.431	21428
898.552	21485
898.672	21488
898.792	21500
898.913	21428
899.033	21355
899.153	21260
899.273	21230
899.393	21169
899.513	21348
899.633	21169
899.753	21291
899.873	21195
899.993	21287
900.113	21325
900.232	21116
900.352	21135
900.472	21055
900.591	20899
900.711	21024
900.83	20925
900.95	21055
901.069	21096
901.189	20895
901.308	20693
901.427	20511
901.546	20537
901.665	20590
901.784	20689
901.904	20415
902.023	20290
902.141	20142
902.26	20008
902.379	20176
902.498	20027
902.617	20050
902.735	20081
902.854	19997
902.973	19936
903.091	19772
903.21	19666
903.328	19761
903.446	19643
903.565	19597
903.683	19666
903.801	19392
903.919	19559
904.038	19282
904.156	19217
904.274	19373
904.392	19263
904.51	19312
904.627	19114
904.745	19304
904.863	19430
904.981	18966
905.098	18947
905.216	18947
905.334	19091
905.451	19019
905.569	18863
905.686	18932
905.803	18943
905.921	18734
906.038	18890
906.155	18715
906.272	18669
906.389	18646
906.506	18407
906.623	18426
906.74	18403
906.857	18407
906.974	18399
907.091	18437
907.208	18536
907.324	18384
907.441	18315
907.557	18239
907.674	18163
907.79	18129
907.907	18262
908.023	18186
908.139	18129
908.256	18049
908.372	18117
908.488	18079
908.604	17935
908.72	17923
908.836	17870
908.952	17893
909.068	17916
909.184	18022
909.3	17923
909.415	17798
909.531	17882
909.647	17577
909.762	17573
909.878	17520
909.993	17566
910.108	17619
910.224	17417
910.339	17558
910.454	17463
910.57	17440
910.685	17288
910.8	17539
910.915	17501
911.03	17455
911.145	17128
911.259	17197
911.374	17147
911.489	17079
911.604	17014
911.718	16908
911.833	16858
911.947	16862
912.062	16653
912.176	16752
912.291	16873
912.405	16824
912.519	17071
912.633	16995
912.748	16892
912.862	16843
912.976	16664
913.09	16611
913.204	16599
913.318	16668
913.431	16812
913.545	16736
913.659	16904
913.772	16713
913.886	16550
914	16451
914.113	16497
914.226	16561
914.34	16478
914.453	16428
914.566	16565
914.68	16409
914.793	16386
914.906	16150
915.019	16055
915.132	15975
915.245	15987
915.358	16147
915.47	16013
915.583	16116
915.696	16067
915.809	16204
915.921	16242
916.034	16032
916.146	15956
916.259	15911
916.371	16025
916.483	15960
916.595	15937
916.708	15941
916.82	15850
916.932	15789
917.044	15831
917.156	15793
917.268	15648
917.38	15701
917.491	15591
917.603	15679
917.715	15743
917.826	15701
917.938	15698
918.049	15469
918.161	15603
918.272	15682
918.384	15728
918.495	15603
918.606	15435
918.717	15351
918.828	15382
918.939	15382
919.05	15348
919.161	15405
919.272	15245
919.383	15268
919.494	15408
919.604	15542
919.715	15469
919.826	15283
919.936	15397
920.047	15367
920.157	15310
920.267	15652
920.378	15408
920.488	15313
920.598	15584
920.708	15591
920.818	15591
920.928	15435
921.038	15587
921.148	15595
921.258	15310
921.368	15317
921.477	15127
921.587	15028
921.697	14929
921.806	15036
921.916	14921
922.025	14819
922.134	14785
922.244	14670
922.353	14689
922.462	14613
922.571	14503
922.68	14396
922.789	14408
922.898	14294
923.007	14233
923.116	14377
923.224	14309
923.333	14309
923.442	14233
923.55	14134
923.659	14183
923.767	14256
923.876	14103
923.984	14115
924.092	14024
924.201	14054
924.309	14077
924.417	14058
924.525	14069
924.633	14012
924.741	14872
924.849	13761
924.956	13906
925.064	13731
925.172	13727
925.279	13761
925.387	13666
925.494	13704
925.602	13890
925.709	13712
925.816	13594
925.924	13674
926.031	13803
926.138	13639
926.245	13620
926.352	13556
926.459	13704
926.566	13651
926.673	13514
926.779	13403
926.886	13396
926.993	13312
927.099	13255
927.206	13225
927.312	13297
927.419	13308
927.525	13217
927.631	13289
927.737	13114
927.843	13034
927.95	13008
928.056	13042
928.162	13107
928.267	13061
928.373	13677
928.479	13103
928.585	12913
928.69	13000
928.796	13057
928.901	12901
929.007	12795
929.112	12943
929.218	12821
929.323	12856
929.428	12810
929.533	12878
929.638	12601
929.743	12703
929.848	12700
929.953	12696
930.058	12631
930.163	12528
930.267	12475
930.372	12494
930.477	12369
930.581	12669
930.685	12517
930.79	12292
930.894	12308
930.998	12285
931.103	12399
931.207	12034
931.311	11965
931.415	11798
931.519	11623
931.623	11634
