Data from test_V78500241_1193.txt Node
Date: Fri Mar 25 15:50:03 CST 2022
User: usil
Spectrometer: V785-0024
Trigger mode: 0
Integration Time (sec): 4.000000E-1
Scans to average: 1
Nonlinearity correction enabled: false
Boxcar width: 0
Storing dark spectrum: false
XAxis mode: Wavelengths
Number of Pixels in Spectrum: 1024
>>>>>Begin Spectral Data<<<<<
801.071	28725
801.214	28599
801.356	28348
801.499	28314
801.641	28109
801.783	28280
801.926	28223
802.068	28147
802.211	28295
802.353	28032
802.496	27941
802.638	27884
802.78	27907
802.923	27842
803.065	27819
803.208	27831
803.35	27914
803.492	28010
803.635	28116
803.777	27960
803.919	28090
804.061	28470
804.204	28211
804.346	28040
804.488	28169
804.63	28124
804.773	28105
804.915	28192
805.057	28375
805.199	27956
805.341	28398
805.483	28280
805.626	28177
805.768	28109
805.91	28303
806.052	28211
806.194	28238
806.336	28592
806.478	28363
806.62	28177
806.762	28405
806.904	28542
807.046	28919
807.188	28801
807.33	28850
807.472	28850
807.614	28569
807.756	28801
807.898	28668
808.04	28554
808.182	28565
808.324	28691
808.465	28664
808.607	28847
808.749	28968
808.891	29044
809.033	29083
809.174	29105
809.316	28896
809.458	29006
809.6	28892
809.741	29132
809.883	29132
810.025	29421
810.166	29372
810.308	29277
810.45	29197
810.591	29155
810.733	29075
810.875	29006
811.016	28885
811.158	28949
811.299	29079
811.441	29143
811.582	29170
811.724	29117
811.865	29064
812.007	29105
812.148	28995
812.29	29052
812.431	29056
812.573	29277
812.714	29467
812.855	29535
812.997	29604
813.138	29714
813.279	29729
813.421	29471
813.562	29452
813.703	29292
813.845	29299
813.986	28946
814.127	28702
814.268	28736
814.41	28778
814.551	28790
814.692	28755
814.833	28744
814.974	28759
815.115	28812
815.256	28580
815.397	28584
815.539	28550
815.68	28584
815.821	28371
815.962	28466
816.103	28569
816.244	28367
816.385	28390
816.526	28280
816.666	28154
816.807	28082
816.948	28135
817.089	28166
817.23	27968
817.371	28124
817.512	27998
817.653	28067
817.793	28078
817.934	27930
818.075	27914
818.216	28044
818.356	27968
818.497	27922
818.638	27812
818.778	27751
818.919	27759
819.06	27854
819.2	27949
819.341	28044
819.481	27903
819.622	28223
819.762	28291
819.903	28280
820.043	28257
820.184	28226
820.324	28078
820.465	28185
820.605	28128
820.746	28131
820.886	28097
821.026	28002
821.167	28101
821.307	28192
821.447	28082
821.588	27979
821.728	27930
821.868	27583
822.008	27466
822.149	27412
822.289	27454
822.429	27093
822.569	27096
822.709	27028
822.849	27192
822.99	27096
823.13	26937
823.27	27028
823.41	26830
823.55	26769
823.69	26937
823.83	26777
823.97	26682
824.11	26743
824.25	26674
824.389	26758
824.529	26739
824.669	26705
824.809	26746
824.949	26701
825.089	26682
825.228	26720
825.368	26522
825.508	26408
825.648	26659
825.787	26678
825.927	26636
826.067	26511
826.206	26629
826.346	26495
826.485	26545
826.625	26636
826.765	26689
826.904	26564
827.044	26389
827.183	26309
827.323	26263
827.462	26393
827.601	26446
827.741	26240
827.88	26229
828.02	26164
828.159	26286
828.298	26313
828.437	26328
828.577	26157
828.716	26442
828.855	26195
828.994	25928
829.134	25902
829.273	26065
829.412	25940
829.551	25841
829.69	25928
829.829	26164
829.968	26054
830.107	26024
830.246	25944
830.385	25947
830.524	25898
830.663	25685
830.802	25647
830.941	25445
831.08	25529
831.219	25578
831.357	25681
831.496	25875
831.635	25537
831.774	25544
831.913	25426
832.051	25293
832.19	25308
832.329	25506
832.467	25426
832.606	25213
832.744	25232
832.883	25209
833.022	25293
833.16	25263
833.299	25251
833.437	25088
833.576	25266
833.714	25221
833.852	25362
833.991	25331
834.129	25407
834.267	25354
834.406	25362
834.544	25400
834.682	25411
834.821	25365
834.959	25236
835.097	25209
835.235	25358
835.373	25274
835.511	25301
835.65	25236
835.788	25129
835.926	25046
836.064	24966
836.202	25000
836.34	25103
836.478	25232
836.615	25004
836.753	25213
836.891	25171
837.029	25004
837.167	25091
837.305	25122
837.443	24996
837.58	24954
837.718	24985
837.856	24939
837.993	24802
838.131	24932
838.269	24806
838.406	24951
838.544	24673
838.681	24608
838.819	24528
838.956	24342
839.094	24528
839.231	24372
839.369	24654
839.506	24837
839.643	24722
839.781	24376
839.918	24384
840.055	24369
840.193	24327
840.33	24361
840.467	24384
840.604	24426
840.742	24654
840.879	24152
841.016	24213
841.153	24258
841.29	24350
841.427	24407
841.564	24467
841.701	24273
841.838	24308
841.975	24186
842.112	24319
842.249	24076
842.385	24076
842.522	24296
842.659	24171
842.796	24018
842.933	23988
843.069	24003
843.206	24114
843.343	24053
843.479	24152
843.616	23992
843.752	23870
843.889	23866
844.025	24087
844.162	23817
844.298	23988
844.435	23859
844.571	23798
844.708	23870
844.844	23969
844.98	24045
845.117	24011
845.253	23897
845.389	23847
845.525	23760
845.661	23783
845.798	23585
845.934	23608
846.07	23520
846.206	23657
846.342	23703
846.478	23512
846.614	23429
846.75	23299
846.886	23299
847.022	23433
847.158	23425
847.294	23250
847.429	23356
847.565	23189
847.701	23497
847.837	22984
847.972	23052
848.108	23079
848.244	23155
848.379	22927
848.515	22752
848.65	22866
848.786	22991
848.921	22873
849.057	22980
849.192	22942
849.328	22991
849.463	22816
849.598	22843
849.734	22790
849.869	22744
850.004	22778
850.14	22698
850.275	22687
850.41	22550
850.545	22557
850.68	22656
850.815	22694
850.95	22645
851.085	22850
851.22	22820
851.355	22508
851.49	22706
851.625	22603
851.76	22569
851.895	22550
852.03	22565
852.165	22755
852.299	22672
852.434	22858
852.569	22710
852.703	22748
852.838	22740
852.973	22744
853.107	22752
853.242	22584
853.376	22474
853.511	22402
853.645	22546
853.78	22653
853.914	22493
854.048	22352
854.183	22325
854.317	22508
854.451	22668
854.585	22622
854.72	22402
854.854	22561
854.988	22497
855.122	22561
855.256	22398
855.39	22447
855.524	22588
855.658	22474
855.792	22470
855.926	22478
856.06	22485
856.194	22656
856.327	22557
856.461	22394
856.595	22428
856.729	22561
856.862	22664
856.996	22580
857.13	22668
857.263	22622
857.397	22622
857.53	22451
857.664	22569
857.797	22573
857.931	22634
858.064	22516
858.197	22577
858.331	22557
858.464	22382
858.597	22405
858.731	22432
858.864	22421
858.997	22417
859.13	22569
859.263	22542
859.396	22569
859.529	22535
859.662	22519
859.795	22382
859.928	22535
860.061	22611
860.194	22599
860.327	22679
860.46	22474
860.592	22577
860.725	22577
860.858	22603
860.99	22432
861.123	22375
861.256	22508
861.388	22447
861.521	23162
861.653	22223
861.786	22303
861.918	22303
862.05	22402
862.183	22466
862.315	22447
862.447	22538
862.58	22322
862.712	22169
862.844	22154
862.976	22272
863.108	22348
863.24	22622
863.372	22223
863.504	22135
863.636	22059
863.768	22196
863.9	22246
864.032	22166
864.164	22200
864.296	22185
864.428	22314
864.559	22303
864.691	22299
864.823	22154
864.954	22101
865.086	22109
865.217	22116
865.349	21964
865.48	22063
865.612	22082
865.743	22215
865.875	22162
866.006	22162
866.137	22086
866.269	22063
866.4	22006
866.531	22074
866.662	21998
866.793	22135
866.924	22078
867.055	22017
867.186	22078
867.317	22010
867.448	21823
867.579	21945
867.71	21888
867.841	21899
867.972	21930
868.103	21968
868.233	22063
868.364	21899
868.495	22112
868.625	22128
868.756	22329
868.886	22242
869.017	22116
869.147	22207
869.278	22265
869.408	22188
869.539	22261
869.669	22329
869.799	22219
869.929	22405
870.06	22424
870.19	22497
870.32	22424
870.45	22660
870.58	22713
870.71	22843
870.84	22687
870.97	22493
871.1	22592
871.23	22809
871.36	22904
871.489	22755
871.619	22706
871.749	22820
871.879	22862
872.008	22873
872.138	22847
872.267	22866
872.397	22622
872.526	22763
872.656	22687
872.785	22729
872.915	22812
873.044	22866
873.173	22946
873.303	22885
873.432	22820
873.561	23044
873.69	22854
873.819	22949
873.948	22934
874.077	22900
874.206	22771
874.335	22820
874.464	22957
874.593	23109
874.722	22999
874.851	23124
874.979	23098
875.108	23235
875.237	23140
875.365	23018
875.494	23067
875.623	23239
875.751	23083
875.88	23060
876.008	23159
876.136	23231
876.265	23353
876.393	23524
876.521	23436
876.65	23570
876.778	23440
876.906	23448
877.034	23486
877.162	23490
877.29	23284
877.418	23277
877.546	23345
877.674	23410
877.802	23296
877.93	23387
878.058	23368
878.185	23311
878.313	23345
878.441	23395
878.568	23170
878.696	23368
878.824	23433
878.951	23528
879.079	23638
879.206	23657
879.333	23611
879.461	23512
879.588	23505
879.715	23596
879.842	23619
879.97	23520
880.097	23223
880.224	23379
880.351	23277
880.478	23136
880.605	23102
880.732	23292
880.859	23490
880.986	23181
881.112	23193
881.239	22976
881.366	22999
881.493	23029
881.619	22717
881.746	22774
881.872	22698
881.999	22729
882.125	22713
882.252	22698
882.378	22725
882.505	22968
882.631	22782
882.757	22504
882.883	22634
883.01	22459
883.136	22390
883.262	22337
883.388	22280
883.514	22447
883.64	22542
883.766	22318
883.892	22162
884.018	22211
884.143	22375
884.269	22382
884.395	22150
884.52	22048
884.646	22059
884.772	22063
884.897	21934
885.023	22128
885.148	22280
885.274	22192
885.399	22166
885.524	22090
885.65	22204
885.775	21983
885.9	22044
886.025	22154
886.15	22169
886.275	22055
886.4	21979
886.525	21964
886.65	21979
886.775	21895
886.9	22147
887.025	22303
887.149	22124
887.274	21888
887.399	21880
887.523	21808
887.648	21770
887.773	21732
887.897	22002
888.021	21808
888.146	21747
888.27	21876
888.395	21926
888.519	21812
888.643	21903
888.767	21827
888.891	21823
889.015	21701
889.139	21793
889.263	21656
889.387	21778
889.511	21835
889.635	21713
889.759	21603
889.883	21595
890.006	21622
890.13	21747
890.254	21583
890.377	21553
890.501	21374
890.624	21348
890.748	21302
890.871	21260
890.995	21279
891.118	21214
891.241	21180
891.364	21245
891.488	21294
891.611	21268
891.734	21176
891.857	21169
891.98	21252
892.103	21233
892.226	21184
892.349	21195
892.471	21028
892.594	21199
892.717	21058
892.839	21032
892.962	21043
893.085	21195
893.207	21020
893.33	21020
893.452	21001
893.575	21100
893.697	20956
893.819	21302
893.941	21249
894.064	21218
894.186	20956
894.308	21028
894.43	21081
894.552	21169
894.674	21150
894.796	20952
894.918	21123
895.04	21001
895.161	21089
895.283	21024
895.405	21085
895.526	21032
895.648	21089
895.769	21074
895.891	20960
896.012	21077
896.134	21108
896.255	20998
896.376	21066
896.498	20872
896.619	21146
896.74	20963
896.861	21165
896.982	21348
897.103	21458
897.224	21275
897.345	21249
897.466	21249
897.587	21283
897.708	21435
897.828	21317
897.949	21218
898.07	21096
898.19	21157
898.311	21382
898.431	21173
898.552	21279
898.672	21279
898.792	21389
898.913	21241
899.033	21089
899.153	20979
899.273	20921
899.393	21074
899.513	21051
899.633	20960
899.753	21013
899.873	20963
899.993	21039
900.113	20849
900.232	21013
900.352	20902
900.472	20750
900.591	20746
900.711	20739
900.83	20659
900.95	20925
901.069	20853
901.189	20526
901.308	20412
901.427	20282
901.546	20275
901.665	20351
901.784	20301
901.904	20084
902.023	20050
902.141	19890
902.26	19871
902.379	19967
902.498	19902
902.617	19742
902.735	19811
902.854	19761
902.973	19723
903.091	19556
903.21	19324
903.328	19468
903.446	19422
903.565	19247
903.683	19247
903.801	19225
903.919	19304
904.038	19183
904.156	19046
904.274	19072
904.392	19038
904.51	19065
904.627	19091
904.745	19008
904.863	19050
904.981	18817
905.098	18745
905.216	18681
905.334	18741
905.451	18700
905.569	18665
905.686	18711
905.803	18692
905.921	18555
906.038	18593
906.155	18639
906.272	18346
906.389	18369
906.506	18384
906.623	18296
906.74	18228
906.857	18144
906.974	18178
907.091	18258
907.208	18304
907.324	18258
907.441	18209
907.557	18064
907.674	17942
907.79	17756
907.907	17931
908.023	17965
908.139	18019
908.256	17901
908.372	17863
908.488	17786
908.604	17642
908.72	17573
908.836	17691
908.952	17672
909.068	17646
909.184	17748
909.3	17684
909.415	17649
909.531	17566
909.647	17337
909.762	17410
909.878	17292
909.993	17326
910.108	17265
910.224	17254
910.339	17311
910.454	17178
910.57	17231
910.685	17098
910.8	17364
910.915	17273
911.03	17090
911.145	17037
911.259	16869
911.374	16934
911.489	16801
911.604	16828
911.718	16675
911.833	16778
911.947	16546
912.062	16577
912.176	16744
912.291	16675
912.405	16645
912.519	16866
912.633	16831
912.748	16664
912.862	16565
912.976	16573
913.09	16371
913.204	16333
913.318	16428
913.431	16485
913.545	16489
913.659	16637
913.772	16535
913.886	16360
914	16276
914.113	16413
914.226	16390
914.34	16287
914.453	16101
914.566	16295
914.68	16207
914.793	16131
914.906	15991
915.019	15907
915.132	15869
915.245	15800
915.358	15892
915.47	15857
915.583	15835
915.696	15838
915.809	15926
915.921	15991
916.034	15804
916.146	15785
916.259	15781
916.371	15903
916.483	15717
916.595	15720
916.708	15641
916.82	15557
916.932	15599
917.044	15614
917.156	15542
917.268	15443
917.38	15500
917.491	15431
917.603	15545
917.715	15439
917.826	15500
917.938	15523
918.049	15294
918.161	15378
918.272	15511
918.384	15561
918.495	15355
918.606	15287
918.717	15173
918.828	15195
918.939	15226
919.05	15116
919.161	15233
919.272	14990
919.383	15013
919.494	15207
919.604	15329
919.715	15146
919.826	15127
919.936	15142
920.047	15298
920.157	15116
920.267	15298
920.378	15108
920.488	15138
920.598	15359
920.708	15458
920.818	15294
920.928	15211
921.038	15382
921.148	15325
921.258	15184
921.368	15013
921.477	14982
921.587	14880
921.697	14739
921.806	14849
921.916	14682
922.025	14617
922.134	14476
922.244	14533
922.353	14511
922.462	14400
922.571	14370
922.68	14142
922.789	14164
922.898	14084
923.007	14172
923.116	14229
923.224	14115
923.333	14172
923.442	13963
923.55	13959
923.659	14077
923.767	13997
923.876	13947
923.984	14039
924.092	13852
924.201	13887
924.309	13860
924.417	13871
924.525	13841
924.633	13784
924.741	14533
924.849	13594
924.956	13670
925.064	13636
925.172	13502
925.279	13521
925.387	13571
925.494	13639
925.602	13628
925.709	13567
925.816	13487
925.924	13392
926.031	13571
926.138	13434
926.245	13491
926.352	13343
926.459	13605
926.566	13460
926.673	13438
926.779	13255
926.886	13297
926.993	13171
927.099	13099
927.206	13091
927.312	13038
927.419	13046
927.525	13076
927.631	13122
927.737	13050
927.843	12840
927.95	12863
928.056	12951
928.162	12833
928.267	12897
928.373	13468
928.479	12905
928.585	12749
928.69	12768
928.796	12867
928.901	12665
929.007	12559
929.112	12776
929.218	12662
929.323	12681
929.428	12547
929.533	12795
929.638	12521
929.743	12585
929.848	12627
929.953	12471
930.058	12521
930.163	12357
930.267	12251
930.372	12403
930.477	12213
930.581	12441
930.685	12251
930.79	12091
930.894	12235
930.998	12163
931.103	12338
931.207	11920
931.311	11809
931.415	11752
931.519	11535
931.623	11497
