Data from test_V78500241_120.txt Node
Date: Fri Mar 25 15:42:38 CST 2022
User: usil
Spectrometer: V785-0024
Trigger mode: 0
Integration Time (sec): 4.000000E-1
Scans to average: 1
Nonlinearity correction enabled: false
Boxcar width: 0
Storing dark spectrum: false
XAxis mode: Wavelengths
Number of Pixels in Spectrum: 1024
>>>>>Begin Spectral Data<<<<<
801.071	30205
801.214	30030
801.356	29802
801.499	29596
801.641	29551
801.783	29623
801.926	29718
802.068	29600
802.211	29535
802.353	29558
802.496	29254
802.638	29181
802.78	29109
802.923	29140
803.065	29064
803.208	29296
803.35	29261
803.492	29379
803.635	29269
803.777	29337
803.919	29547
804.061	29729
804.204	29375
804.346	29242
804.488	29261
804.63	29353
804.773	29417
804.915	29375
805.057	29558
805.199	29356
805.341	29471
805.483	29474
805.626	29551
805.768	29364
805.91	29501
806.052	29619
806.194	29429
806.336	29604
806.478	29570
806.62	29356
806.762	29509
806.904	29653
807.046	30015
807.188	29733
807.33	29840
807.472	29767
807.614	29824
807.756	29893
807.898	29657
808.04	29737
808.182	29600
808.324	29718
808.465	29623
808.607	29958
808.749	29916
808.891	30049
809.033	30163
809.174	29980
809.316	29999
809.458	29950
809.6	29832
809.741	30053
809.883	30201
810.025	30220
810.166	30106
810.308	30395
810.45	30296
810.591	30247
810.733	29965
810.875	29931
811.016	29786
811.158	29672
811.299	30045
811.441	30182
811.582	30167
811.724	29920
811.865	29965
812.007	29996
812.148	29999
812.29	30076
812.431	30041
812.573	30262
812.714	30327
812.855	30426
812.997	30563
813.138	30597
813.279	30441
813.421	30395
813.562	30433
813.703	30190
813.845	30076
813.986	29805
814.127	29642
814.268	29570
814.41	29760
814.551	29547
814.692	29680
814.833	29604
814.974	29558
815.115	29642
815.256	29337
815.397	29341
815.539	29429
815.68	29292
815.821	29353
815.962	29254
816.103	29284
816.244	29220
816.385	29064
816.526	29155
816.666	28675
816.807	28729
816.948	28793
817.089	28691
817.23	28694
817.371	28672
817.512	28588
817.653	28691
817.793	28603
817.934	28611
818.075	28573
818.216	28660
818.356	28645
818.497	28470
818.638	28325
818.778	28398
818.919	28367
819.06	28337
819.2	28584
819.341	28569
819.481	28596
819.622	28634
819.762	28946
819.903	28816
820.043	28717
820.184	28668
820.324	28653
820.465	28752
820.605	28626
820.746	28664
820.886	28607
821.026	28675
821.167	28531
821.307	28698
821.447	28535
821.588	28577
821.728	28409
821.868	28303
822.008	28002
822.149	28097
822.289	27892
822.429	27766
822.569	27739
822.709	27736
822.849	27553
822.99	27443
823.13	27473
823.27	27473
823.41	27245
823.55	27165
823.69	27222
823.83	27321
823.97	27192
824.11	27036
824.25	27165
824.389	27161
824.529	27119
824.669	27127
824.809	27256
824.949	27096
825.089	27074
825.228	27047
825.368	26975
825.508	26887
825.648	27001
825.787	26849
825.927	26887
826.067	26899
826.206	26887
826.346	26921
826.485	27028
826.625	26796
826.765	26971
826.904	26872
827.044	26651
827.183	26701
827.323	26560
827.462	26549
827.601	26598
827.741	26514
827.88	26423
828.02	26423
828.159	26545
828.298	26545
828.437	26640
828.577	26511
828.716	26568
828.855	26415
828.994	26275
829.134	26202
829.273	26381
829.412	26111
829.551	26145
829.69	26275
829.829	26248
829.968	26164
830.107	26221
830.246	26122
830.385	26111
830.524	25932
830.663	25845
830.802	25906
830.941	25715
831.08	25495
831.219	25826
831.357	25799
831.496	25860
831.635	25624
831.774	25521
831.913	25495
832.051	25559
832.19	25453
832.329	25628
832.467	25438
832.606	25225
832.744	25164
832.883	25331
833.022	25350
833.16	25312
833.299	25381
833.437	25232
833.576	25384
833.714	25270
833.852	25388
833.991	25339
834.129	25537
834.267	25407
834.406	25244
834.544	25316
834.682	25362
834.821	25297
834.959	25518
835.097	25301
835.235	25362
835.373	25304
835.511	25365
835.65	25023
835.788	25122
835.926	25038
836.064	24932
836.202	24916
836.34	25114
836.478	25133
836.615	25103
836.753	25057
836.891	25152
837.029	25148
837.167	24973
837.305	25080
837.443	25004
837.58	24840
837.718	25000
837.856	25031
837.993	24852
838.131	25023
838.269	24715
838.406	24734
838.544	24749
838.681	24604
838.819	24563
838.956	24292
839.094	24258
839.231	24414
839.369	24486
839.506	24703
839.643	24471
839.781	24296
839.918	24254
840.055	24327
840.193	24258
840.33	24129
840.467	24304
840.604	24266
840.742	24509
840.879	24114
841.016	24155
841.153	24095
841.29	24281
841.427	24232
841.564	24087
841.701	24125
841.838	24121
841.975	24152
842.112	24018
842.249	24015
842.385	23961
842.522	24213
842.659	23893
842.796	23809
842.933	23828
843.069	23805
843.206	23745
843.343	23920
843.479	23870
843.616	23855
843.752	23649
843.889	23775
844.025	23729
844.162	23646
844.298	23722
844.435	23703
844.571	23528
844.708	23596
844.844	23714
844.98	23699
845.117	23695
845.253	23429
845.389	23535
845.525	23531
845.661	23463
845.798	23395
845.934	23391
846.07	23292
846.206	23410
846.342	23395
846.478	23322
846.614	23143
846.75	23029
846.886	22919
847.022	23071
847.158	22942
847.294	23162
847.429	22949
847.565	22824
847.701	23174
847.837	22702
847.972	22744
848.108	22774
848.244	22626
848.379	22569
848.515	22637
848.65	22519
848.786	22637
848.921	22527
849.057	22668
849.192	22573
849.328	22649
849.463	22531
849.598	22615
849.734	22344
849.869	22402
850.004	22333
850.14	22405
850.275	22295
850.41	22215
850.545	22207
850.68	22226
850.815	22310
850.95	22249
851.085	22489
851.22	22409
851.355	22261
851.49	22284
851.625	22234
851.76	22181
851.895	22166
852.03	22226
852.165	22204
852.299	22200
852.434	22417
852.569	22291
852.703	22265
852.838	22299
852.973	22394
853.107	22280
853.242	22051
853.376	22188
853.511	21983
853.645	22154
853.78	22204
853.914	22139
854.048	21949
854.183	21983
854.317	22120
854.451	22333
854.585	22063
854.72	22082
854.854	22177
854.988	22135
855.122	22082
855.256	21968
855.39	22101
855.524	22002
855.658	22055
855.792	22166
855.926	22067
856.06	22158
856.194	22059
856.327	22147
856.461	21972
856.595	22032
856.729	22090
856.862	22173
856.996	22097
857.13	22086
857.263	22112
857.397	22200
857.53	21979
857.664	22139
857.797	22124
857.931	21880
858.064	22116
858.197	22154
858.331	22025
858.464	22010
858.597	21892
858.731	21915
858.864	21937
858.997	22055
859.13	22059
859.263	21964
859.396	22059
859.529	21941
859.662	21838
859.795	21998
859.928	21994
860.061	22112
860.194	22124
860.327	22017
860.46	21869
860.592	22029
860.725	22101
860.858	22143
860.99	21945
861.123	21937
861.256	21876
861.388	21964
861.521	22516
861.653	21937
861.786	21785
861.918	21915
862.05	21941
862.183	21888
862.315	22040
862.447	22055
862.58	21911
862.712	21759
862.844	21759
862.976	21778
863.108	21804
863.24	22021
863.372	21564
863.504	21583
863.636	21633
863.768	21751
863.9	21709
864.032	21568
864.164	21637
864.296	21538
864.428	21709
864.559	21644
864.691	21770
864.823	21720
864.954	21549
865.086	21591
865.217	21511
865.349	21454
865.48	21576
865.612	21534
865.743	21819
865.875	21603
866.006	21580
866.137	21682
866.269	21382
866.4	21523
866.531	21477
866.662	21370
866.793	21473
866.924	21564
867.055	21435
867.186	21389
867.317	21382
867.448	21329
867.579	21355
867.71	21401
867.841	21332
867.972	21340
868.103	21420
868.233	21435
868.364	21492
868.495	21477
868.625	21690
868.756	21816
868.886	21595
869.017	21587
869.147	21793
869.278	21899
869.408	21816
869.539	21717
869.669	21701
869.799	21755
869.929	21770
870.06	21812
870.19	21903
870.32	22036
870.45	22013
870.58	22147
870.71	22215
870.84	22185
870.97	22044
871.1	22002
871.23	22265
871.36	22265
871.489	22166
871.619	22261
871.749	22299
871.879	22276
872.008	22306
872.138	22230
872.267	22276
872.397	22162
872.526	22093
872.656	22204
872.785	22124
872.915	22333
873.044	22424
873.173	22337
873.303	22405
873.432	22329
873.561	22424
873.69	22276
873.819	22356
873.948	22478
874.077	22303
874.206	22348
874.335	22261
874.464	22451
874.593	22554
874.722	22455
874.851	22470
874.979	22424
875.108	22607
875.237	22462
875.365	22295
875.494	22500
875.623	22481
875.751	22527
875.88	22478
876.008	22698
876.136	22672
876.265	22919
876.393	23102
876.521	23060
876.65	23102
876.778	23033
876.906	22881
877.034	22850
877.162	22835
877.29	22774
877.418	22946
877.546	22873
877.674	22877
877.802	22953
877.93	22885
878.058	22892
878.185	22843
878.313	22706
878.441	22839
878.568	22713
878.696	22908
878.824	22957
878.951	23048
879.079	23075
879.206	23174
879.333	23090
879.461	22919
879.588	22904
879.715	23025
879.842	23200
879.97	22877
880.097	22725
880.224	22694
880.351	22790
880.478	22782
880.605	22615
880.732	22721
880.859	22885
880.986	22774
881.112	22725
881.239	22668
881.366	22455
881.493	22287
881.619	22310
881.746	22409
881.872	22234
881.999	22162
882.125	22196
882.252	22261
882.378	22253
882.505	22299
882.631	22215
882.757	22048
882.883	22044
883.01	22044
883.136	21953
883.262	21861
883.388	21854
883.514	21945
883.64	21960
883.766	21880
883.892	21728
884.018	21797
884.143	21884
884.269	22017
884.395	21739
884.52	21679
884.646	21675
884.772	21644
884.897	21576
885.023	21644
885.148	21751
885.274	21800
885.399	21667
885.524	21629
885.65	21660
885.775	21652
885.9	21549
886.025	21816
886.15	21675
886.275	21549
886.4	21485
886.525	21519
886.65	21481
886.775	21496
886.9	21698
887.025	21755
887.149	21580
887.274	21370
887.399	21363
887.523	21306
887.648	21154
887.773	21279
887.897	21313
888.021	21340
888.146	21218
888.27	21504
888.395	21530
888.519	21291
888.643	21302
888.767	21325
888.891	21287
889.015	21146
889.139	21161
889.263	21180
889.387	21233
889.511	21268
889.635	21180
889.759	20990
889.883	21017
890.006	21093
890.13	21211
890.254	20967
890.377	21081
890.501	20823
890.624	20811
890.748	20944
890.871	20872
890.995	20716
891.118	20511
891.241	20613
891.364	20678
891.488	20716
891.611	20670
891.734	20655
891.857	20754
891.98	20663
892.103	20792
892.226	20667
892.349	20670
892.471	20503
892.594	20575
892.717	20651
892.839	20594
892.962	20598
893.085	20636
893.207	20640
893.33	20514
893.452	20446
893.575	20537
893.697	20526
893.819	20609
893.941	20769
894.064	20651
894.186	20469
894.308	20480
894.43	20651
894.552	20853
894.674	20754
894.796	20503
894.918	20552
895.04	20488
895.161	20549
895.283	20613
895.405	20514
895.526	20495
895.648	20556
895.769	20670
895.891	20579
896.012	20606
896.134	20594
896.255	20606
896.376	20701
896.498	20655
896.619	20667
896.74	20678
896.861	20670
896.982	20804
897.103	21093
897.224	20925
897.345	20826
897.466	20765
897.587	20876
897.708	20925
897.828	20876
897.949	20792
898.07	20537
898.19	20705
898.311	20861
898.431	20648
898.552	20720
898.672	20727
898.792	20689
898.913	20708
899.033	20697
899.153	20389
899.273	20240
899.393	20476
899.513	20503
899.633	20518
899.753	20400
899.873	20465
899.993	20427
900.113	20370
900.232	20385
900.352	20313
900.472	20282
900.591	20107
900.711	20332
900.83	20225
900.95	20332
901.069	20374
901.189	20100
901.308	19936
901.427	19826
901.546	19860
901.665	19765
901.784	19822
901.904	19670
902.023	19514
902.141	19373
902.26	19407
902.379	19392
902.498	19331
902.617	19331
902.735	19339
902.854	19297
902.973	19202
903.091	19038
903.21	19046
903.328	18905
903.446	18886
903.565	18738
903.683	18833
903.801	18597
903.919	18745
904.038	18703
904.156	18608
904.274	18589
904.392	18452
904.51	18521
904.627	18570
904.745	18639
904.863	18604
904.981	18289
905.098	18194
905.216	18258
905.334	18197
905.451	18213
905.569	18159
905.686	18102
905.803	18201
905.921	17950
906.038	18007
906.155	18019
906.272	17931
906.389	17783
906.506	17771
906.623	17695
906.74	17665
906.857	17611
906.974	17642
907.091	17729
907.208	17805
907.324	17707
907.441	17581
907.557	17478
907.674	17452
907.79	17307
907.907	17364
908.023	17318
908.139	17315
908.256	17239
908.372	17216
908.488	17204
908.604	17029
908.72	17075
908.836	17029
908.952	17041
909.068	17003
909.184	17155
909.3	17147
909.415	17060
909.531	16980
909.647	16778
909.762	16717
909.878	16687
909.993	16706
910.108	16683
910.224	16672
910.339	16653
910.454	16519
910.57	16630
910.685	16371
910.8	16809
910.915	16755
911.03	16508
911.145	16398
911.259	16363
911.374	16299
911.489	16314
911.604	16246
911.718	16040
911.833	16055
911.947	15998
912.062	15941
912.176	16139
912.291	16090
912.405	16116
912.519	16272
912.633	16196
912.748	16059
912.862	16147
912.976	15854
913.09	15876
913.204	15785
913.318	15876
913.431	15926
913.545	15865
913.659	15949
913.772	15869
913.886	15762
914	15667
914.113	15713
914.226	15732
914.34	15781
914.453	15568
914.566	15762
914.68	15507
914.793	15580
914.906	15317
915.019	15279
915.132	15256
915.245	15230
915.358	15272
915.47	15211
915.583	15256
915.696	15329
915.809	15359
915.921	15325
916.034	15241
916.146	15169
916.259	15112
916.371	15154
916.483	15184
916.595	15039
916.708	15142
916.82	15146
916.932	15001
917.044	15055
917.156	15028
917.268	14861
917.38	14876
917.491	14842
917.603	14830
917.715	14982
917.826	14899
917.938	14769
918.049	14781
918.161	14826
918.272	14956
918.384	14941
918.495	14800
918.606	14621
918.717	14587
918.828	14575
918.939	14678
919.05	14640
919.161	14648
919.272	14442
919.383	14355
919.494	14590
919.604	14861
919.715	14560
919.826	14511
919.936	14587
920.047	14659
920.157	14598
920.267	14670
920.378	14629
920.488	14533
920.598	14724
920.708	14906
920.818	14659
920.928	14617
921.038	14876
921.148	14788
921.258	14568
921.368	14431
921.477	14271
921.587	14229
921.697	14043
921.806	14263
921.916	14183
922.025	13963
922.134	13928
922.244	13928
922.353	13917
922.462	13818
922.571	13685
922.68	13601
922.789	13495
922.898	13620
923.007	13514
923.116	13651
923.224	13544
923.333	13563
923.442	13407
923.55	13358
923.659	13483
923.767	13434
923.876	13312
923.984	13403
924.092	13308
924.201	13293
924.309	13274
924.417	13289
924.525	13187
924.633	13137
924.741	13951
924.849	13057
924.956	13183
925.064	12935
925.172	12878
925.279	12932
925.387	13015
925.494	12970
925.602	13065
925.709	13008
925.816	12985
925.924	12829
926.031	13057
926.138	12966
926.245	12882
926.352	12810
926.459	13027
926.566	12993
926.673	12848
926.779	12806
926.886	12726
926.993	12570
927.099	12509
927.206	12372
927.312	12433
927.419	12563
927.525	12448
927.631	12448
927.737	12395
927.843	12422
927.95	12285
928.056	12289
928.162	12357
928.267	12418
928.373	13019
928.479	12448
928.585	12114
928.69	12350
928.796	12334
928.901	12243
929.007	12030
929.112	12209
929.218	12152
929.323	12041
929.428	12133
929.533	12175
929.638	11954
929.743	12079
929.848	12095
929.953	12019
930.058	11904
930.163	11767
930.267	11737
930.372	11836
930.477	11729
930.581	11904
930.685	11771
930.79	11589
930.894	11619
930.998	11547
931.103	11733
931.207	11429
931.311	11326
931.415	11147
931.519	10961
931.623	10934
