Data from test_V78500241_694.txt Node
Date: Fri Mar 25 15:46:36 CST 2022
User: usil
Spectrometer: V785-0024
Trigger mode: 0
Integration Time (sec): 4.000000E-1
Scans to average: 1
Nonlinearity correction enabled: false
Boxcar width: 0
Storing dark spectrum: false
XAxis mode: Wavelengths
Number of Pixels in Spectrum: 1024
>>>>>Begin Spectral Data<<<<<
801.071	27865
801.214	27968
801.356	27671
801.499	27690
801.641	27526
801.783	27557
801.926	27595
802.068	27507
802.211	27260
802.353	27370
802.496	27135
802.638	27218
802.78	27108
802.923	27089
803.065	27081
803.208	27104
803.35	27146
803.492	27359
803.635	27317
803.777	27260
803.919	27416
804.061	27663
804.204	27386
804.346	27427
804.488	27214
804.63	27233
804.773	27329
804.915	27405
805.057	27553
805.199	27298
805.341	27469
805.483	27686
805.626	27401
805.768	27245
805.91	27431
806.052	27534
806.194	27424
806.336	27644
806.478	27519
806.62	27401
806.762	27736
806.904	27717
807.046	28040
807.188	27953
807.33	27972
807.472	27964
807.614	27930
807.756	27823
807.898	27774
808.04	27660
808.182	27823
808.324	27835
808.465	27930
808.607	27994
808.749	28143
808.891	28337
809.033	28360
809.174	28181
809.316	28192
809.458	28226
809.6	28177
809.741	28234
809.883	28200
810.025	28466
810.166	28344
810.308	28489
810.45	28363
810.591	28428
810.733	28147
810.875	28173
811.016	28196
811.158	28040
811.299	28299
811.441	28314
811.582	28352
811.724	28333
811.865	28063
812.007	28333
812.148	28139
812.29	28147
812.431	28291
812.573	28573
812.714	28596
812.855	28683
812.997	28797
813.138	28801
813.279	28763
813.421	28797
813.562	28850
813.703	28580
813.845	28413
813.986	28090
814.127	27956
814.268	27743
814.41	27857
814.551	27945
814.692	27991
814.833	27778
814.974	27876
815.115	27831
815.256	27762
815.397	27667
815.539	27644
815.68	27728
815.821	27530
815.962	27614
816.103	27770
816.244	27462
816.385	27416
816.526	27420
816.666	27260
816.807	27260
816.948	27123
817.089	27298
817.23	27241
817.371	27184
817.512	27070
817.653	27173
817.793	27207
817.934	27150
818.075	27279
818.216	27157
818.356	27055
818.497	27081
818.638	26849
818.778	26845
818.919	26940
819.06	26979
819.2	26998
819.341	27176
819.481	27058
819.622	27199
819.762	27561
819.903	27294
820.043	27306
820.184	27195
820.324	27401
820.465	27302
820.605	27264
820.746	27138
820.886	27051
821.026	27291
821.167	27233
821.307	27161
821.447	27298
821.588	27093
821.728	26994
821.868	26830
822.008	26750
822.149	26632
822.289	26579
822.429	26336
822.569	26214
822.709	26248
822.849	26081
822.99	26126
823.13	25997
823.27	25951
823.41	25906
823.55	25845
823.69	26020
823.83	25959
823.97	25913
824.11	25731
824.25	25738
824.389	25784
824.529	25727
824.669	25571
824.809	25955
824.949	25989
825.089	25963
825.228	25799
825.368	25616
825.508	25655
825.648	25639
825.787	25635
825.927	25868
826.067	25601
826.206	25731
826.346	25594
826.485	25712
826.625	25597
826.765	25753
826.904	25537
827.044	25392
827.183	25346
827.323	25422
827.462	25403
827.601	25426
827.741	25324
827.88	25491
828.02	25266
828.159	25274
828.298	25419
828.437	25358
828.577	25225
828.716	25479
828.855	25304
828.994	24890
829.134	24928
829.273	25148
829.412	24905
829.551	24951
829.69	25046
829.829	25141
829.968	25270
830.107	25050
830.246	25114
830.385	24951
830.524	24943
830.663	24810
830.802	24871
830.941	24513
831.08	24532
831.219	24787
831.357	24776
831.496	24791
831.635	24711
831.774	24566
831.913	24601
832.051	24429
832.19	24498
832.329	24559
832.467	24357
832.606	24251
832.744	24254
832.883	24327
833.022	24403
833.16	24323
833.299	24350
833.437	24300
833.576	24407
833.714	24388
833.852	24422
833.991	24547
834.129	24574
834.267	24452
834.406	24410
834.544	24338
834.682	24490
834.821	24445
834.959	24589
835.097	24338
835.235	24334
835.373	24471
835.511	24342
835.65	24167
835.788	24251
835.926	23969
836.064	24011
836.202	24045
836.34	24327
836.478	24315
836.615	24167
836.753	24205
836.891	24228
837.029	24159
837.167	24148
837.305	24163
837.443	24034
837.58	24106
837.718	24163
837.856	24064
837.993	24030
838.131	24053
838.269	24053
838.406	24072
838.544	23920
838.681	23805
838.819	23764
838.956	23619
839.094	23562
839.231	23604
839.369	23687
839.506	23866
839.643	23832
839.781	23398
839.918	23554
840.055	23493
840.193	23444
840.33	23486
840.467	23425
840.604	23501
840.742	23729
840.879	23444
841.016	23349
841.153	23337
841.29	23615
841.427	23436
841.564	23516
841.701	23444
841.838	23463
841.975	23360
842.112	23410
842.249	23414
842.385	23318
842.522	23512
842.659	23398
842.796	23170
842.933	23227
843.069	23075
843.206	23117
843.343	23269
843.479	23250
843.616	23159
843.752	23033
843.889	23067
844.025	23071
844.162	22949
844.298	23048
844.435	22976
844.571	22858
844.708	22976
844.844	23216
844.98	23071
845.117	23079
845.253	22968
845.389	22976
845.525	22835
845.661	22824
845.798	22713
845.934	22877
846.07	22740
846.206	22752
846.342	22812
846.478	22736
846.614	22523
846.75	22440
846.886	22474
847.022	22436
847.158	22516
847.294	22363
847.429	22577
847.565	22504
847.701	22710
847.837	22147
847.972	22158
848.108	22306
848.244	22284
848.379	22188
848.515	22135
848.65	22131
848.786	22040
848.921	22162
849.057	22185
849.192	22078
849.328	22032
849.463	22040
849.598	22139
849.734	21956
849.869	21960
850.004	21766
850.14	21797
850.275	21732
850.41	21671
850.545	21842
850.68	21831
850.815	21895
850.95	21808
851.085	22006
851.22	21892
851.355	21880
851.49	21793
851.625	21808
851.76	21838
851.895	21747
852.03	21587
852.165	21838
852.299	21899
852.434	21892
852.569	21778
852.703	21717
852.838	21747
852.973	21941
853.107	21922
853.242	21774
853.376	21774
853.511	21564
853.645	21580
853.78	21781
853.914	21671
854.048	21561
854.183	21534
854.317	21671
854.451	21911
854.585	21625
854.72	21591
854.854	21705
854.988	21667
855.122	21709
855.256	21496
855.39	21595
855.524	21690
855.658	21618
855.792	21701
855.926	21515
856.06	21682
856.194	21614
856.327	21679
856.461	21629
856.595	21580
856.729	21606
856.862	21816
856.996	21637
857.13	21652
857.263	21781
857.397	21606
857.53	21675
857.664	21675
857.797	21713
857.931	21663
858.064	21572
858.197	21686
858.331	21629
858.464	21526
858.597	21561
858.731	21507
858.864	21587
858.997	21542
859.13	21637
859.263	21667
859.396	21713
859.529	21660
859.662	21591
859.795	21545
859.928	21637
860.061	21789
860.194	21808
860.327	21656
860.46	21701
860.592	21717
860.725	21705
860.858	21945
860.99	21660
861.123	21606
861.256	21648
861.388	21663
861.521	22367
861.653	21351
861.786	21428
861.918	21458
862.05	21530
862.183	21538
862.315	21637
862.447	21663
862.58	21549
862.712	21245
862.844	21291
862.976	21458
863.108	21492
863.24	21823
863.372	21378
863.504	21397
863.636	21329
863.768	21348
863.9	21298
864.032	21283
864.164	21336
864.296	21264
864.428	21458
864.559	21424
864.691	21306
864.823	21321
864.954	21344
865.086	21367
865.217	21332
865.349	21165
865.48	21195
865.612	21116
865.743	21294
865.875	21313
866.006	21291
866.137	21241
866.269	21211
866.4	21237
866.531	21256
866.662	21237
866.793	21252
866.924	21184
867.055	21017
867.186	21077
867.317	21116
867.448	21154
867.579	21154
867.71	21077
867.841	21131
867.972	21298
868.103	21058
868.233	21249
868.364	21241
868.495	21207
868.625	21473
868.756	21557
868.886	21336
869.017	21412
869.147	21500
869.278	21557
869.408	21397
869.539	21321
869.669	21435
869.799	21450
869.929	21576
870.06	21583
870.19	21800
870.32	21663
870.45	21770
870.58	21857
870.71	21854
870.84	21804
870.97	21728
871.1	21899
871.23	21918
871.36	21930
871.489	21907
871.619	21941
871.749	21930
871.879	21926
872.008	22139
872.138	21987
872.267	21941
872.397	21846
872.526	21797
872.656	21876
872.785	21857
872.915	22105
873.044	22135
873.173	21884
873.303	22051
873.432	22059
873.561	22143
873.69	22131
873.819	21907
873.948	22059
874.077	22021
874.206	21983
874.335	21934
874.464	22173
874.593	22242
874.722	22306
874.851	22337
874.979	22249
875.108	22314
875.237	22128
875.365	22166
875.494	22211
875.623	22265
875.751	22306
875.88	22322
876.008	22390
876.136	22436
876.265	22649
876.393	22782
876.521	22744
876.65	22675
876.778	22668
876.906	22618
877.034	22615
877.162	22497
877.29	22424
877.418	22653
877.546	22546
877.674	22569
877.802	22565
877.93	22500
878.058	22485
878.185	22398
878.313	22607
878.441	22691
878.568	22455
878.696	22508
878.824	22694
878.951	22653
879.079	22839
879.206	22850
879.333	22816
879.461	22656
879.588	22649
879.715	22763
879.842	22934
879.97	22660
880.097	22512
880.224	22508
880.351	22512
880.478	22504
880.605	22303
880.732	22379
880.859	22584
880.986	22360
881.112	22443
881.239	22268
881.366	22147
881.493	21994
881.619	21956
881.746	22006
881.872	21991
881.999	21968
882.125	22051
882.252	21972
882.378	21987
882.505	22059
882.631	21907
882.757	21812
882.883	21808
883.01	21686
883.136	21641
883.262	21466
883.388	21397
883.514	21656
883.64	21755
883.766	21694
883.892	21447
884.018	21545
884.143	21462
884.269	21652
884.395	21481
884.52	21256
884.646	21378
884.772	21252
884.897	21214
885.023	21336
885.148	21416
885.274	21428
885.399	21439
885.524	21378
885.65	21245
885.775	21359
885.9	21245
886.025	21420
886.15	21447
886.275	21306
886.4	21279
886.525	21199
886.65	21336
886.775	21195
886.9	21424
887.025	21561
887.149	21188
887.274	21207
887.399	21070
887.523	21138
887.648	21077
887.773	20918
887.897	21150
888.021	21222
888.146	21020
888.27	21062
888.395	21161
888.519	21096
888.643	21199
888.767	21032
888.891	20990
889.015	20895
889.139	21081
889.263	20864
889.387	20918
889.511	21093
889.635	20960
889.759	20842
889.883	20765
890.006	20876
890.13	20960
890.254	20731
890.377	20788
890.501	20617
890.624	20560
890.748	20670
890.871	20507
890.995	20389
891.118	20237
891.241	20396
891.364	20347
891.488	20564
891.611	20374
891.734	20530
891.857	20507
891.98	20465
892.103	20400
892.226	20590
892.349	20298
892.471	20180
892.594	20290
892.717	20389
892.839	20290
892.962	20374
893.085	20385
893.207	20355
893.33	20206
893.452	20252
893.575	20355
893.697	20259
893.819	20465
893.941	20609
894.064	20473
894.186	20210
894.308	20157
894.43	20355
894.552	20465
894.674	20271
894.796	20206
894.918	20324
895.04	20275
895.161	20438
895.283	20389
895.405	20351
895.526	20423
895.648	20317
895.769	20442
895.891	20343
896.012	20351
896.134	20484
896.255	20309
896.376	20355
896.498	20400
896.619	20339
896.74	20374
896.861	20400
896.982	20663
897.103	20746
897.224	20564
897.345	20621
897.466	20530
897.587	20522
897.708	20590
897.828	20640
897.949	20522
898.07	20427
898.19	20473
898.311	20621
898.431	20530
898.552	20545
898.672	20636
898.792	20621
898.913	20511
899.033	20374
899.153	20370
899.273	20149
899.393	20309
899.513	20374
899.633	20385
899.753	20282
899.873	20252
899.993	20218
900.113	20119
900.232	20275
900.352	20172
900.472	20130
900.591	19989
900.711	20092
900.83	19967
900.95	20157
901.069	20210
901.189	19917
901.308	19814
901.427	19693
901.546	19639
901.665	19723
901.784	19700
901.904	19518
902.023	19468
902.141	19312
902.26	19240
902.379	19285
902.498	19141
902.617	19076
902.735	19194
902.854	19072
902.973	19084
903.091	18814
903.21	18810
903.328	18814
903.446	18711
903.565	18677
903.683	18623
903.801	18479
903.919	18604
904.038	18536
904.156	18464
904.274	18441
904.392	18426
904.51	18342
904.627	18399
904.745	18456
904.863	18513
904.981	18228
905.098	18102
905.216	18034
905.334	18091
905.451	18144
905.569	18019
905.686	18102
905.803	17946
905.921	17927
906.038	17988
906.155	17794
906.272	17676
906.389	17790
906.506	17634
906.623	17668
906.74	17623
906.857	17573
906.974	17532
907.091	17627
907.208	17836
907.324	17642
907.441	17493
907.557	17353
907.674	17223
907.79	17258
907.907	17398
908.023	17360
908.139	17311
908.256	17315
908.372	17258
908.488	17174
908.604	17181
908.72	17014
908.836	17022
908.952	16961
909.068	17090
909.184	17136
909.3	17064
909.415	17204
909.531	17060
909.647	16717
909.762	16805
909.878	16755
909.993	16713
910.108	16771
910.224	16725
910.339	16752
910.454	16611
910.57	16504
910.685	16630
910.8	16782
910.915	16645
911.03	16516
911.145	16363
911.259	16485
911.374	16348
911.489	16131
911.604	16249
911.718	16093
911.833	16078
911.947	16029
912.062	15926
912.176	16139
912.291	16074
912.405	16215
912.519	16284
912.633	16318
912.748	16116
912.862	16010
912.976	15865
913.09	15717
913.204	15911
913.318	15941
913.431	16078
913.545	16055
913.659	16131
913.772	15941
913.886	15736
914	15618
914.113	15816
914.226	15800
914.34	15846
914.453	15679
914.566	15793
914.68	15614
914.793	15507
914.906	15428
915.019	15370
915.132	15401
915.245	15306
915.358	15283
915.47	15279
915.583	15336
915.696	15260
915.809	15374
915.921	15401
916.034	15325
916.146	15176
916.259	15256
916.371	15348
916.483	15279
916.595	15173
916.708	15100
916.82	15112
916.932	15116
917.044	15066
917.156	15039
917.268	15009
917.38	15020
917.491	14952
917.603	14899
917.715	15108
917.826	15131
917.938	14861
918.049	14769
918.161	14952
918.272	15001
918.384	15020
918.495	14891
918.606	14781
918.717	14613
918.828	14708
918.939	14857
919.05	14651
919.161	14727
919.272	14450
919.383	14583
919.494	14743
919.604	14899
919.715	14724
919.826	14594
919.936	14667
920.047	14823
920.157	14743
920.267	14842
920.378	14743
920.488	14655
920.598	14925
920.708	15032
920.818	14800
920.928	14804
921.038	14941
921.148	14902
921.258	14556
921.368	14579
921.477	14438
921.587	14423
921.697	14202
921.806	14408
921.916	14206
922.025	14107
922.134	14142
922.244	14088
922.353	14039
922.462	13928
922.571	13830
922.68	13670
922.789	13685
922.898	13757
923.007	13636
923.116	13723
923.224	13666
923.333	13597
923.442	13453
923.55	13521
923.659	13480
923.767	13647
923.876	13457
923.984	13495
924.092	13373
924.201	13403
924.309	13453
924.417	13396
924.525	13331
924.633	13331
924.741	14210
924.849	13126
924.956	13274
925.064	13171
925.172	13095
925.279	13160
925.387	13156
925.494	13076
925.602	13263
925.709	13232
925.816	13084
925.924	13095
926.031	13206
926.138	13168
926.245	13122
926.352	12954
926.459	13042
926.566	13122
926.673	12890
926.779	12741
926.886	12840
926.993	12707
927.099	12696
927.206	12650
927.312	12639
927.419	12749
927.525	12616
927.631	12738
927.737	12467
927.843	12536
927.95	12414
928.056	12467
928.162	12566
928.267	12506
928.373	13088
928.479	12551
928.585	12319
928.69	12452
928.796	12502
928.901	12350
929.007	12220
929.112	12388
929.218	12311
929.323	12239
929.428	12129
929.533	12262
929.638	12095
929.743	12148
929.848	12247
929.953	12152
930.058	12102
930.163	11882
930.267	11908
930.372	12072
930.477	11851
930.581	12068
930.685	11954
930.79	11870
930.894	11805
930.998	11756
931.103	11847
931.207	11486
931.311	11391
931.415	11391
931.519	11193
931.623	11162
