Data from test_V78500241_1236.txt Node
Date: Fri Mar 25 15:50:21 CST 2022
User: usil
Spectrometer: V785-0024
Trigger mode: 0
Integration Time (sec): 4.000000E-1
Scans to average: 1
Nonlinearity correction enabled: false
Boxcar width: 0
Storing dark spectrum: false
XAxis mode: Wavelengths
Number of Pixels in Spectrum: 1024
>>>>>Begin Spectral Data<<<<<
801.071	28596
801.214	28584
801.356	28451
801.499	28177
801.641	28013
801.783	28101
801.926	28185
802.068	28169
802.211	27994
802.353	28021
802.496	27854
802.638	27831
802.78	27785
802.923	27892
803.065	27591
803.208	27835
803.35	27766
803.492	27922
803.635	27930
803.777	27880
803.919	27968
804.061	28371
804.204	28192
804.346	28036
804.488	27930
804.63	27987
804.773	27892
804.915	28097
805.057	28238
805.199	28040
805.341	28124
805.483	28150
805.626	28287
805.768	28177
805.91	28135
806.052	28135
806.194	28040
806.336	28329
806.478	28382
806.62	28226
806.762	28405
806.904	28546
807.046	28790
807.188	28592
807.33	28596
807.472	28782
807.614	28752
807.756	28618
807.898	28584
808.04	28531
808.182	28497
808.324	28630
808.465	28641
808.607	28790
808.749	29056
808.891	28809
809.033	28991
809.174	28854
809.316	28847
809.458	28934
809.6	28816
809.741	29086
809.883	29083
810.025	29455
810.166	29383
810.308	29178
810.45	29189
810.591	29181
810.733	29022
810.875	28923
811.016	28839
811.158	28873
811.299	28957
811.441	29052
811.582	29109
811.724	28877
811.865	29037
812.007	28774
812.148	28828
812.29	28839
812.431	29064
812.573	29185
812.714	29330
812.855	29452
812.997	29558
813.138	29684
813.279	29699
813.421	29455
813.562	29395
813.703	29258
813.845	28995
813.986	28991
814.127	28717
814.268	28729
814.41	28668
814.551	28637
814.692	28763
814.833	28592
814.974	28729
815.115	28626
815.256	28504
815.397	28478
815.539	28622
815.68	28371
815.821	28382
815.962	28489
816.103	28531
816.244	28432
816.385	28188
816.526	28238
816.666	27998
816.807	27903
816.948	27888
817.089	28067
817.23	27968
817.371	27800
817.512	27987
817.653	27895
817.793	27953
817.934	27907
818.075	28044
818.216	27975
818.356	27918
818.497	27823
818.638	27724
818.778	27774
818.919	27698
819.06	27770
819.2	27922
819.341	27922
819.481	28010
819.622	28246
819.762	28211
819.903	28211
820.043	28032
820.184	28128
820.324	28048
820.465	28211
820.605	28051
820.746	27941
820.886	27838
821.026	28162
821.167	28070
821.307	28215
821.447	28048
821.588	27838
821.728	27789
821.868	27553
822.008	27466
822.149	27454
822.289	27378
822.429	27207
822.569	27112
822.709	27127
822.849	27074
822.99	26899
823.13	26982
823.27	26895
823.41	26845
823.55	26655
823.69	26697
823.83	26750
823.97	26617
824.11	26514
824.25	26632
824.389	26488
824.529	26682
824.669	26632
824.809	26746
824.949	26606
825.089	26750
825.228	26716
825.368	26438
825.508	26278
825.648	26560
825.787	26556
825.927	26625
826.067	26480
826.206	26499
826.346	26568
826.485	26476
826.625	26446
826.765	26537
826.904	26511
827.044	26362
827.183	26157
827.323	26210
827.462	26237
827.601	26263
827.741	26119
827.88	26271
828.02	26176
828.159	26153
828.298	26176
828.437	26305
828.577	26020
828.716	26282
828.855	26290
828.994	25917
829.134	25993
829.273	26020
829.412	25871
829.551	25936
829.69	25837
829.829	25970
829.968	25875
830.107	25966
830.246	25947
830.385	25864
830.524	25925
830.663	25677
830.802	25666
830.941	25518
831.08	25590
831.219	25419
831.357	25586
831.496	25731
831.635	25521
831.774	25270
831.913	25407
832.051	25304
832.19	25183
832.329	25304
832.467	25308
832.606	25240
832.744	25168
832.883	25126
833.022	25034
833.16	25084
833.299	25118
833.437	25141
833.576	25114
833.714	25266
833.852	25384
833.991	25270
834.129	25350
834.267	25076
834.406	25221
834.544	25228
834.682	25285
834.821	25263
834.959	25282
835.097	25179
835.235	25343
835.373	25240
835.511	25190
835.65	25107
835.788	25110
835.926	24966
836.064	24821
836.202	24920
836.34	25015
836.478	25008
836.615	25084
836.753	25103
836.891	25050
837.029	25133
837.167	24992
837.305	24954
837.443	25088
837.58	24882
837.718	24958
837.856	24863
837.993	24795
838.131	24867
838.269	24779
838.406	24833
838.544	24665
838.681	24437
838.819	24437
838.956	24372
839.094	24448
839.231	24330
839.369	24475
839.506	24764
839.643	24616
839.781	24369
839.918	24289
840.055	24391
840.193	24384
840.33	24228
840.467	24247
840.604	24342
840.742	24494
840.879	24224
841.016	24155
841.153	24163
841.29	24296
841.427	24330
841.564	24224
841.701	24372
841.838	24167
841.975	24064
842.112	24049
842.249	24079
842.385	24064
842.522	24167
842.659	23958
842.796	23958
842.933	23973
843.069	23973
843.206	23965
843.343	23969
843.479	24011
843.616	23973
843.752	23764
843.889	23821
844.025	23980
844.162	23668
844.298	23878
844.435	23756
844.571	23684
844.708	23870
844.844	23927
844.98	23893
845.117	23832
845.253	23843
845.389	23562
845.525	23710
845.661	23581
845.798	23520
845.934	23642
846.07	23520
846.206	23448
846.342	23630
846.478	23406
846.614	23235
846.75	23258
846.886	23250
847.022	23345
847.158	23258
847.294	23231
847.429	23269
847.565	23212
847.701	23501
847.837	22976
847.972	22866
848.108	22957
848.244	22968
848.379	22881
848.515	22820
848.65	22790
848.786	22911
848.921	22866
849.057	22824
849.192	22866
849.328	22839
849.463	22763
849.598	22748
849.734	22611
849.869	22778
850.004	22599
850.14	22710
850.275	22485
850.41	22504
850.545	22531
850.68	22470
850.815	22577
850.95	22535
851.085	22675
851.22	22721
851.355	22451
851.49	22634
851.625	22580
851.76	22466
851.895	22516
852.03	22493
852.165	22531
852.299	22508
852.434	22607
852.569	22554
852.703	22493
852.838	22577
852.973	22713
853.107	22637
853.242	22481
853.376	22455
853.511	22192
853.645	22417
853.78	22367
853.914	22371
854.048	22371
854.183	22322
854.317	22348
854.451	22611
854.585	22379
854.72	22284
854.854	22363
854.988	22325
855.122	22371
855.256	22226
855.39	22363
855.524	22500
855.658	22466
855.792	22329
855.926	22421
856.06	22409
856.194	22360
856.327	22291
856.461	22352
856.595	22314
856.729	22322
856.862	22485
856.996	22363
857.13	22504
857.263	22519
857.397	22478
857.53	22337
857.664	22322
857.797	22424
857.931	22409
858.064	22432
858.197	22382
858.331	22344
858.464	22223
858.597	22219
858.731	22341
858.864	22318
858.997	22242
859.13	22352
859.263	22363
859.396	22436
859.529	22443
859.662	22333
859.795	22177
859.928	22394
860.061	22535
860.194	22500
860.327	22497
860.46	22428
860.592	22398
860.725	22588
860.858	22481
860.99	22394
861.123	22318
861.256	22379
861.388	22417
861.521	23117
861.653	22177
861.786	22021
861.918	22101
862.05	22143
862.183	22257
862.315	22325
862.447	22367
862.58	22257
862.712	22078
862.844	22040
862.976	22093
863.108	22147
863.24	22523
863.372	21964
863.504	22044
863.636	22135
863.768	22036
863.9	22131
864.032	22090
864.164	22090
864.296	21949
864.428	22112
864.559	22032
864.691	22078
864.823	22044
864.954	21979
865.086	22036
865.217	21941
865.349	21941
865.48	22013
865.612	21880
865.743	22044
865.875	22063
866.006	21991
866.137	21983
866.269	21895
866.4	21926
866.531	21781
866.662	21884
866.793	21873
866.924	21922
867.055	22055
867.186	21953
867.317	21861
867.448	21926
867.579	21778
867.71	21774
867.841	21838
867.972	21781
868.103	21911
868.233	21934
868.364	21846
868.495	21915
868.625	22021
868.756	22207
868.886	22090
869.017	22109
869.147	22310
869.278	22360
869.408	22162
869.539	22135
869.669	22257
869.799	22192
869.929	22215
870.06	22246
870.19	22447
870.32	22322
870.45	22478
870.58	22607
870.71	22637
870.84	22622
870.97	22504
871.1	22573
871.23	22672
871.36	22683
871.489	22626
871.619	22691
871.749	22793
871.879	22755
872.008	22873
872.138	22683
872.267	22660
872.397	22664
872.526	22565
872.656	22500
872.785	22554
872.915	22793
873.044	22831
873.173	22573
873.303	22812
873.432	22809
873.561	22835
873.69	22675
873.819	22702
873.948	22809
874.077	22694
874.206	22710
874.335	22706
874.464	22702
874.593	22927
874.722	22812
874.851	22877
874.979	23006
875.108	22968
875.237	22946
875.365	22934
875.494	22946
875.623	22915
875.751	22900
875.88	22854
876.008	23094
876.136	23140
876.265	23273
876.393	23474
876.521	23364
876.65	23440
876.778	23353
876.906	23326
877.034	23204
877.162	23189
877.29	23235
877.418	23277
877.546	23273
877.674	23284
877.802	23307
877.93	23273
878.058	23311
878.185	23014
878.313	23147
878.441	23261
878.568	23174
878.696	23265
878.824	23509
878.951	23326
879.079	23383
879.206	23547
879.333	23376
879.461	23288
879.588	23376
879.715	23516
879.842	23566
879.97	23414
880.097	23121
880.224	23109
880.351	23178
880.478	23166
880.605	23094
880.732	23140
880.859	23334
880.986	23193
881.112	23060
881.239	23018
881.366	22771
881.493	22748
881.619	22740
881.746	22637
881.872	22668
881.999	22588
882.125	22569
882.252	22828
882.378	22565
882.505	22755
882.631	22504
882.757	22360
882.883	22424
883.01	22295
883.136	22314
883.262	22196
883.388	22249
883.514	22196
883.64	22478
883.766	22329
883.892	22135
884.018	22196
884.143	22360
884.269	22333
884.395	22154
884.52	22013
884.646	22082
884.772	21880
884.897	21930
885.023	21911
885.148	22017
885.274	22143
885.399	22059
885.524	22029
885.65	22067
885.775	21899
885.9	21797
886.025	22154
886.15	22082
886.275	21956
886.4	21991
886.525	22090
886.65	21876
886.775	21816
886.9	22124
887.025	22150
887.149	21994
887.274	21861
887.399	21701
887.523	21724
887.648	21644
887.773	21561
887.897	21812
888.021	21812
888.146	21622
888.27	21865
888.395	21865
888.519	21892
888.643	21751
888.767	21827
888.891	21561
889.015	21622
889.139	21583
889.263	21488
889.387	21618
889.511	21698
889.635	21759
889.759	21656
889.883	21515
890.006	21576
890.13	21686
890.254	21492
890.377	21420
890.501	21287
890.624	21256
890.748	21340
890.871	21127
890.995	21055
891.118	21085
891.241	21028
891.364	21089
891.488	21218
891.611	21047
891.734	21184
891.857	21135
891.98	21131
892.103	21157
892.226	21074
892.349	20979
892.471	20918
892.594	21024
892.717	20994
892.839	20937
892.962	21001
893.085	21028
893.207	20872
893.33	20853
893.452	20853
893.575	21127
893.697	20967
893.819	21207
893.941	21039
894.064	20967
894.186	20967
894.308	20948
894.43	21127
894.552	21116
894.674	21112
894.796	20830
894.918	20902
895.04	21028
895.161	21043
895.283	20921
895.405	20834
895.526	21009
895.648	20952
895.769	21165
895.891	20990
896.012	21119
896.134	21005
896.255	20982
896.376	20918
896.498	20986
896.619	20952
896.74	20925
896.861	21009
896.982	21317
897.103	21500
897.224	21195
897.345	21291
897.466	21184
897.587	21112
897.708	21195
897.828	21123
897.949	21192
898.07	20990
898.19	21051
898.311	21180
898.431	21024
898.552	21108
898.672	21150
898.792	21199
898.913	21260
899.033	20960
899.153	21055
899.273	20918
899.393	20929
899.513	20861
899.633	20868
899.753	20982
899.873	20796
899.993	20864
900.113	20891
900.232	20849
900.352	20739
900.472	20731
900.591	20727
900.711	20689
900.83	20621
900.95	20689
901.069	20731
901.189	20499
901.308	20355
901.427	20248
901.546	20248
901.665	20210
901.784	20252
901.904	20138
902.023	19967
902.141	19909
902.26	19750
902.379	19841
902.498	19780
902.617	19662
902.735	19693
902.854	19803
902.973	19635
903.091	19487
903.21	19407
903.328	19480
903.446	19198
903.565	19384
903.683	19187
903.801	18989
903.919	19236
904.038	19137
904.156	18962
904.274	18993
904.392	18943
904.51	18909
904.627	18924
904.745	18996
904.863	19034
904.981	18722
905.098	18631
905.216	18627
905.334	18673
905.451	18684
905.569	18597
905.686	18673
905.803	18620
905.921	18471
906.038	18388
906.155	18365
906.272	18300
906.389	18289
906.506	18228
906.623	18201
906.74	18209
906.857	17946
906.974	18079
907.091	18251
907.208	18315
907.324	18235
907.441	18091
907.557	17912
907.674	17843
907.79	17775
907.907	17748
908.023	17851
908.139	17847
908.256	17726
908.372	17714
908.488	17676
908.604	17680
908.72	17516
908.836	17619
908.952	17524
909.068	17554
909.184	17638
909.3	17547
909.415	17539
909.531	17520
909.647	17341
909.762	17322
909.878	17288
909.993	17318
910.108	17265
910.224	17212
910.339	17303
910.454	17159
910.57	17071
910.685	16942
910.8	17273
910.915	17124
911.03	17208
911.145	16869
911.259	16854
911.374	16801
911.489	16831
911.604	16763
911.718	16664
911.833	16561
911.947	16527
912.062	16508
912.176	16683
912.291	16607
912.405	16580
912.519	16752
912.633	16801
912.748	16706
912.862	16554
912.976	16428
913.09	16318
913.204	16268
913.318	16500
913.431	16455
913.545	16440
913.659	16413
913.772	16405
913.886	16238
914	16166
914.113	16280
914.226	16314
914.34	16173
914.453	16055
914.566	16177
914.68	16032
914.793	16105
914.906	15880
915.019	15747
915.132	15842
915.245	15667
915.358	15732
915.47	15800
915.583	15793
915.696	15835
915.809	15880
915.921	15922
916.034	15797
916.146	15728
916.259	15622
916.371	15694
916.483	15553
916.595	15652
916.708	15584
916.82	15595
916.932	15515
917.044	15553
917.156	15500
917.268	15355
917.38	15393
917.491	15382
917.603	15332
917.715	15473
917.826	15500
917.938	15344
918.049	15157
918.161	15313
918.272	15511
918.384	15397
918.495	15241
918.606	15085
918.717	15108
918.828	15218
918.939	15142
919.05	14979
919.161	15142
919.272	15005
919.383	14963
919.494	15097
919.604	15351
919.715	15142
919.826	15039
919.936	15070
920.047	15256
920.157	15036
920.267	15249
920.378	15169
920.488	15001
920.598	15260
920.708	15462
920.818	15184
920.928	15222
921.038	15386
921.148	15336
921.258	14979
921.368	14941
921.477	14880
921.587	14842
921.697	14720
921.806	14731
921.916	14705
922.025	14465
922.134	14457
922.244	14381
922.353	14533
922.462	14259
922.571	14294
922.68	14077
922.789	14157
922.898	14115
923.007	14039
923.116	14138
923.224	14130
923.333	13959
923.442	13868
923.55	13993
923.659	13928
923.767	14012
923.876	13814
923.984	13947
924.092	13742
924.201	13830
924.309	13902
924.417	13826
924.525	13655
924.633	13715
924.741	14651
924.849	13601
924.956	13712
925.064	13590
925.172	13457
925.279	13411
925.387	13464
925.494	13510
925.602	13540
925.709	13468
925.816	13362
925.924	13468
926.031	13476
926.138	13434
926.245	13369
926.352	13346
926.459	13472
926.566	13495
926.673	13206
926.779	13259
926.886	13187
926.993	13034
927.099	13069
927.206	12882
927.312	12985
927.419	13004
927.525	13004
927.631	12973
927.737	12882
927.843	12871
927.95	12726
928.056	12871
928.162	12798
928.267	12935
928.373	13464
928.479	12924
928.585	12646
928.69	12772
928.796	12810
928.901	12681
929.007	12509
929.112	12654
929.218	12681
929.323	12532
929.428	12597
929.533	12715
929.638	12498
929.743	12494
929.848	12604
929.953	12604
930.058	12414
930.163	12266
930.267	12228
930.372	12407
930.477	12106
930.581	12486
930.685	12285
930.79	12148
930.894	12190
930.998	12057
931.103	12247
931.207	11741
931.311	11752
931.415	11748
931.519	11448
931.623	11459
