Data from test_V78500241_2931.txt Node
Date: Fri Mar 25 16:02:06 CST 2022
User: usil
Spectrometer: V785-0024
Trigger mode: 0
Integration Time (sec): 4.000000E-1
Scans to average: 1
Nonlinearity correction enabled: false
Boxcar width: 0
Storing dark spectrum: false
XAxis mode: Wavelengths
Number of Pixels in Spectrum: 1024
>>>>>Begin Spectral Data<<<<<
801.071	28759
801.214	28847
801.356	28466
801.499	28535
801.641	28310
801.783	28348
801.926	28379
802.068	28367
802.211	28375
802.353	28029
802.496	28162
802.638	28055
802.78	28017
802.923	27857
803.065	27972
803.208	27918
803.35	28200
803.492	28192
803.635	28238
803.777	28147
803.919	28287
804.061	28432
804.204	28356
804.346	28177
804.488	28219
804.63	28291
804.773	28287
804.915	28451
805.057	28481
805.199	28280
805.341	28386
805.483	28481
805.626	28401
805.768	28413
805.91	28474
806.052	28561
806.194	28375
806.336	28653
806.478	28367
806.62	28284
806.762	28653
806.904	28767
807.046	28915
807.188	28896
807.33	28927
807.472	28930
807.614	28934
807.756	28942
807.898	28748
808.04	28755
808.182	28786
808.324	28710
808.465	28862
808.607	28972
808.749	29060
808.891	29254
809.033	29277
809.174	29181
809.316	28991
809.458	29166
809.6	29147
809.741	29140
809.883	29227
810.025	29414
810.166	29326
810.308	29474
810.45	29406
810.591	29235
810.733	29159
810.875	29121
811.016	29003
811.158	29155
811.299	29334
811.441	29284
811.582	29162
811.724	29189
811.865	29174
812.007	29174
812.148	29044
812.29	29375
812.431	29311
812.573	29535
812.714	29619
812.855	29512
812.997	29786
813.138	29889
813.279	29817
813.421	29661
813.562	29718
813.703	29383
813.845	29227
813.986	29098
814.127	29105
814.268	28919
814.41	28740
814.551	28885
814.692	28881
814.833	28786
814.974	28729
815.115	28828
815.256	28767
815.397	28672
815.539	28919
815.68	28816
815.821	28637
815.962	28759
816.103	28736
816.244	28653
816.385	28451
816.526	28398
816.666	28249
816.807	28082
816.948	28276
817.089	28409
817.23	28090
817.371	28025
817.512	28234
817.653	28196
817.793	28116
817.934	28177
818.075	28272
818.216	28063
818.356	28067
818.497	28188
818.638	27899
818.778	27888
818.919	28029
819.06	27972
819.2	28090
819.341	28181
819.481	28059
819.622	28329
819.762	28508
819.903	28478
820.043	28386
820.184	28421
820.324	28200
820.465	28325
820.605	28223
820.746	28284
820.886	28135
821.026	28162
821.167	28150
821.307	28329
821.447	28082
821.588	28230
821.728	28048
821.868	27911
822.008	27876
822.149	27644
822.289	27728
822.429	27549
822.569	27325
822.709	27226
822.849	27184
822.99	27192
823.13	27127
823.27	27096
823.41	26963
823.55	26883
823.69	27020
823.83	27058
823.97	26819
824.11	26800
824.25	26845
824.389	26796
824.529	26933
824.669	26845
824.809	26845
824.949	26834
825.089	26960
825.228	26826
825.368	26697
825.508	26708
825.648	26895
825.787	26731
825.927	26788
826.067	26640
826.206	26705
826.346	26689
826.485	26773
826.625	26823
826.765	26834
826.904	26697
827.044	26587
827.183	26503
827.323	26446
827.462	26613
827.601	26526
827.741	26332
827.88	26324
828.02	26324
828.159	26415
828.298	26473
828.437	26492
828.577	26355
828.716	26499
828.855	26339
828.994	26248
829.134	25982
829.273	26275
829.412	26103
829.551	26115
829.69	26024
829.829	26100
829.968	26237
830.107	26142
830.246	26149
830.385	26092
830.524	25963
830.663	26001
830.802	25989
830.941	25635
831.08	25693
831.219	25761
831.357	25738
831.496	25879
831.635	25803
831.774	25590
831.913	25712
832.051	25502
832.19	25483
832.329	25559
832.467	25529
832.606	25266
832.744	25266
832.883	25392
833.022	25464
833.16	25472
833.299	25499
833.437	25362
833.576	25350
833.714	25506
833.852	25502
833.991	25487
834.129	25502
834.267	25632
834.406	25403
834.544	25533
834.682	25529
834.821	25502
834.959	25639
835.097	25441
835.235	25415
835.373	25407
835.511	25426
835.65	25285
835.788	25388
835.926	25137
836.064	25190
836.202	25012
836.34	25278
836.478	25350
836.615	25232
836.753	25137
836.891	25255
837.029	25289
837.167	25236
837.305	25065
837.443	25061
837.58	25057
837.718	25244
837.856	25050
837.993	25133
838.131	25118
838.269	24882
838.406	24905
838.544	24905
838.681	24760
838.819	24745
838.956	24646
839.094	24582
839.231	24536
839.369	24795
839.506	24989
839.643	24909
839.781	24593
839.918	24532
840.055	24593
840.193	24639
840.33	24357
840.467	24414
840.604	24448
840.742	24707
840.879	24426
841.016	24323
841.153	24395
841.29	24525
841.427	24384
841.564	24494
841.701	24437
841.838	24376
841.975	24308
842.112	24384
842.249	24350
842.385	24235
842.522	24460
842.659	24289
842.796	24254
842.933	24247
843.069	24133
843.206	24247
843.343	24304
843.479	24140
843.616	24091
843.752	23954
843.889	23927
844.025	24163
844.162	23927
844.298	24133
844.435	23977
844.571	23965
844.708	24018
844.844	24083
844.98	24190
845.117	24163
845.253	23950
845.389	23980
845.525	23916
845.661	23855
845.798	23703
845.934	23710
846.07	23699
846.206	23672
846.342	23851
846.478	23722
846.614	23604
846.75	23490
846.886	23501
847.022	23391
847.158	23471
847.294	23433
847.429	23577
847.565	23414
847.701	23657
847.837	23170
847.972	23200
848.108	23383
848.244	23170
848.379	23124
848.515	23052
848.65	22987
848.786	23048
848.921	23067
849.057	23086
849.192	23181
849.328	23044
849.463	22946
849.598	22972
849.734	22946
849.869	22915
850.004	22805
850.14	22866
850.275	22847
850.41	22748
850.545	22748
850.68	22679
850.815	22812
850.95	22782
851.085	23022
851.22	22972
851.355	22771
851.49	22771
851.625	22835
851.76	22866
851.895	22713
852.03	22835
852.165	22900
852.299	22847
852.434	22771
852.569	22771
852.703	22759
852.838	22816
852.973	22995
853.107	22900
853.242	22702
853.376	22710
853.511	22649
853.645	22599
853.78	22759
853.914	22683
854.048	22630
854.183	22641
854.317	22603
854.451	22736
854.585	22641
854.72	22706
854.854	22752
854.988	22611
855.122	22656
855.256	22466
855.39	22577
855.524	22710
855.658	22668
855.792	22653
855.926	22645
856.06	22641
856.194	22793
856.327	22733
856.461	22599
856.595	22546
856.729	22675
856.862	22809
856.996	22656
857.13	22713
857.263	22691
857.397	22683
857.53	22645
857.664	22721
857.797	22752
857.931	22683
858.064	22626
858.197	22679
858.331	22584
858.464	22474
858.597	22679
858.731	22630
858.864	22584
858.997	22550
859.13	22580
859.263	22580
859.396	22748
859.529	22691
859.662	22527
859.795	22611
859.928	22626
860.061	22843
860.194	22774
860.327	22748
860.46	22679
860.592	22782
860.725	22835
860.858	22790
860.99	22698
861.123	22550
861.256	22630
861.388	22546
861.521	23269
861.653	22417
861.786	22466
861.918	22432
862.05	22512
862.183	22550
862.315	22569
862.447	22580
862.58	22508
862.712	22333
862.844	22329
862.976	22470
863.108	22424
863.24	22725
863.372	22306
863.504	22344
863.636	22421
863.768	22310
863.9	22371
864.032	22276
864.164	22360
864.296	22325
864.428	22504
864.559	22394
864.691	22440
864.823	22314
864.954	22398
865.086	22382
865.217	22318
865.349	22040
865.48	22177
865.612	22341
865.743	22318
865.875	22211
866.006	22257
866.137	22268
866.269	22295
866.4	22177
866.531	22124
866.662	21998
866.793	22124
866.924	22166
867.055	22200
867.186	22169
867.317	22147
867.448	22013
867.579	22025
867.71	22101
867.841	22067
867.972	22154
868.103	22177
868.233	22169
868.364	22215
868.495	22188
868.625	22379
868.756	22443
868.886	22329
869.017	22459
869.147	22500
869.278	22504
869.408	22428
869.539	22360
869.669	22459
869.799	22367
869.929	22504
870.06	22516
870.19	22569
870.32	22767
870.45	22717
870.58	22809
870.71	22824
870.84	22755
870.97	22622
871.1	22774
871.23	22965
871.36	22953
871.489	22908
871.619	22908
871.749	22919
871.879	22957
872.008	22927
872.138	22919
872.267	23022
872.397	23018
872.526	22801
872.656	22733
872.785	22858
872.915	23010
873.044	23044
873.173	23090
873.303	23044
873.432	22949
873.561	23223
873.69	23037
873.819	23006
873.948	23067
874.077	23010
874.206	23064
874.335	22904
874.464	23094
874.593	23337
874.722	23109
874.851	23318
874.979	23212
875.108	23204
875.237	23159
875.365	23109
875.494	23124
875.623	23372
875.751	23220
875.88	23372
876.008	23265
876.136	23307
876.265	23558
876.393	23695
876.521	23577
876.65	23718
876.778	23467
876.906	23509
877.034	23509
877.162	23505
877.29	23410
877.418	23509
877.546	23554
877.674	23516
877.802	23471
877.93	23505
878.058	23543
878.185	23341
878.313	23448
878.441	23551
878.568	23292
878.696	23406
878.824	23528
878.951	23554
879.079	23699
879.206	23676
879.333	23695
879.461	23566
879.588	23676
879.715	23832
879.842	23817
879.97	23611
880.097	23307
880.224	23322
880.351	23547
880.478	23425
880.605	23349
880.732	23162
880.859	23680
880.986	23387
881.112	23250
881.239	23231
881.366	23098
881.493	22953
881.619	22961
881.746	22976
881.872	22976
881.999	22820
882.125	22949
882.252	22889
882.378	22828
882.505	22930
882.631	22782
882.757	22793
882.883	22729
883.01	22645
883.136	22523
883.262	22493
883.388	22253
883.514	22508
883.64	22584
883.766	22592
883.892	22424
884.018	22329
884.143	22523
884.269	22542
884.395	22291
884.52	22390
884.646	22242
884.772	22200
884.897	22344
885.023	22154
885.148	22257
885.274	22455
885.399	22363
885.524	22211
885.65	22169
885.775	22234
885.9	22249
886.025	22394
886.15	22215
886.275	22234
886.4	22032
886.525	22253
886.65	22082
886.775	22139
886.9	22337
887.025	22455
887.149	22276
887.274	21998
887.399	21979
887.523	21972
887.648	21983
887.773	21911
887.897	22044
888.021	21979
888.146	21930
888.27	22177
888.395	22025
888.519	22128
888.643	22078
888.767	21994
888.891	21842
889.015	21751
889.139	21854
889.263	21880
889.387	21736
889.511	21953
889.635	21888
889.759	21736
889.883	21591
890.006	21770
890.13	21823
890.254	21667
890.377	21675
890.501	21644
890.624	21519
890.748	21519
890.871	21382
890.995	21397
891.118	21233
891.241	21298
891.364	21443
891.488	21625
891.611	21264
891.734	21363
891.857	21507
891.98	21370
892.103	21447
892.226	21313
892.349	21260
892.471	21116
892.594	21173
892.717	21279
892.839	21207
892.962	21332
893.085	21370
893.207	21116
893.33	21157
893.452	21116
893.575	21241
893.697	21195
893.819	21359
893.941	21382
894.064	21367
894.186	21176
894.308	21173
894.43	21310
894.552	21351
894.674	21222
894.796	21142
894.918	21142
895.04	21241
895.161	21306
895.283	21325
895.405	21192
895.526	21157
895.648	21192
895.769	21203
895.891	21405
896.012	21291
896.134	21154
896.255	21184
896.376	21055
896.498	21214
896.619	21192
896.74	21302
896.861	21336
896.982	21542
897.103	21618
897.224	21534
897.345	21405
897.466	21287
897.587	21420
897.708	21393
897.828	21466
897.949	21382
898.07	21211
898.19	21412
898.311	21576
898.431	21363
898.552	21302
898.672	21454
898.792	21500
898.913	21351
899.033	21222
899.153	21218
899.273	21066
899.393	21142
899.513	21085
899.633	21013
899.753	21157
899.873	20979
899.993	21104
900.113	20929
900.232	21036
900.352	21013
900.472	20876
900.591	20830
900.711	20963
900.83	20899
900.95	20883
901.069	20929
901.189	20735
901.308	20495
901.427	20484
901.546	20324
901.665	20480
901.784	20454
901.904	20351
902.023	20176
902.141	20001
902.26	19963
902.379	20077
902.498	20031
902.617	19818
902.735	19947
902.854	19955
902.973	19906
903.091	19628
903.21	19670
903.328	19582
903.446	19464
903.565	19346
903.683	19472
903.801	19236
903.919	19350
904.038	19365
904.156	19274
904.274	19308
904.392	19129
904.51	19168
904.627	19187
904.745	19225
904.863	19190
904.981	18905
905.098	18966
905.216	18772
905.334	18905
905.451	18806
905.569	18932
905.686	18867
905.803	18817
905.921	18661
906.038	18711
906.155	18684
906.272	18593
906.389	18570
906.506	18372
906.623	18403
906.74	18384
906.857	18258
906.974	18110
907.091	18346
907.208	18525
907.324	18361
907.441	18197
907.557	18045
907.674	18038
907.79	17969
907.907	18038
908.023	18102
908.139	18087
908.256	18034
908.372	17950
908.488	18030
908.604	17866
908.72	17798
908.836	17851
908.952	17703
909.068	17756
909.184	17855
909.3	17859
909.415	17821
909.531	17714
909.647	17532
909.762	17478
909.878	17448
909.993	17490
910.108	17360
910.224	17436
910.339	17425
910.454	17353
910.57	17311
910.685	17231
910.8	17406
910.915	17406
911.03	17204
911.145	17086
911.259	17189
911.374	16984
911.489	16980
911.604	16987
911.718	16774
911.833	16782
911.947	16615
912.062	16637
912.176	16736
912.291	16748
912.405	16778
912.519	16968
912.633	17083
912.748	16850
912.862	16752
912.976	16607
913.09	16451
913.204	16607
913.318	16504
913.431	16649
913.545	16653
913.659	16767
913.772	16497
913.886	16382
914	16261
914.113	16481
914.226	16474
914.34	16599
914.453	16276
914.566	16360
914.68	16257
914.793	16226
914.906	16032
915.019	15975
915.132	15930
915.245	15857
915.358	15991
915.47	15987
915.583	15945
915.696	15911
915.809	15968
915.921	16002
916.034	15835
916.146	15895
916.259	15812
916.371	15922
916.483	15930
916.595	15812
916.708	15736
916.82	15713
916.932	15778
917.044	15739
917.156	15747
917.268	15561
917.38	15625
917.491	15595
917.603	15496
917.715	15644
917.826	15709
917.938	15580
918.049	15351
918.161	15511
918.272	15584
918.384	15675
918.495	15519
918.606	15359
918.717	15264
918.828	15374
918.939	15321
919.05	15321
919.161	15310
919.272	15055
919.383	15203
919.494	15264
919.604	15466
919.715	15241
919.826	15161
919.936	15298
920.047	15325
920.157	15245
920.267	15416
920.378	15332
920.488	15264
920.598	15397
920.708	15500
920.818	15420
920.928	15386
921.038	15618
921.148	15408
921.258	15218
921.368	15108
921.477	15017
921.587	14960
921.697	14849
921.806	15055
921.916	14883
922.025	14670
922.134	14632
922.244	14571
922.353	14613
922.462	14446
922.571	14389
922.68	14275
922.789	14290
922.898	14290
923.007	14195
923.116	14229
923.224	14237
923.333	14210
923.442	14081
923.55	14035
923.659	14145
923.767	14206
923.876	14046
923.984	14062
924.092	13860
924.201	14027
924.309	13906
924.417	13944
924.525	13879
924.633	13894
924.741	14887
924.849	13624
924.956	13849
925.064	13704
925.172	13597
925.279	13628
925.387	13712
925.494	13609
925.602	13655
925.709	13636
925.816	13476
925.924	13537
926.031	13609
926.138	13518
926.245	13670
926.352	13407
926.459	13575
926.566	13605
926.673	13491
926.779	13358
926.886	13312
926.993	13175
927.099	13221
927.206	13183
927.312	13091
927.419	13145
927.525	13164
927.631	13137
927.737	13050
927.843	12966
927.95	12890
928.056	13053
928.162	12989
928.267	13069
928.373	13628
928.479	13080
928.585	12871
928.69	12958
928.796	13019
928.901	12837
929.007	12764
929.112	12764
929.218	12783
929.323	12677
929.428	12688
929.533	12852
929.638	12684
929.743	12627
929.848	12604
929.953	12601
930.058	12540
930.163	12395
930.267	12410
930.372	12525
930.477	12235
930.581	12513
930.685	12365
930.79	12209
930.894	12327
930.998	12201
931.103	12289
931.207	11977
931.311	11889
931.415	11824
931.519	11592
931.623	11577
