Data from test_V78500241_2225.txt Node
Date: Fri Mar 25 15:57:12 CST 2022
User: usil
Spectrometer: V785-0024
Trigger mode: 0
Integration Time (sec): 4.000000E-1
Scans to average: 1
Nonlinearity correction enabled: false
Boxcar width: 0
Storing dark spectrum: false
XAxis mode: Wavelengths
Number of Pixels in Spectrum: 1024
>>>>>Begin Spectral Data<<<<<
801.071	29212
801.214	29235
801.356	28927
801.499	28862
801.641	28831
801.783	28774
801.926	28702
802.068	28660
802.211	28828
802.353	28801
802.496	28622
802.638	28470
802.78	28421
802.923	28398
803.065	28291
803.208	28428
803.35	28546
803.492	28443
803.635	28634
803.777	28542
803.919	28687
804.061	29022
804.204	28824
804.346	28641
804.488	28687
804.63	28801
804.773	28653
804.915	28713
805.057	28919
805.199	28725
805.341	28797
805.483	28797
805.626	28858
805.768	28908
805.91	29037
806.052	28843
806.194	28862
806.336	29048
806.478	28911
806.62	28850
806.762	28987
806.904	29140
807.046	29406
807.188	29379
807.33	29322
807.472	29337
807.614	29261
807.756	29433
807.898	29204
808.04	29128
808.182	29159
808.324	29280
808.465	29216
808.607	29433
808.749	29535
808.891	29665
809.033	29752
809.174	29649
809.316	29566
809.458	29611
809.6	29630
809.741	29642
809.883	29756
810.025	29866
810.166	29916
810.308	29935
810.45	29760
810.591	29779
810.733	29672
810.875	29676
811.016	29482
811.158	29714
811.299	29684
811.441	29790
811.582	29980
811.724	29680
811.865	29638
812.007	29676
812.148	29589
812.29	29699
812.431	29767
812.573	30060
812.714	29999
812.855	30220
812.997	30247
813.138	30395
813.279	30311
813.421	30270
813.562	30121
813.703	30076
813.845	29855
813.986	29611
814.127	29543
814.268	29345
814.41	29391
814.551	29471
814.692	29372
814.833	29166
814.974	29349
815.115	29455
815.256	29277
815.397	29292
815.539	29193
815.68	29181
815.821	29098
815.962	29075
816.103	29132
816.244	29094
816.385	28938
816.526	29033
816.666	28805
816.807	28694
816.948	28843
817.089	28877
817.23	28748
817.371	28733
817.512	28645
817.653	28630
817.793	28588
817.934	28748
818.075	28694
818.216	28702
818.356	28523
818.497	28527
818.638	28360
818.778	28523
818.919	28497
819.06	28481
819.2	28451
819.341	28733
819.481	28691
819.622	28896
819.762	29086
819.903	29052
820.043	28839
820.184	28885
820.324	28774
820.465	28949
820.605	28752
820.746	28892
820.886	28771
821.026	28904
821.167	28805
821.307	28965
821.447	28805
821.588	28656
821.728	28489
821.868	28276
822.008	28226
822.149	28261
822.289	28207
822.429	27854
822.569	27838
822.709	27907
822.849	27823
822.99	27781
823.13	27728
823.27	27675
823.41	27458
823.55	27511
823.69	27583
823.83	27637
823.97	27458
824.11	27340
824.25	27340
824.389	27382
824.529	27454
824.669	27310
824.809	27500
824.949	27427
825.089	27397
825.228	27351
825.368	27192
825.508	27138
825.648	27249
825.787	27245
825.927	27275
826.067	27325
826.206	27211
826.346	27298
826.485	27317
826.625	27291
826.765	27378
826.904	27192
827.044	27116
827.183	26986
827.323	26853
827.462	27013
827.601	26963
827.741	26868
827.88	27028
828.02	27032
828.159	26868
828.298	26963
828.437	27039
828.577	26864
828.716	27051
828.855	26807
828.994	26693
829.134	26678
829.273	26724
829.412	26697
829.551	26533
829.69	26731
829.829	26686
829.968	26765
830.107	26705
830.246	26667
830.385	26461
830.524	26560
830.663	26385
830.802	26396
830.941	26183
831.08	26206
831.219	26377
831.357	26339
831.496	26518
831.635	26358
831.774	26161
831.913	26187
832.051	25875
832.19	26103
832.329	26084
832.467	26062
832.606	25947
832.744	25826
832.883	25826
833.022	25852
833.16	25986
833.299	25890
833.437	26024
833.576	26001
833.714	25947
833.852	26073
833.991	26069
834.129	25993
834.267	26115
834.406	26161
834.544	26065
834.682	25986
834.821	25913
834.959	26176
835.097	26039
835.235	26043
835.373	25940
835.511	25887
835.65	25761
835.788	25841
835.926	25571
836.064	25715
836.202	25681
836.34	25704
836.478	25814
836.615	25795
836.753	25852
836.891	25921
837.029	25811
837.167	25651
837.305	25685
837.443	25734
837.58	25518
837.718	25658
837.856	25643
837.993	25712
838.131	25685
838.269	25479
838.406	25609
838.544	25479
838.681	25202
838.819	25339
838.956	25080
839.094	25164
839.231	25137
839.369	25289
839.506	25381
839.643	25301
839.781	25095
839.918	24981
840.055	25171
840.193	25080
840.33	24958
840.467	25012
840.604	25202
840.742	25247
840.879	24810
841.016	24894
841.153	24920
841.29	25023
841.427	24924
841.564	24985
841.701	25042
841.838	24886
841.975	24916
842.112	24856
842.249	24905
842.385	24734
842.522	24943
842.659	24871
842.796	24798
842.933	24749
843.069	24711
843.206	24703
843.343	24688
843.479	24684
843.616	24806
843.752	24407
843.889	24582
844.025	24661
844.162	24570
844.298	24635
844.435	24509
844.571	24505
844.708	24646
844.844	24654
844.98	24563
845.117	24437
845.253	24574
845.389	24232
845.525	24426
845.661	24452
845.798	24353
845.934	24323
846.07	24224
846.206	24072
846.342	24338
846.478	24216
846.614	24022
846.75	23878
846.886	24015
847.022	24045
847.158	23870
847.294	24072
847.429	24076
847.565	24015
847.701	24167
847.837	23783
847.972	23608
848.108	23798
848.244	23863
848.379	23551
848.515	23478
848.65	23570
848.786	23566
848.921	23543
849.057	23577
849.192	23668
849.328	23642
849.463	23543
849.598	23524
849.734	23417
849.869	23444
850.004	23322
850.14	23322
850.275	23326
850.41	23372
850.545	23398
850.68	23303
850.815	23280
850.95	23364
851.085	23478
851.22	23292
851.355	23318
851.49	23258
851.625	23307
851.76	23261
851.895	23261
852.03	23193
852.165	23284
852.299	23448
852.434	23398
852.569	23360
852.703	23356
852.838	23421
852.973	23414
853.107	23417
853.242	23353
853.376	23117
853.511	23064
853.645	23189
853.78	23288
853.914	23193
854.048	23056
854.183	23022
854.317	23151
854.451	23303
854.585	23098
854.72	23185
854.854	23250
854.988	22995
855.122	23132
855.256	23075
855.39	23098
855.524	23060
855.658	23269
855.792	23227
855.926	23231
856.06	23181
856.194	23254
856.327	23181
856.461	22999
856.595	23067
856.729	22930
856.862	23174
856.996	23067
857.13	23231
857.263	23204
857.397	23147
857.53	23105
857.664	23292
857.797	23174
857.931	23341
858.064	23147
858.197	23216
858.331	23079
858.464	23098
858.597	22980
858.731	23075
858.864	23048
858.997	22968
859.13	23083
859.263	23170
859.396	23220
859.529	23113
859.662	23083
859.795	23132
859.928	23075
860.061	23360
860.194	23277
860.327	23105
860.46	23121
860.592	23250
860.725	23326
860.858	23239
860.99	23200
861.123	23003
861.256	23143
861.388	23060
861.521	23821
861.653	23079
861.786	22866
861.918	22862
862.05	22938
862.183	22968
862.315	22957
862.447	23109
862.58	23056
862.712	22828
862.844	22759
862.976	22866
863.108	22759
863.24	23227
863.372	22675
863.504	22877
863.636	22828
863.768	22892
863.9	22675
864.032	22763
864.164	22790
864.296	22889
864.428	22965
864.559	22976
864.691	22862
864.823	22748
864.954	22736
865.086	22725
865.217	22774
865.349	22691
865.48	22694
865.612	22683
865.743	22752
865.875	22759
866.006	22596
866.137	22660
866.269	22687
866.4	22656
866.531	22649
866.662	22596
866.793	22577
866.924	22649
867.055	22596
867.186	22478
867.317	22535
867.448	22546
867.579	22538
867.71	22550
867.841	22504
867.972	22618
868.103	22592
868.233	22554
868.364	22660
868.495	22713
868.625	22820
868.756	22919
868.886	22736
869.017	22828
869.147	22869
869.278	22919
869.408	22816
869.539	22927
869.669	22866
869.799	22965
869.929	23033
870.06	22961
870.19	23143
870.32	23086
870.45	23261
870.58	23277
870.71	23307
870.84	23368
870.97	23071
871.1	23143
871.23	23383
871.36	23410
871.489	23421
871.619	23444
871.749	23474
871.879	23497
872.008	23478
872.138	23383
872.267	23376
872.397	23239
872.526	23258
872.656	23254
872.785	23250
872.915	23459
873.044	23604
873.173	23410
873.303	23531
873.432	23501
873.561	23634
873.69	23490
873.819	23543
873.948	23573
874.077	23459
874.206	23315
874.335	23444
874.464	23554
874.593	23604
874.722	23642
874.851	23577
874.979	23729
875.108	23794
875.237	23573
875.365	23558
875.494	23722
875.623	23646
875.751	23604
875.88	23779
876.008	23745
876.136	23870
876.265	23996
876.393	24304
876.521	24007
876.65	24197
876.778	23946
876.906	24079
877.034	24083
877.162	23935
877.29	23950
877.418	23969
877.546	24007
877.674	23950
877.802	24098
877.93	23984
878.058	23882
878.185	23775
878.313	23878
878.441	23965
878.568	23809
878.696	23965
878.824	23992
878.951	24129
879.079	24106
879.206	24353
879.333	24091
879.461	24026
879.588	24133
879.715	24144
879.842	24155
879.97	24152
880.097	23847
880.224	23866
880.351	23729
880.478	23870
880.605	23646
880.732	23790
880.859	24098
880.986	23901
881.112	23847
881.239	23676
881.366	23512
881.493	23516
881.619	23490
881.746	23497
881.872	23387
881.999	23242
882.125	23326
882.252	23474
882.378	23143
882.505	23486
882.631	23250
882.757	22987
882.883	23022
883.01	23109
883.136	23025
883.262	22873
883.388	22847
883.514	23113
883.64	23155
883.766	22923
883.892	22702
884.018	22767
884.143	22942
884.269	23090
884.395	22831
884.52	22577
884.646	22672
884.772	22634
884.897	22596
885.023	22755
885.148	22782
885.274	22774
885.399	22702
885.524	22755
885.65	22672
885.775	22672
885.9	22519
886.025	22713
886.15	22694
886.275	22523
886.4	22512
886.525	22523
886.65	22550
886.775	22557
886.9	22782
887.025	22740
887.149	22645
887.274	22519
887.399	22447
887.523	22371
887.648	22382
887.773	22303
887.897	22535
888.021	22504
888.146	22318
888.27	22546
888.395	22645
888.519	22428
888.643	22344
888.767	22466
888.891	22424
889.015	22112
889.139	22147
889.263	22188
889.387	22363
889.511	22421
889.635	22318
889.759	22063
889.883	22207
890.006	22158
890.13	22238
890.254	22162
890.377	22097
890.501	21903
890.624	21934
890.748	22029
890.871	21755
890.995	21720
891.118	21660
891.241	21797
891.364	21701
891.488	21907
891.611	21751
891.734	21717
891.857	21804
891.98	21713
892.103	21854
892.226	21808
892.349	21728
892.471	21492
892.594	21724
892.717	21595
892.839	21637
892.962	21603
893.085	21633
893.207	21641
893.33	21583
893.452	21542
893.575	21614
893.697	21561
893.819	21888
893.941	21774
894.064	21774
894.186	21538
894.308	21431
894.43	21629
894.552	21797
894.674	21625
894.796	21447
894.918	21701
895.04	21564
895.161	21610
895.283	21572
895.405	21603
895.526	21561
895.648	21618
895.769	21606
895.891	21454
896.012	21652
896.134	21576
896.255	21576
896.376	21526
896.498	21568
896.619	21618
896.74	21625
896.861	21755
896.982	21793
897.103	22029
897.224	21819
897.345	21732
897.466	21778
897.587	21717
897.708	21953
897.828	21876
897.949	21724
898.07	21606
898.19	21732
898.311	21869
898.431	21736
898.552	21789
898.672	21869
898.792	21762
898.913	21747
899.033	21591
899.153	21549
899.273	21450
899.393	21458
899.513	21515
899.633	21538
899.753	21728
899.873	21408
899.993	21530
900.113	21469
900.232	21511
900.352	21401
900.472	21317
900.591	21104
900.711	21310
900.83	21226
900.95	21374
901.069	21386
901.189	21180
901.308	21032
901.427	20773
901.546	20762
901.665	20804
901.784	20777
901.904	20602
902.023	20632
902.141	20415
902.26	20278
902.379	20423
902.498	20301
902.617	20275
902.735	20328
902.854	20324
902.973	20191
903.091	19913
903.21	19967
903.328	19906
903.446	19837
903.565	19727
903.683	19769
903.801	19715
903.919	19620
904.038	19685
904.156	19537
904.274	19662
904.392	19620
904.51	19502
904.627	19495
904.745	19552
904.863	19441
904.981	19240
905.098	19084
905.216	19042
905.334	19270
905.451	19137
905.569	19156
905.686	19251
905.803	19168
905.921	18947
906.038	19034
906.155	18981
906.272	18913
906.389	18837
906.506	18734
906.623	18684
906.74	18741
906.857	18650
906.974	18601
907.091	18741
907.208	18787
907.324	18688
907.441	18547
907.557	18380
907.674	18448
907.79	18308
907.907	18357
908.023	18479
908.139	18414
908.256	18429
908.372	18224
908.488	18289
908.604	18079
908.72	18076
908.836	18060
908.952	18038
909.068	18095
909.184	18232
909.3	18022
909.415	18117
909.531	18072
909.647	17832
909.762	17748
909.878	17737
909.993	17851
910.108	17786
910.224	17828
910.339	17676
910.454	17649
910.57	17596
910.685	17649
910.8	17863
910.915	17680
911.03	17551
911.145	17410
911.259	17288
911.374	17376
911.489	17299
911.604	17231
911.718	17079
911.833	17140
911.947	17128
912.062	16946
912.176	17102
912.291	17083
912.405	17128
912.519	17277
912.633	17334
912.748	17185
912.862	17033
912.976	16957
913.09	16824
913.204	16900
913.318	16976
913.431	16946
913.545	16961
913.659	17052
913.772	16755
913.886	16729
914	16706
914.113	16782
914.226	16835
914.34	16702
914.453	16535
914.566	16790
914.68	16558
914.793	16489
914.906	16333
915.019	16325
915.132	16196
915.245	16238
915.358	16253
915.47	16261
915.583	16246
915.696	16257
915.809	16287
915.921	16421
916.034	16204
916.146	16169
916.259	16116
916.371	16128
916.483	16177
916.595	16048
916.708	16082
916.82	16101
916.932	15991
917.044	16044
917.156	16029
917.268	15960
917.38	15960
917.491	15854
917.603	15838
917.715	16013
917.826	15972
917.938	15690
918.049	15709
918.161	15800
918.272	15941
918.384	15899
918.495	15816
918.606	15732
918.717	15519
918.828	15633
918.939	15603
919.05	15511
919.161	15557
919.272	15492
919.383	15359
919.494	15564
919.604	15816
919.715	15481
919.826	15416
919.936	15542
920.047	15580
920.157	15644
920.267	15701
920.378	15572
920.488	15568
920.598	15633
920.708	15812
920.818	15785
920.928	15660
921.038	15800
921.148	15778
921.258	15443
921.368	15344
921.477	15279
921.587	15268
921.697	15165
921.806	15306
921.916	15176
922.025	15013
922.134	14986
922.244	14769
922.353	14864
922.462	14758
922.571	14682
922.68	14613
922.789	14530
922.898	14621
923.007	14457
923.116	14560
923.224	14518
923.333	14488
923.442	14377
923.55	14343
923.659	14374
923.767	14480
923.876	14328
923.984	14396
924.092	14240
924.201	14244
924.309	14214
924.417	14278
924.525	14153
924.633	14210
924.741	14929
924.849	13879
924.956	14111
925.064	13879
925.172	13868
925.279	13852
925.387	14016
925.494	13864
925.602	14001
925.709	13947
925.816	13746
925.924	13795
926.031	13993
926.138	13811
926.245	13860
926.352	13761
926.459	13784
926.566	13830
926.673	13712
926.779	13639
926.886	13666
926.993	13476
927.099	13438
927.206	13403
927.312	13403
927.419	13369
927.525	13388
927.631	13491
927.737	13225
927.843	13190
927.95	13107
928.056	13240
928.162	13247
928.267	13213
928.373	13928
928.479	13331
928.585	13034
928.69	13122
928.796	13266
928.901	13080
929.007	12882
929.112	13027
929.218	13076
929.323	12935
929.428	12856
929.533	13004
929.638	12802
929.743	12867
929.848	12943
929.953	12833
930.058	12779
930.163	12582
930.267	12616
930.372	12681
930.477	12563
930.581	12760
930.685	12635
930.79	12384
930.894	12437
930.998	12414
931.103	12551
931.207	12133
931.311	12098
931.415	11961
931.519	11889
931.623	11767
