Data from test_V78500241_2580.txt Node
Date: Fri Mar 25 15:59:40 CST 2022
User: usil
Spectrometer: V785-0024
Trigger mode: 0
Integration Time (sec): 4.000000E-1
Scans to average: 1
Nonlinearity correction enabled: false
Boxcar width: 0
Storing dark spectrum: false
XAxis mode: Wavelengths
Number of Pixels in Spectrum: 1024
>>>>>Begin Spectral Data<<<<<
801.071	28322
801.214	28291
801.356	27987
801.499	27937
801.641	27800
801.783	27991
801.926	27914
802.068	27732
802.211	27869
802.353	27770
802.496	27679
802.638	27823
802.78	27447
802.923	27439
803.065	27443
803.208	27557
803.35	27492
803.492	27766
803.635	27835
803.777	27690
803.919	27743
804.061	28196
804.204	28025
804.346	27857
804.488	27549
804.63	27956
804.773	27778
804.915	27914
805.057	27918
805.199	27857
805.341	27804
805.483	27953
805.626	28017
805.768	27823
805.91	27964
806.052	27956
806.194	27899
806.336	28097
806.478	27979
806.62	27979
806.762	28032
806.904	28249
807.046	28531
807.188	28405
807.33	28462
807.472	28512
807.614	28344
807.756	28333
807.898	28322
808.04	28272
808.182	28173
808.324	28306
808.465	28211
808.607	28447
808.749	28611
808.891	28847
809.033	28752
809.174	28626
809.316	28580
809.458	28687
809.6	28622
809.741	28820
809.883	28805
810.025	28904
810.166	28900
810.308	28896
810.45	28843
810.591	28820
810.733	28774
810.875	28634
811.016	28481
811.158	28565
811.299	28736
811.441	28812
811.582	28763
811.724	28626
811.865	28588
812.007	28687
812.148	28409
812.29	28618
812.431	28831
812.573	28900
812.714	29090
812.855	29056
812.997	29117
813.138	29360
813.279	29284
813.421	29140
813.562	29083
813.703	28949
813.845	28672
813.986	28622
814.127	28314
814.268	28154
814.41	28337
814.551	28173
814.692	28462
814.833	28120
814.974	28147
815.115	28398
815.256	28249
815.397	28105
815.539	28295
815.68	28059
815.821	28143
815.962	28150
816.103	28143
816.244	27930
816.385	27979
816.526	27884
816.666	27660
816.807	27629
816.948	27762
817.089	27732
817.23	27724
817.371	27652
817.512	27625
817.653	27538
817.793	27549
817.934	27568
818.075	27694
818.216	27568
818.356	27591
818.497	27492
818.638	27336
818.778	27268
818.919	27424
819.06	27408
819.2	27564
819.341	27580
819.481	27774
819.622	27865
819.762	27937
819.903	27831
820.043	27675
820.184	27694
820.324	27694
820.465	27827
820.605	27736
820.746	27652
820.886	27542
821.026	27656
821.167	27705
821.307	27736
821.447	27648
821.588	27549
821.728	27447
821.868	27237
822.008	27127
822.149	27116
822.289	27104
822.429	26857
822.569	26724
822.709	26712
822.849	26667
822.99	26796
823.13	26549
823.27	26488
823.41	26560
823.55	26347
823.69	26446
823.83	26594
823.97	26431
824.11	26275
824.25	26176
824.389	26221
824.529	26317
824.669	26225
824.809	26374
824.949	26427
825.089	26301
825.228	26366
825.368	26043
825.508	26149
825.648	26043
825.787	26221
825.927	26225
826.067	26050
826.206	26244
826.346	26240
826.485	26119
826.625	26275
826.765	26229
826.904	26119
827.044	25955
827.183	25795
827.323	25963
827.462	25909
827.601	25909
827.741	25852
827.88	25925
828.02	25731
828.159	25734
828.298	25753
828.437	25944
828.577	25894
828.716	25845
828.855	25689
828.994	25594
829.134	25518
829.273	25548
829.412	25392
829.551	25460
829.69	25552
829.829	25460
829.968	25670
830.107	25655
830.246	25441
830.385	25472
830.524	25472
830.663	25415
830.802	25179
830.941	25202
831.08	25027
831.219	25255
831.357	25114
831.496	25362
831.635	25282
831.774	25004
831.913	24962
832.051	25000
832.19	25004
832.329	24962
832.467	24871
832.606	24745
832.744	24658
832.883	24722
833.022	24909
833.16	24722
833.299	24749
833.437	24848
833.576	24852
833.714	24973
833.852	25015
833.991	24909
834.129	25004
834.267	25000
834.406	24916
834.544	24905
834.682	24798
834.821	24837
834.959	25057
835.097	24833
835.235	24867
835.373	24753
835.511	24840
835.65	24749
835.788	24726
835.926	24635
836.064	24502
836.202	24608
836.34	24734
836.478	24738
836.615	24738
836.753	24696
836.891	24681
837.029	24635
837.167	24536
837.305	24505
837.443	24589
837.58	24559
837.718	24642
837.856	24578
837.993	24414
838.131	24384
838.269	24410
838.406	24479
838.544	24410
838.681	24224
838.819	24053
838.956	23931
839.094	23901
839.231	24140
839.369	24064
839.506	24323
839.643	24239
839.781	23988
839.918	23923
840.055	23973
840.193	24007
840.33	24011
840.467	23920
840.604	23851
840.742	24121
840.879	23741
841.016	23973
841.153	23828
841.29	24030
841.427	23817
841.564	23954
841.701	23874
841.838	23939
841.975	23794
842.112	23798
842.249	23699
842.385	23680
842.522	23859
842.659	23767
842.796	23657
842.933	23737
843.069	23577
843.206	23554
843.343	23703
843.479	23737
843.616	23566
843.752	23356
843.889	23520
844.025	23608
844.162	23459
844.298	23471
844.435	23417
844.571	23337
844.708	23471
844.844	23524
844.98	23539
845.117	23497
845.253	23379
845.389	23242
845.525	23356
845.661	23337
845.798	23128
845.934	23147
846.07	23098
846.206	23166
846.342	23269
846.478	23086
846.614	23003
846.75	22774
846.886	22892
847.022	22904
847.158	22980
847.294	22930
847.429	23090
847.565	22908
847.701	22980
847.837	22645
847.972	22668
848.108	22733
848.244	22615
848.379	22489
848.515	22363
848.65	22451
848.786	22329
848.921	22565
849.057	22557
849.192	22489
849.328	22500
849.463	22478
849.598	22538
849.734	22363
849.869	22341
850.004	22303
850.14	22329
850.275	22276
850.41	22147
850.545	22025
850.68	22169
850.815	22177
850.95	22215
851.085	22360
851.22	22284
851.355	22272
851.49	22253
851.625	22196
851.76	22078
851.895	21983
852.03	22101
852.165	22192
852.299	22306
852.434	22440
852.569	22348
852.703	22215
852.838	22265
852.973	22348
853.107	22402
853.242	22097
853.376	22048
853.511	21915
853.645	22093
853.78	22124
853.914	22017
854.048	22097
854.183	22067
854.317	22036
854.451	22139
854.585	22017
854.72	22101
854.854	22207
854.988	21930
855.122	22120
855.256	21926
855.39	22158
855.524	22082
855.658	22101
855.792	22051
855.926	22078
856.06	21994
856.194	22158
856.327	21979
856.461	21979
856.595	22040
856.729	21964
856.862	22162
856.996	22124
857.13	22128
857.263	22131
857.397	22135
857.53	22162
857.664	22051
857.797	22074
857.931	22150
858.064	22025
858.197	22101
858.331	22093
858.464	21991
858.597	21934
858.731	21987
858.864	21926
858.997	21937
859.13	22036
859.263	22010
859.396	22291
859.529	22021
859.662	21949
859.795	22013
859.928	22067
860.061	22204
860.194	22219
860.327	22200
860.46	22048
860.592	22120
860.725	22238
860.858	22185
860.99	22002
861.123	21934
861.256	22017
861.388	22105
861.521	22790
861.653	21953
861.786	21785
861.918	21831
862.05	21873
862.183	21907
862.315	22017
862.447	22135
862.58	22051
862.712	21682
862.844	21701
862.976	21812
863.108	21804
863.24	22276
863.372	21842
863.504	21728
863.636	21728
863.768	21804
863.9	21732
864.032	21717
864.164	21819
864.296	21808
864.428	21793
864.559	21819
864.691	21732
864.823	21759
864.954	21755
865.086	21656
865.217	21671
865.349	21614
865.48	21530
865.612	21599
865.743	21861
865.875	21675
866.006	21583
866.137	21587
866.269	21625
866.4	21618
866.531	21690
866.662	21530
866.793	21572
866.924	21614
867.055	21492
867.186	21542
867.317	21614
867.448	21557
867.579	21439
867.71	21511
867.841	21477
867.972	21519
868.103	21568
868.233	21663
868.364	21447
868.495	21648
868.625	21804
868.756	21926
868.886	21694
869.017	21956
869.147	21850
869.278	21941
869.408	21789
869.539	21907
869.669	21827
869.799	21842
869.929	21842
870.06	21956
870.19	22036
870.32	22093
870.45	22287
870.58	22109
870.71	22200
870.84	22268
870.97	22280
871.1	22105
871.23	22306
871.36	22421
871.489	22257
871.619	22398
871.749	22424
871.879	22447
872.008	22462
872.138	22424
872.267	22341
872.397	22287
872.526	22226
872.656	22261
872.785	22147
872.915	22466
873.044	22523
873.173	22497
873.303	22447
873.432	22405
873.561	22432
873.69	22542
873.819	22500
873.948	22428
874.077	22356
874.206	22367
874.335	22432
874.464	22489
874.593	22615
874.722	22748
874.851	22679
874.979	22546
875.108	22580
875.237	22588
875.365	22577
875.494	22778
875.623	22672
875.751	22740
875.88	22641
876.008	22866
876.136	22801
876.265	22976
876.393	23212
876.521	23162
876.65	23121
876.778	23022
876.906	23022
877.034	22987
877.162	23060
877.29	22942
877.418	23056
877.546	22984
877.674	22961
877.802	23041
877.93	23037
878.058	22919
878.185	22771
878.313	22946
878.441	22835
878.568	22820
878.696	22965
878.824	23166
878.951	23098
879.079	23189
879.206	23448
879.333	23113
879.461	22972
879.588	23109
879.715	23170
879.842	23360
879.97	23128
880.097	22759
880.224	22850
880.351	22908
880.478	22778
880.605	22805
880.732	22793
880.859	23159
880.986	22797
881.112	22892
881.239	22702
881.366	22523
881.493	22500
881.619	22436
881.746	22462
881.872	22466
881.999	22352
882.125	22310
882.252	22344
882.378	22402
882.505	22531
882.631	22291
882.757	22112
882.883	22048
883.01	22025
883.136	22032
883.262	21945
883.388	21922
883.514	22211
883.64	22192
883.766	21934
883.892	21915
884.018	21762
884.143	22040
884.269	22074
884.395	21762
884.52	21724
884.646	21835
884.772	21614
884.897	21675
885.023	21739
885.148	21732
885.274	21819
885.399	21835
885.524	21614
885.65	21652
885.775	21648
885.9	21652
886.025	21941
886.15	21770
886.275	21682
886.4	21572
886.525	21610
886.65	21644
886.775	21679
886.9	21701
887.025	21873
887.149	21641
887.274	21580
887.399	21587
887.523	21530
887.648	21428
887.773	21424
887.897	21523
888.021	21500
888.146	21336
888.27	21523
888.395	21564
888.519	21393
888.643	21545
888.767	21576
888.891	21458
889.015	21256
889.139	21241
889.263	21329
889.387	21272
889.511	21447
889.635	21340
889.759	21241
889.883	21275
890.006	21256
890.13	21302
890.254	21214
890.377	21203
890.501	21051
890.624	20998
890.748	21062
890.871	20876
890.995	20872
891.118	20788
891.241	20891
891.364	20952
891.488	21017
891.611	20857
891.734	21001
891.857	20773
891.98	20838
892.103	20842
892.226	20830
892.349	20716
892.471	20598
892.594	20842
892.717	20697
892.839	20606
892.962	20739
893.085	20731
893.207	20842
893.33	20602
893.452	20663
893.575	20708
893.697	20636
893.819	20895
893.941	20925
894.064	20857
894.186	20636
894.308	20689
894.43	20834
894.552	20830
894.674	20800
894.796	20594
894.918	20590
895.04	20830
895.161	20830
895.283	20716
895.405	20609
895.526	20697
895.648	20731
895.769	20648
895.891	20724
896.012	20872
896.134	20629
896.255	20564
896.376	20750
896.498	20746
896.619	20640
896.74	20689
896.861	20804
896.982	20975
897.103	21150
897.224	21024
897.345	20925
897.466	20853
897.587	20845
897.708	20998
897.828	20986
897.949	20876
898.07	20655
898.19	20705
898.311	20887
898.431	20834
898.552	20910
898.672	20982
898.792	20944
898.913	20925
899.033	20895
899.153	20792
899.273	20724
899.393	20629
899.513	20674
899.633	20541
899.753	20720
899.873	20587
899.993	20708
900.113	20488
900.232	20617
900.352	20511
900.472	20530
900.591	20400
900.711	20511
900.83	20385
900.95	20568
901.069	20450
901.189	20404
901.308	20176
901.427	20050
901.546	19989
901.665	19986
901.784	19944
901.904	19928
902.023	19731
902.141	19491
902.26	19525
902.379	19597
902.498	19487
902.617	19529
902.735	19506
902.854	19609
902.973	19263
903.091	19266
903.21	19027
903.328	19198
903.446	19065
903.565	18981
903.683	18928
903.801	19031
903.919	18962
904.038	18951
904.156	18772
904.274	18848
904.392	18700
904.51	18719
904.627	18757
904.745	18738
904.863	18867
904.981	18589
905.098	18448
905.216	18384
905.334	18372
905.451	18418
905.569	18308
905.686	18426
905.803	18418
905.921	18144
906.038	18235
906.155	18357
906.272	18110
906.389	18098
906.506	17954
906.623	17961
906.74	17965
906.857	17794
906.974	17897
907.091	17885
907.208	18007
907.324	17931
907.441	17828
907.557	17573
907.674	17600
907.79	17573
907.907	17668
908.023	17592
908.139	17638
908.256	17486
908.372	17452
908.488	17562
908.604	17478
908.72	17296
908.836	17410
908.952	17326
909.068	17349
909.184	17455
909.3	17334
909.415	17444
909.531	17349
909.647	17102
909.762	17102
909.878	17010
909.993	16976
910.108	17079
910.224	16942
910.339	17045
910.454	16915
910.57	16854
910.685	16717
910.8	17029
910.915	17006
911.03	16793
911.145	16725
911.259	16660
911.374	16580
911.489	16584
911.604	16402
911.718	16352
911.833	16394
911.947	16268
912.062	16207
912.176	16375
912.291	16386
912.405	16424
912.519	16622
912.633	16577
912.748	16474
912.862	16341
912.976	16284
913.09	16147
913.204	16086
913.318	16215
913.431	16325
913.545	16188
913.659	16371
913.772	16162
913.886	16029
914	16078
914.113	16036
914.226	16071
914.34	16025
914.453	15975
914.566	15994
914.68	15857
914.793	15854
914.906	15766
915.019	15603
915.132	15458
915.245	15488
915.358	15690
915.47	15530
915.583	15492
915.696	15523
915.809	15660
915.921	15713
916.034	15485
916.146	15420
916.259	15389
916.371	15564
916.483	15473
916.595	15378
916.708	15370
916.82	15374
916.932	15374
917.044	15344
917.156	15302
917.268	15249
917.38	15180
917.491	15256
917.603	15230
917.715	15325
917.826	15351
917.938	15161
918.049	15047
918.161	15077
918.272	15211
918.384	15264
918.495	15142
918.606	15001
918.717	15020
918.828	14956
918.939	15001
919.05	14804
919.161	14868
919.272	14724
919.383	14724
919.494	14918
919.604	15039
919.715	14914
919.826	14838
919.936	14872
920.047	14952
920.157	14944
920.267	15112
920.378	14944
920.488	14921
920.598	15001
920.708	15135
920.818	15020
920.928	14971
921.038	15138
921.148	15070
921.258	14853
921.368	14773
921.477	14640
921.587	14537
921.697	14552
921.806	14617
921.916	14530
922.025	14324
922.134	14259
922.244	14210
922.353	14263
922.462	14138
922.571	14134
922.68	13989
922.789	14005
922.898	13951
923.007	13940
923.116	13947
923.224	13951
923.333	13890
923.442	13685
923.55	13833
923.659	13803
923.767	13921
923.876	13685
923.984	13795
924.092	13620
924.201	13655
924.309	13681
924.417	13651
924.525	13567
924.633	13658
924.741	14549
924.849	13392
924.956	13540
925.064	13350
925.172	13358
925.279	13365
925.387	13544
925.494	13415
925.602	13472
925.709	13434
925.816	13183
925.924	13396
926.031	13441
926.138	13213
926.245	13324
926.352	13145
926.459	13312
926.566	13354
926.673	13156
926.779	13099
926.886	13137
926.993	12970
927.099	12894
927.206	12962
927.312	12909
927.419	12894
927.525	12894
927.631	12924
927.737	12856
927.843	12909
927.95	12604
928.056	12688
928.162	12627
928.267	12722
928.373	13316
928.479	12867
928.585	12563
928.69	12639
928.796	12658
928.901	12540
929.007	12517
929.112	12642
929.218	12597
929.323	12418
929.428	12464
929.533	12563
929.638	12323
929.743	12407
929.848	12467
929.953	12388
930.058	12289
930.163	12144
930.267	12136
930.372	12292
930.477	12098
930.581	12247
930.685	12155
930.79	11992
930.894	12022
930.998	11992
931.103	12159
931.207	11703
931.311	11657
931.415	11585
931.519	11337
931.623	11330
