Data from test_V78500241_3415.txt Node
Date: Fri Mar 25 16:05:27 CST 2022
User: usil
Spectrometer: V785-0024
Trigger mode: 0
Integration Time (sec): 4.000000E-1
Scans to average: 1
Nonlinearity correction enabled: false
Boxcar width: 0
Storing dark spectrum: false
XAxis mode: Wavelengths
Number of Pixels in Spectrum: 1024
>>>>>Begin Spectral Data<<<<<
801.071	28797
801.214	28801
801.356	28535
801.499	28436
801.641	28303
801.783	28310
801.926	28356
802.068	28284
802.211	28246
802.353	28196
802.496	28074
802.638	28143
802.78	28070
802.923	28070
803.065	27953
803.208	28051
803.35	28120
803.492	28158
803.635	28314
803.777	28055
803.919	28116
804.061	28607
804.204	28398
804.346	28029
804.488	28299
804.63	28192
804.773	28150
804.915	28314
805.057	28470
805.199	28158
805.341	28329
805.483	28398
805.626	28451
805.768	28253
805.91	28466
806.052	28447
806.194	28367
806.336	28656
806.478	28375
806.62	28375
806.762	28653
806.904	28748
807.046	29060
807.188	28797
807.33	28843
807.472	29033
807.614	28801
807.756	28850
807.898	28634
808.04	28790
808.182	28748
808.324	28717
808.465	28812
808.607	28927
808.749	29025
808.891	29341
809.033	29318
809.174	29231
809.316	29155
809.458	29181
809.6	29216
809.741	29220
809.883	29258
810.025	29410
810.166	29520
810.308	29444
810.45	29414
810.591	29277
810.733	29299
810.875	29143
811.016	29102
811.158	29235
811.299	29246
811.441	29292
811.582	29360
811.724	29307
811.865	29132
812.007	29204
812.148	29231
812.29	29193
812.431	29383
812.573	29455
812.714	29592
812.855	29703
812.997	29748
813.138	29882
813.279	29779
813.421	29604
813.562	29718
813.703	29482
813.845	29444
813.986	29143
814.127	29010
814.268	28961
814.41	28930
814.551	28885
814.692	28908
814.833	28740
814.974	28847
815.115	28923
815.256	28767
815.397	28656
815.539	28736
815.68	28713
815.821	28626
815.962	28637
816.103	28531
816.244	28653
816.385	28611
816.526	28382
816.666	28299
816.807	28124
816.948	28272
817.089	28249
817.23	28322
817.371	28253
817.512	28253
817.653	28162
817.793	28169
817.934	28310
818.075	28086
818.216	28131
818.356	28101
818.497	28105
818.638	27918
818.778	27968
818.919	27934
819.06	28116
819.2	28082
819.341	28238
819.481	28211
819.622	28367
819.762	28725
819.903	28535
820.043	28348
820.184	28413
820.324	28284
820.465	28382
820.605	28314
820.746	28291
820.886	28276
821.026	28276
821.167	28333
821.307	28360
821.447	28284
821.588	28188
821.728	28021
821.868	27732
822.008	27698
822.149	27751
822.289	27823
822.429	27443
822.569	27332
822.709	27412
822.849	27252
822.99	27359
823.13	27237
823.27	27161
823.41	26986
823.55	26906
823.69	27051
823.83	27039
823.97	26937
824.11	26849
824.25	26838
824.389	26914
824.529	26986
824.669	26891
824.809	26849
824.949	26956
825.089	27001
825.228	26754
825.368	26560
825.508	26788
825.648	26621
825.787	26670
825.927	26781
826.067	26743
826.206	26849
826.346	26632
826.485	26872
826.625	26648
826.765	26842
826.904	26857
827.044	26541
827.183	26442
827.323	26438
827.462	26617
827.601	26499
827.741	26358
827.88	26347
828.02	26256
828.159	26457
828.298	26560
828.437	26488
828.577	26396
828.716	26446
828.855	26263
828.994	26157
829.134	26092
829.273	26138
829.412	26119
829.551	26035
829.69	26164
829.829	26119
829.968	26332
830.107	26168
830.246	26115
830.385	26058
830.524	26039
830.663	25974
830.802	25913
830.941	25575
831.08	25632
831.219	25776
831.357	25658
831.496	26027
831.635	25807
831.774	25681
831.913	25635
832.051	25643
832.19	25563
832.329	25586
832.467	25491
832.606	25316
832.744	25282
832.883	25388
833.022	25430
833.16	25285
833.299	25350
833.437	25396
833.576	25350
833.714	25590
833.852	25499
833.991	25609
834.129	25533
834.267	25457
834.406	25529
834.544	25457
834.682	25285
834.821	25400
834.959	25613
835.097	25293
835.235	25479
835.373	25430
835.511	25407
835.65	25369
835.788	25259
835.926	25095
836.064	25145
836.202	25152
836.34	25247
836.478	25354
836.615	25343
836.753	25282
836.891	25274
837.029	25301
837.167	25202
837.305	25339
837.443	25190
837.58	25270
837.718	25263
837.856	25103
837.993	25027
838.131	25069
838.269	24989
838.406	25072
838.544	24875
838.681	24757
838.819	24970
838.956	24635
839.094	24551
839.231	24681
839.369	24757
839.506	25004
839.643	24981
839.781	24681
839.918	24532
840.055	24544
840.193	24570
840.33	24525
840.467	24582
840.604	24578
840.742	24810
840.879	24330
841.016	24418
841.153	24429
841.29	24612
841.427	24471
841.564	24547
841.701	24422
841.838	24532
841.975	24505
842.112	24422
842.249	24365
842.385	24311
842.522	24429
842.659	24254
842.796	24152
842.933	24144
843.069	24152
843.206	24121
843.343	24239
843.479	24243
843.616	24308
843.752	24144
843.889	24144
844.025	24228
844.162	24072
844.298	24133
844.435	24049
844.571	24007
844.708	24068
844.844	24163
844.98	24163
845.117	24057
845.253	23996
845.389	23798
845.525	23931
845.661	23931
845.798	23760
845.934	23847
846.07	23885
846.206	23798
846.342	23855
846.478	23703
846.614	23566
846.75	23497
846.886	23562
847.022	23695
847.158	23402
847.294	23520
847.429	23509
847.565	23528
847.701	23722
847.837	23185
847.972	23151
848.108	23235
848.244	23303
848.379	23181
848.515	23060
848.65	23094
848.786	23159
848.921	22957
849.057	23159
849.192	23220
849.328	23105
849.463	23105
849.598	22923
849.734	23022
849.869	22938
850.004	22938
850.14	22957
850.275	22904
850.41	22839
850.545	22900
850.68	22908
850.815	22869
850.95	22805
851.085	22995
851.22	22946
851.355	22896
851.49	22828
851.625	22892
851.76	22839
851.895	22683
852.03	22725
852.165	22873
852.299	22748
852.434	22908
852.569	22938
852.703	22938
852.838	22869
852.973	22972
853.107	22942
853.242	22908
853.376	22675
853.511	22538
853.645	22630
853.78	22687
853.914	22691
854.048	22698
854.183	22675
854.317	22790
854.451	22938
854.585	22725
854.72	22577
854.854	22725
854.988	22531
855.122	22725
855.256	22542
855.39	22710
855.524	22736
855.658	22793
855.792	22702
855.926	22774
856.06	22721
856.194	22759
856.327	22672
856.461	22580
856.595	22683
856.729	22603
856.862	22748
856.996	22691
857.13	22805
857.263	22778
857.397	22603
857.53	22744
857.664	22634
857.797	22778
857.931	22691
858.064	22592
858.197	22797
858.331	22698
858.464	22672
858.597	22588
858.731	22637
858.864	22561
858.997	22637
859.13	22561
859.263	22774
859.396	22702
859.529	22656
859.662	22516
859.795	22554
859.928	22611
860.061	22892
860.194	22733
860.327	22683
860.46	22710
860.592	22733
860.725	22702
860.858	22790
860.99	22546
861.123	22561
861.256	22554
861.388	22698
861.521	23448
861.653	22470
861.786	22375
861.918	22462
862.05	22637
862.183	22542
862.315	22523
862.447	22656
862.58	22664
862.712	22341
862.844	22371
862.976	22489
863.108	22474
863.24	22596
863.372	22390
863.504	22382
863.636	22341
863.768	22280
863.9	22432
864.032	22398
864.164	22344
864.296	22322
864.428	22542
864.559	22447
864.691	22367
864.823	22428
864.954	22379
865.086	22249
865.217	22268
865.349	22268
865.48	22169
865.612	22196
865.743	22478
865.875	22253
866.006	22147
866.137	22272
866.269	22169
866.4	22128
866.531	22154
866.662	22249
866.793	22090
866.924	22204
867.055	22249
867.186	22219
867.317	22074
867.448	22128
867.579	22055
867.71	22139
867.841	22040
867.972	22036
868.103	22299
868.233	22120
868.364	22139
868.495	22284
868.625	22413
868.756	22527
868.886	22329
869.017	22375
869.147	22405
869.278	22546
869.408	22413
869.539	22462
869.669	22523
869.799	22382
869.929	22508
870.06	22508
870.19	22713
870.32	22577
870.45	22858
870.58	22790
870.71	22919
870.84	22999
870.97	22706
871.1	22729
871.23	23189
871.36	23037
871.489	22862
871.619	22911
871.749	23006
871.879	23003
872.008	23197
872.138	23136
872.267	22854
872.397	22847
872.526	22839
872.656	22942
872.785	22843
872.915	22942
873.044	23102
873.173	22946
873.303	23109
873.432	23189
873.561	22991
873.69	23090
873.819	23086
873.948	23098
874.077	23105
874.206	23041
874.335	23056
874.464	23170
874.593	23189
874.722	23102
874.851	23174
874.979	23269
875.108	23318
875.237	23185
875.365	23132
875.494	23159
875.623	23303
875.751	23189
875.88	23239
876.008	23356
876.136	23395
876.265	23562
876.393	23775
876.521	23665
876.65	23741
876.778	23657
876.906	23642
877.034	23699
877.162	23596
877.29	23661
877.418	23687
877.546	23585
877.674	23547
877.802	23634
877.93	23543
878.058	23497
878.185	23604
878.313	23547
878.441	23566
878.568	23353
878.696	23471
878.824	23642
878.951	23745
879.079	23794
879.206	23798
879.333	23764
879.461	23528
879.588	23817
879.715	23699
879.842	23847
879.97	23779
880.097	23482
880.224	23311
880.351	23421
880.478	23482
880.605	23337
880.732	23448
880.859	23528
880.986	23478
881.112	23440
881.239	23269
881.366	23204
881.493	23014
881.619	23052
881.746	23014
881.872	22957
881.999	23083
882.125	22980
882.252	22980
882.378	23079
882.505	23105
882.631	22687
882.757	22713
882.883	22755
883.01	22561
883.136	22519
883.262	22596
883.388	22466
883.514	22630
883.64	22668
883.766	22584
883.892	22500
884.018	22504
884.143	22493
884.269	22516
884.395	22428
884.52	22207
884.646	22280
884.772	22242
884.897	22238
885.023	22322
885.148	22306
885.274	22382
885.399	22322
885.524	22363
885.65	22295
885.775	22223
885.9	22226
886.025	22390
886.15	22390
886.275	22306
886.4	22177
886.525	22249
886.65	22219
886.775	22147
886.9	22417
887.025	22405
887.149	22242
887.274	22017
887.399	22067
887.523	22025
887.648	21953
887.773	22002
887.897	22097
888.021	22093
888.146	21865
888.27	22093
888.395	22051
888.519	21979
888.643	21983
888.767	22128
888.891	21991
889.015	21861
889.139	21888
889.263	21747
889.387	21926
889.511	22017
889.635	21941
889.759	21918
889.883	21941
890.006	21838
890.13	21876
890.254	21720
890.377	21679
890.501	21538
890.624	21530
890.748	21595
890.871	21530
890.995	21302
891.118	21351
891.241	21287
891.364	21428
891.488	21428
891.611	21325
891.734	21272
891.857	21405
891.98	21393
892.103	21469
892.226	21428
892.349	21237
892.471	21127
892.594	21268
892.717	21256
892.839	21332
892.962	21218
893.085	21355
893.207	21169
893.33	21176
893.452	21104
893.575	21222
893.697	21313
893.819	21374
893.941	21389
894.064	21313
894.186	21154
894.308	21157
894.43	21469
894.552	21325
894.674	21291
894.796	21096
894.918	21321
895.04	21184
895.161	21275
895.283	21249
895.405	21062
895.526	21272
895.648	21116
895.769	21195
895.891	21237
896.012	21313
896.134	21241
896.255	21275
896.376	21226
896.498	21180
896.619	21256
896.74	21214
896.861	21291
896.982	21496
897.103	21553
897.224	21519
897.345	21386
897.466	21313
897.587	21428
897.708	21469
897.828	21447
897.949	21348
898.07	21291
898.19	21291
898.311	21454
898.431	21378
898.552	21397
898.672	21370
898.792	21488
898.913	21458
899.033	21332
899.153	21226
899.273	21096
899.393	21123
899.513	21306
899.633	21157
899.753	21104
899.873	21043
899.993	21150
900.113	21252
900.232	21047
900.352	20960
900.472	20952
900.591	20823
900.711	20971
900.83	20834
900.95	20982
901.069	20941
901.189	20743
901.308	20526
901.427	20492
901.546	20495
901.665	20480
901.784	20457
901.904	20336
902.023	20225
902.141	20005
902.26	20012
902.379	20088
902.498	20062
902.617	19928
902.735	20069
902.854	19814
902.973	19890
903.091	19677
903.21	19700
903.328	19453
903.446	19483
903.565	19426
903.683	19392
903.801	19339
903.919	19343
904.038	19400
904.156	19236
904.274	19255
904.392	19145
904.51	19046
904.627	19008
904.745	19080
904.863	19213
904.981	18875
905.098	18821
905.216	18905
905.334	18833
905.451	18825
905.569	18833
905.686	18958
905.803	18852
905.921	18654
906.038	18738
906.155	18688
906.272	18403
906.389	18528
906.506	18281
906.623	18403
906.74	18403
906.857	18254
906.974	18247
907.091	18418
907.208	18441
907.324	18448
907.441	18148
907.557	18072
907.674	18152
907.79	17961
907.907	17946
908.023	18114
908.139	18098
908.256	18007
908.372	17984
908.488	17984
908.604	17893
908.72	17786
908.836	17809
908.952	17760
909.068	17737
909.184	17973
909.3	17866
909.415	17840
909.531	17798
909.647	17448
909.762	17554
909.878	17566
909.993	17425
910.108	17505
910.224	17376
910.339	17455
910.454	17326
910.57	17376
910.685	17216
910.8	17551
910.915	17455
911.03	17246
911.145	17174
911.259	17060
911.374	17086
911.489	16934
911.604	16904
911.718	16831
911.833	16824
911.947	16752
912.062	16618
912.176	16862
912.291	16866
912.405	16786
912.519	17033
912.633	17018
912.748	16862
912.862	16793
912.976	16660
913.09	16561
913.204	16596
913.318	16607
913.431	16702
913.545	16713
913.659	16755
913.772	16615
913.886	16474
914	16436
914.113	16569
914.226	16459
914.34	16428
914.453	16375
914.566	16356
914.68	16371
914.793	16234
914.906	16078
915.019	15968
915.132	15907
915.245	16044
915.358	15998
915.47	15915
915.583	15884
915.696	15994
915.809	16112
915.921	16006
916.034	15968
916.146	15945
916.259	15831
916.371	16006
916.483	15964
916.595	15850
916.708	15728
916.82	15747
916.932	15759
917.044	15800
917.156	15743
917.268	15595
917.38	15690
917.491	15477
917.603	15591
917.715	15717
917.826	15701
917.938	15488
918.049	15511
918.161	15500
918.272	15652
918.384	15648
918.495	15545
918.606	15340
918.717	15306
918.828	15401
918.939	15435
919.05	15222
919.161	15378
919.272	15062
919.383	15249
919.494	15370
919.604	15561
919.715	15214
919.826	15157
919.936	15188
920.047	15382
920.157	15260
920.267	15405
920.378	15138
920.488	15283
920.598	15393
920.708	15606
920.818	15439
920.928	15458
921.038	15500
921.148	15496
921.258	15138
921.368	15081
921.477	15036
921.587	15013
921.697	14891
921.806	15020
921.916	14899
922.025	14724
922.134	14621
922.244	14621
922.353	14648
922.462	14552
922.571	14480
922.68	14298
922.789	14252
922.898	14317
923.007	14267
923.116	14332
923.224	14263
923.333	14259
923.442	14180
923.55	14039
923.659	14149
923.767	14191
923.876	14096
923.984	14119
924.092	14012
924.201	14123
924.309	14088
924.417	13963
924.525	13940
924.633	13898
924.741	14872
924.849	13746
924.956	13811
925.064	13731
925.172	13674
925.279	13624
925.387	13651
925.494	13677
925.602	13719
925.709	13582
925.816	13552
925.924	13624
926.031	13750
926.138	13613
926.245	13624
926.352	13544
926.459	13567
926.566	13674
926.673	13529
926.779	13327
926.886	13384
926.993	13175
927.099	13251
927.206	13160
927.312	13160
927.419	13251
927.525	13244
927.631	13149
927.737	13080
927.843	13046
927.95	12909
928.056	12996
928.162	12985
928.267	13050
928.373	13632
928.479	13012
928.585	12814
928.69	12863
928.796	12905
928.901	12840
929.007	12669
929.112	12825
929.218	12859
929.323	12798
929.428	12658
929.533	12741
929.638	12544
929.743	12673
929.848	12696
929.953	12620
930.058	12597
930.163	12414
930.267	12448
930.372	12513
930.477	12369
930.581	12582
930.685	12384
930.79	12330
930.894	12292
930.998	12235
931.103	12403
931.207	12011
931.311	11927
931.415	11840
931.519	11695
931.623	11600
