Data from test_V78500241_1986.txt Node
Date: Fri Mar 25 15:55:33 CST 2022
User: usil
Spectrometer: V785-0024
Trigger mode: 0
Integration Time (sec): 4.000000E-1
Scans to average: 1
Nonlinearity correction enabled: false
Boxcar width: 0
Storing dark spectrum: false
XAxis mode: Wavelengths
Number of Pixels in Spectrum: 1024
>>>>>Begin Spectral Data<<<<<
801.071	28421
801.214	28211
801.356	28158
801.499	27945
801.641	27918
801.783	27956
801.926	27888
802.068	27812
802.211	27770
802.353	27838
802.496	27523
802.638	27561
802.78	27663
802.923	27431
803.065	27424
803.208	27526
803.35	27694
803.492	27766
803.635	27774
803.777	27667
803.919	27816
804.061	28177
804.204	27926
804.346	27804
804.488	27804
804.63	27800
804.773	27785
804.915	27884
805.057	28006
805.199	27774
805.341	27755
805.483	28032
805.626	27991
805.768	27930
805.91	28097
806.052	27960
806.194	27884
806.336	28112
806.478	28067
806.62	27899
806.762	28166
806.904	28234
807.046	28504
807.188	28322
807.33	28303
807.472	28363
807.614	28386
807.756	28257
807.898	28306
808.04	28223
808.182	28314
808.324	28276
808.465	28329
808.607	28603
808.749	28740
808.891	28713
809.033	28793
809.174	28733
809.316	28778
809.458	28557
809.6	28523
809.741	28782
809.883	28888
810.025	28961
810.166	28957
810.308	28843
810.45	28934
810.591	28927
810.733	28698
810.875	28516
811.016	28542
811.158	28596
811.299	28786
811.441	28771
811.582	28793
811.724	28664
811.865	28599
812.007	28603
812.148	28653
812.29	28698
812.431	28691
812.573	28968
812.714	29102
812.855	29113
812.997	29178
813.138	29353
813.279	29299
813.421	29261
813.562	29048
813.703	28869
813.845	28915
813.986	28679
814.127	28386
814.268	28299
814.41	28401
814.551	28234
814.692	28257
814.833	28150
814.974	28352
815.115	28367
815.256	28200
815.397	28177
815.539	28147
815.68	28173
815.821	28101
815.962	28257
816.103	28112
816.244	27998
816.385	28093
816.526	27975
816.666	27736
816.807	27656
816.948	27553
817.089	27713
817.23	27576
817.371	27564
817.512	27701
817.653	27545
817.793	27564
817.934	27603
818.075	27545
818.216	27561
818.356	27572
818.497	27412
818.638	27367
818.778	27405
818.919	27439
819.06	27412
819.2	27561
819.341	27587
819.481	27641
819.622	27838
819.762	28036
819.903	27960
820.043	27888
820.184	27694
820.324	27701
820.465	27770
820.605	27831
820.746	27675
820.886	27572
821.026	27629
821.167	27709
821.307	27641
821.447	27641
821.588	27591
821.728	27462
821.868	27291
822.008	27252
822.149	27146
822.289	27055
822.429	26811
822.569	26731
822.709	26788
822.849	26716
822.99	26670
823.13	26629
823.27	26590
823.41	26476
823.55	26275
823.69	26609
823.83	26358
823.97	26442
824.11	26183
824.25	26183
824.389	26248
824.529	26328
824.669	26191
824.809	26450
824.949	26187
825.089	26328
825.228	26469
825.368	26199
825.508	26081
825.648	26259
825.787	26130
825.927	26301
826.067	26199
826.206	26138
826.346	26199
826.485	26271
826.625	26126
826.765	26263
826.904	26084
827.044	25849
827.183	25833
827.323	25963
827.462	25974
827.601	25811
827.741	25811
827.88	25776
828.02	25704
828.159	25841
828.298	25898
828.437	25955
828.577	25818
828.716	25852
828.855	25879
828.994	25548
829.134	25426
829.273	25544
829.412	25419
829.551	25479
829.69	25609
829.829	25468
829.968	25601
830.107	25544
830.246	25533
830.385	25373
830.524	25407
830.663	25449
830.802	25187
830.941	25171
831.08	25069
831.219	25236
831.357	25232
831.496	25381
831.635	25228
831.774	25152
831.913	25141
832.051	24954
832.19	24741
832.329	25069
832.467	24802
832.606	24745
832.744	24821
832.883	24798
833.022	24913
833.16	24741
833.299	24970
833.437	24844
833.576	24753
833.714	25015
833.852	24973
833.991	24943
834.129	25023
834.267	24981
834.406	24837
834.544	24814
834.682	24817
834.821	24920
834.959	25019
835.097	24715
835.235	24859
835.373	24848
835.511	24886
835.65	24692
835.788	24802
835.926	24570
836.064	24578
836.202	24604
836.34	24715
836.478	24707
836.615	24597
836.753	24646
836.891	24677
837.029	24764
837.167	24578
837.305	24654
837.443	24551
837.58	24551
837.718	24547
837.856	24517
837.993	24456
838.131	24528
838.269	24486
838.406	24380
838.544	24235
838.681	24163
838.819	24091
838.956	24091
839.094	24057
839.231	24129
839.369	24182
839.506	24315
839.643	24228
839.781	24038
839.918	23965
840.055	23950
840.193	23961
840.33	23961
840.467	23984
840.604	23946
840.742	24136
840.879	23764
841.016	23817
841.153	23847
841.29	23965
841.427	23847
841.564	23798
841.701	24015
841.838	23908
841.975	23786
842.112	23893
842.249	23634
842.385	23707
842.522	23878
842.659	23790
842.796	23695
842.933	23661
843.069	23611
843.206	23554
843.343	23737
843.479	23619
843.616	23630
843.752	23490
843.889	23520
844.025	23592
844.162	23406
844.298	23619
844.435	23379
844.571	23463
844.708	23505
844.844	23554
844.98	23547
845.117	23516
845.253	23334
845.389	23372
845.525	23379
845.661	23181
845.798	23143
845.934	23250
846.07	23048
846.206	23181
846.342	23292
846.478	23109
846.614	22972
846.75	22995
846.886	22812
847.022	22995
847.158	22839
847.294	22991
847.429	23102
847.565	22892
847.701	23094
847.837	22542
847.972	22531
848.108	22771
848.244	22588
848.379	22481
848.515	22691
848.65	22459
848.786	22622
848.921	22516
849.057	22611
849.192	22649
849.328	22557
849.463	22493
849.598	22462
849.734	22424
849.869	22322
850.004	22230
850.14	22257
850.275	22257
850.41	22131
850.545	22196
850.68	22162
850.815	22204
850.95	22048
851.085	22489
851.22	22424
851.355	22204
851.49	22238
851.625	22070
851.76	22109
851.895	22219
852.03	22261
852.165	22272
852.299	22257
852.434	22200
852.569	22162
852.703	22306
852.838	22207
852.973	22268
853.107	22299
853.242	22272
853.376	22105
853.511	22105
853.645	21983
853.78	22173
853.914	21983
854.048	22032
854.183	21979
854.317	22120
854.451	22268
854.585	22086
854.72	22048
854.854	22101
854.988	21964
855.122	22147
855.256	22029
855.39	22112
855.524	22116
855.658	22143
855.792	22070
855.926	21979
856.06	22093
856.194	22223
856.327	22067
856.461	21972
856.595	21960
856.729	22116
856.862	22051
856.996	22093
857.13	22147
857.263	22215
857.397	22166
857.53	22139
857.664	22211
857.797	22105
857.931	22124
858.064	22021
858.197	22150
858.331	22124
858.464	22051
858.597	21888
858.731	22025
858.864	22090
858.997	21956
859.13	22097
859.263	22185
859.396	22086
859.529	22055
859.662	22044
859.795	22055
859.928	22128
860.061	22162
860.194	22337
860.327	22143
860.46	22196
860.592	22265
860.725	22192
860.858	22154
860.99	22143
861.123	22131
861.256	22048
861.388	22044
861.521	22774
861.653	22048
861.786	21850
861.918	21831
862.05	21895
862.183	21857
862.315	22055
862.447	22109
862.58	21930
862.712	21793
862.844	21751
862.976	21922
863.108	21880
863.24	22348
863.372	21686
863.504	21774
863.636	21743
863.768	21781
863.9	21823
864.032	21679
864.164	21743
864.296	21861
864.428	21911
864.559	21789
864.691	21724
864.823	21785
864.954	21800
865.086	21865
865.217	21595
865.349	21523
865.48	21595
865.612	21705
865.743	21690
865.875	21713
866.006	21618
866.137	21671
866.269	21618
866.4	21606
866.531	21591
866.662	21549
866.793	21622
866.924	21606
867.055	21641
867.186	21652
867.317	21507
867.448	21557
867.579	21568
867.71	21572
867.841	21462
867.972	21682
868.103	21523
868.233	21648
868.364	21576
868.495	21603
868.625	21789
868.756	21968
868.886	21755
869.017	21778
869.147	21975
869.278	21972
869.408	21793
869.539	21785
869.669	21842
869.799	21797
869.929	22002
870.06	21816
870.19	22192
870.32	22230
870.45	22082
870.58	22284
870.71	22268
870.84	22306
870.97	22139
871.1	22303
871.23	22375
871.36	22367
871.489	22242
871.619	22421
871.749	22356
871.879	22443
872.008	22580
872.138	22455
872.267	22447
872.397	22398
872.526	22306
872.656	22371
872.785	22382
872.915	22508
873.044	22421
873.173	22554
873.303	22596
873.432	22500
873.561	22569
873.69	22565
873.819	22436
873.948	22634
874.077	22462
874.206	22447
874.335	22371
874.464	22531
874.593	22691
874.722	22675
874.851	22691
874.979	22679
875.108	22622
875.237	22729
875.365	22569
875.494	22653
875.623	22790
875.751	22752
875.88	22603
876.008	22790
876.136	22908
876.265	22999
876.393	23216
876.521	23140
876.65	23296
876.778	23178
876.906	23022
877.034	22965
877.162	23025
877.29	22889
877.418	22980
877.546	22976
877.674	22987
877.802	23121
877.93	23018
878.058	22881
878.185	22892
878.313	23041
878.441	22927
878.568	22824
878.696	23003
878.824	23143
878.951	23109
879.079	23143
879.206	23368
879.333	23162
879.461	23140
879.588	23048
879.715	23265
879.842	23387
879.97	23124
880.097	22797
880.224	22752
880.351	22866
880.478	22854
880.605	22843
880.732	22854
880.859	22965
880.986	22740
881.112	22949
881.239	22713
881.366	22531
881.493	22546
881.619	22512
881.746	22550
881.872	22424
881.999	22409
882.125	22348
882.252	22352
882.378	22310
882.505	22462
882.631	22268
882.757	22120
882.883	22188
883.01	22078
883.136	22101
883.262	21911
883.388	21941
883.514	22139
883.64	22112
883.766	22105
883.892	21854
884.018	21915
884.143	21922
884.269	22040
884.395	21778
884.52	21701
884.646	21736
884.772	21690
884.897	21743
885.023	21618
885.148	21781
885.274	21941
885.399	21808
885.524	21785
885.65	21850
885.775	21797
885.9	21755
886.025	21827
886.15	21800
886.275	21679
886.4	21641
886.525	21652
886.65	21564
886.775	21564
886.9	21895
887.025	21816
887.149	21766
887.274	21549
887.399	21561
887.523	21473
887.648	21374
887.773	21340
887.897	21542
888.021	21492
888.146	21389
888.27	21561
888.395	21591
888.519	21424
888.643	21530
888.767	21633
888.891	21492
889.015	21279
889.139	21321
889.263	21306
889.387	21344
889.511	21485
889.635	21424
889.759	21275
889.883	21199
890.006	21317
890.13	21279
890.254	21199
890.377	21173
890.501	21146
890.624	20967
890.748	21085
890.871	20906
890.995	20842
891.118	20849
891.241	20819
891.364	20914
891.488	21017
891.611	20849
891.734	20800
891.857	20887
891.98	20823
892.103	20853
892.226	20769
892.349	20861
892.471	20583
892.594	20724
892.717	20686
892.839	20640
892.962	20648
893.085	20765
893.207	20811
893.33	20617
893.452	20625
893.575	20811
893.697	20781
893.819	20910
893.941	20963
894.064	20891
894.186	20636
894.308	20640
894.43	20815
894.552	20746
894.674	20887
894.796	20602
894.918	20712
895.04	20765
895.161	20823
895.283	20838
895.405	20606
895.526	20708
895.648	20689
895.769	20705
895.891	20876
896.012	20868
896.134	20724
896.255	20659
896.376	20659
896.498	20754
896.619	20712
896.74	20697
896.861	20853
896.982	20963
897.103	21237
897.224	20914
897.345	20933
897.466	20979
897.587	20906
897.708	21062
897.828	20990
897.949	20899
898.07	20792
898.19	20883
898.311	21001
898.431	20815
898.552	20994
898.672	20925
898.792	21009
898.913	21074
899.033	20864
899.153	20830
899.273	20530
899.393	20697
899.513	20769
899.633	20724
899.753	20640
899.873	20609
899.993	20720
900.113	20617
900.232	20651
900.352	20537
900.472	20533
900.591	20434
900.711	20454
900.83	20404
900.95	20613
901.069	20560
901.189	20469
901.308	20111
901.427	20012
901.546	20024
901.665	19989
901.784	20046
901.904	19944
902.023	19799
902.141	19548
902.26	19632
902.379	19609
902.498	19499
902.617	19400
902.735	19388
902.854	19529
902.973	19506
903.091	19175
903.21	19327
903.328	19255
903.446	19000
903.565	19095
903.683	18943
903.801	18909
903.919	19046
904.038	18890
904.156	18711
904.274	18768
904.392	18783
904.51	18707
904.627	18783
904.745	18730
904.863	18817
904.981	18566
905.098	18372
905.216	18429
905.334	18452
905.451	18433
905.569	18418
905.686	18433
905.803	18292
905.921	18235
906.038	18273
906.155	18258
906.272	18148
906.389	18174
906.506	18022
906.623	17965
906.74	17908
906.857	17821
906.974	17897
907.091	18030
907.208	17946
907.324	17984
907.441	17779
907.557	17745
907.674	17691
907.79	17608
907.907	17562
908.023	17672
908.139	17623
908.256	17676
908.372	17630
908.488	17493
908.604	17414
908.72	17387
908.836	17421
908.952	17330
909.068	17417
909.184	17436
909.3	17379
909.415	17387
909.531	17311
909.647	17048
909.762	17067
909.878	17071
909.993	17041
910.108	16976
910.224	17025
910.339	17014
910.454	17018
910.57	16889
910.685	16729
910.8	17151
910.915	16999
911.03	16850
911.145	16649
911.259	16706
911.374	16668
911.489	16622
911.604	16538
911.718	16470
911.833	16405
911.947	16375
912.062	16257
912.176	16314
912.291	16382
912.405	16382
912.519	16592
912.633	16626
912.748	16386
912.862	16375
912.976	16173
913.09	16093
913.204	16226
913.318	16234
913.431	16291
913.545	16276
913.659	16291
913.772	16101
913.886	16017
914	16048
914.113	16082
914.226	16128
914.34	16093
914.453	15953
914.566	16071
914.68	15876
914.793	15816
914.906	15633
915.019	15603
915.132	15629
915.245	15603
915.358	15534
915.47	15675
915.583	15572
915.696	15599
915.809	15618
915.921	15660
916.034	15511
916.146	15545
916.259	15428
916.371	15625
916.483	15496
916.595	15408
916.708	15382
916.82	15401
916.932	15420
917.044	15386
917.156	15351
917.268	15317
917.38	15222
917.491	15135
917.603	15268
917.715	15332
917.826	15226
917.938	15169
918.049	15043
918.161	15207
918.272	15291
918.384	15298
918.495	15112
918.606	15062
918.717	14937
918.828	14986
918.939	14986
919.05	14883
919.161	14921
919.272	14674
919.383	14819
919.494	15032
919.604	15176
919.715	14960
919.826	14887
919.936	14872
920.047	15028
920.157	14956
920.267	15127
920.378	14986
920.488	14895
920.598	15104
920.708	15165
920.818	15036
920.928	15028
921.038	15283
921.148	15097
921.258	14853
921.368	14697
921.477	14686
921.587	14625
921.697	14530
921.806	14727
921.916	14434
922.025	14366
922.134	14366
922.244	14259
922.353	14332
922.462	14225
922.571	14161
922.68	13875
922.789	13944
922.898	13970
923.007	13963
923.116	13947
923.224	13917
923.333	14012
923.442	13795
923.55	13712
923.659	13803
923.767	13833
923.876	13712
923.984	13788
924.092	13658
924.201	13723
924.309	13655
924.417	13727
924.525	13597
924.633	13533
924.741	14336
924.849	13381
924.956	13457
925.064	13411
925.172	13282
925.279	13354
925.387	13316
925.494	13236
925.602	13464
925.709	13339
925.816	13232
925.924	13263
926.031	13304
926.138	13209
926.245	13240
926.352	13118
926.459	13297
926.566	13320
926.673	13221
926.779	13042
926.886	13065
926.993	12916
927.099	12966
927.206	12859
927.312	12882
927.419	12894
927.525	12875
927.631	12890
927.737	12764
927.843	12734
927.95	12700
928.056	12631
928.162	12715
928.267	12703
928.373	13331
928.479	12787
928.585	12422
928.69	12719
928.796	12688
928.901	12574
929.007	12403
929.112	12589
929.218	12502
929.323	12414
929.428	12388
929.533	12483
929.638	12346
929.743	12304
929.848	12486
929.953	12369
930.058	12213
930.163	12060
930.267	12110
930.372	12235
930.477	12011
930.581	12300
930.685	12038
930.79	11961
930.894	12030
930.998	11958
931.103	12049
931.207	11707
931.311	11691
931.415	11570
931.519	11372
931.623	11311
