Data from test_V78500241_1058.txt Node
Date: Fri Mar 25 15:49:07 CST 2022
User: usil
Spectrometer: V785-0024
Trigger mode: 0
Integration Time (sec): 4.000000E-1
Scans to average: 1
Nonlinearity correction enabled: false
Boxcar width: 0
Storing dark spectrum: false
XAxis mode: Wavelengths
Number of Pixels in Spectrum: 1024
>>>>>Begin Spectral Data<<<<<
801.071	27975
801.214	28006
801.356	27732
801.499	27587
801.641	27496
801.783	27466
801.926	27648
802.068	27443
802.211	27519
802.353	27386
802.496	27294
802.638	27119
802.78	27047
802.923	27112
803.065	26986
803.208	27055
803.35	27043
803.492	27081
803.635	27416
803.777	27237
803.919	27260
804.061	27595
804.204	27447
804.346	27348
804.488	27237
804.63	27226
804.773	27184
804.915	27203
805.057	27447
805.199	27294
805.341	27488
805.483	27564
805.626	27504
805.768	27260
805.91	27500
806.052	27603
806.194	27427
806.336	27641
806.478	27572
806.62	27439
806.762	27488
806.904	27759
807.046	27960
807.188	28006
807.33	27884
807.472	27911
807.614	27903
807.756	27762
807.898	27789
808.04	27739
808.182	27720
808.324	27861
808.465	27953
808.607	27956
808.749	28044
808.891	28329
809.033	28253
809.174	28166
809.316	28051
809.458	28166
809.6	27987
809.741	28002
809.883	28215
810.025	28417
810.166	28538
810.308	28405
810.45	28573
810.591	28367
810.733	28120
810.875	28036
811.016	28086
811.158	28044
811.299	28306
811.441	28352
811.582	28337
811.724	28192
811.865	28188
812.007	28162
812.148	28093
812.29	28287
812.431	28322
812.573	28409
812.714	28557
812.855	28561
812.997	28721
813.138	28866
813.279	28946
813.421	28801
813.562	28557
813.703	28542
813.845	28356
813.986	28223
814.127	27888
814.268	27713
814.41	27941
814.551	27876
814.692	27930
814.833	27770
814.974	27774
815.115	27880
815.256	27675
815.397	27606
815.539	27652
815.68	27694
815.821	27576
815.962	27629
816.103	27629
816.244	27443
816.385	27382
816.526	27321
816.666	27211
816.807	27119
816.948	27199
817.089	27211
817.23	27146
817.371	27116
817.512	27173
817.653	27192
817.793	27085
817.934	27180
818.075	27161
818.216	27138
818.356	27051
818.497	27074
818.638	26781
818.778	26948
818.919	26948
819.06	26861
819.2	27005
819.341	27089
819.481	27161
819.622	27279
819.762	27439
819.903	27306
820.043	27241
820.184	27233
820.324	27214
820.465	27344
820.605	27161
820.746	27214
820.886	27237
821.026	27230
821.167	27173
821.307	27332
821.447	27176
821.588	27017
821.728	26940
821.868	26830
822.008	26705
822.149	26446
822.289	26598
822.429	26389
822.569	26267
822.709	26332
822.849	26035
822.99	26164
823.13	26161
823.27	26103
823.41	25989
823.55	25902
823.69	25974
823.83	25837
823.97	25902
824.11	25761
824.25	25845
824.389	25681
824.529	25738
824.669	25715
824.809	25826
824.949	25906
825.089	25917
825.228	25868
825.368	25643
825.508	25704
825.648	25704
825.787	25677
825.927	25658
826.067	25647
826.206	25616
826.346	25757
826.485	25753
826.625	25662
826.765	25704
826.904	25540
827.044	25434
827.183	25381
827.323	25304
827.462	25400
827.601	25392
827.741	25426
827.88	25240
828.02	25263
828.159	25411
828.298	25396
828.437	25377
828.577	25251
828.716	25422
828.855	25107
828.994	25023
829.134	24973
829.273	25164
829.412	24958
829.551	25031
829.69	25080
829.829	25023
829.968	25114
830.107	25122
830.246	24985
830.385	24886
830.524	24970
830.663	24798
830.802	24707
830.941	24665
831.08	24498
831.219	24700
831.357	24722
831.496	24802
831.635	24612
831.774	24559
831.913	24593
832.051	24414
832.19	24388
832.329	24540
832.467	24285
832.606	24281
832.744	24243
832.883	24456
833.022	24395
833.16	24380
833.299	24338
833.437	24289
833.576	24498
833.714	24483
833.852	24376
833.991	24319
834.129	24521
834.267	24483
834.406	24407
834.544	24403
834.682	24254
834.821	24372
834.959	24528
835.097	24338
835.235	24353
835.373	24395
835.511	24327
835.65	24273
835.788	24144
835.926	24026
836.064	24087
836.202	23840
836.34	24296
836.478	24311
836.615	24159
836.753	24281
836.891	24315
837.029	24266
837.167	24041
837.305	24182
837.443	24087
837.58	23954
837.718	24064
837.856	24102
837.993	24038
838.131	24026
838.269	23878
838.406	24083
838.544	23847
838.681	23630
838.819	23687
838.956	23433
839.094	23467
839.231	23581
839.369	23566
839.506	23912
839.643	23703
839.781	23528
839.918	23433
840.055	23509
840.193	23505
840.33	23497
840.467	23474
840.604	23471
840.742	23554
840.879	23376
841.016	23406
841.153	23235
841.29	23509
841.427	23455
841.564	23417
841.701	23429
841.838	23448
841.975	23353
842.112	23273
842.249	23242
842.385	23212
842.522	23406
842.659	23326
842.796	23117
842.933	23124
843.069	22968
843.206	23136
843.343	23197
843.479	23189
843.616	23124
843.752	22873
843.889	22965
844.025	23071
844.162	23006
844.298	23025
844.435	22961
844.571	22915
844.708	22843
844.844	22995
844.98	23113
845.117	22961
845.253	22839
845.389	22850
845.525	22866
845.661	22771
845.798	22721
845.934	22679
846.07	22615
846.206	22809
846.342	22828
846.478	22630
846.614	22398
846.75	22470
846.886	22417
847.022	22341
847.158	22440
847.294	22466
847.429	22455
847.565	22546
847.701	22645
847.837	22143
847.972	22070
848.108	22215
848.244	22318
848.379	22112
848.515	21987
848.65	22032
848.786	22032
848.921	21994
849.057	22101
849.192	22074
849.328	22029
849.463	22055
849.598	21838
849.734	21941
849.869	21884
850.004	21732
850.14	21762
850.275	21717
850.41	21728
850.545	21797
850.68	21785
850.815	21724
850.95	21698
851.085	21922
851.22	21793
851.355	21759
851.49	21778
851.625	21728
851.76	21751
851.895	21644
852.03	21671
852.165	21808
852.299	21850
852.434	21918
852.569	21835
852.703	21625
852.838	21835
852.973	21861
853.107	21816
853.242	21717
853.376	21633
853.511	21492
853.645	21469
853.78	21614
853.914	21492
854.048	21549
854.183	21492
854.317	21591
854.451	21812
854.585	21587
854.72	21583
854.854	21694
854.988	21595
855.122	21599
855.256	21386
855.39	21519
855.524	21656
855.658	21580
855.792	21637
855.926	21606
856.06	21583
856.194	21557
856.327	21443
856.461	21473
856.595	21504
856.729	21450
856.862	21637
856.996	21576
857.13	21671
857.263	21705
857.397	21648
857.53	21591
857.664	21568
857.797	21538
857.931	21652
858.064	21561
858.197	21755
858.331	21553
858.464	21466
858.597	21469
858.731	21450
858.864	21629
858.997	21610
859.13	21515
859.263	21557
859.396	21618
859.529	21507
859.662	21557
859.795	21504
859.928	21637
860.061	21762
860.194	21789
860.327	21682
860.46	21656
860.592	21641
860.725	21644
860.858	21747
860.99	21603
861.123	21500
861.256	21591
861.388	21610
861.521	22363
861.653	21553
861.786	21416
861.918	21488
862.05	21519
862.183	21386
862.315	21595
862.447	21557
862.58	21492
862.712	21306
862.844	21287
862.976	21439
863.108	21336
863.24	21701
863.372	21199
863.504	21351
863.636	21412
863.768	21332
863.9	21310
864.032	21161
864.164	21230
864.296	21260
864.428	21321
864.559	21317
864.691	21386
864.823	21389
864.954	21275
865.086	21184
865.217	21272
865.349	21154
865.48	21161
865.612	21192
865.743	21211
865.875	21176
866.006	21154
866.137	21180
866.269	21207
866.4	21180
866.531	21135
866.662	21112
866.793	21100
866.924	21104
867.055	21116
867.186	21142
867.317	21085
867.448	21089
867.579	21001
867.71	20975
867.841	21051
867.972	21074
868.103	21070
868.233	21165
868.364	21039
868.495	21222
868.625	21279
868.756	21443
868.886	21207
869.017	21294
869.147	21504
869.278	21374
869.408	21348
869.539	21374
869.669	21568
869.799	21397
869.929	21439
870.06	21428
870.19	21637
870.32	21759
870.45	21762
870.58	21694
870.71	21857
870.84	21880
870.97	21720
871.1	21793
871.23	21937
871.36	21987
871.489	21850
871.619	21869
871.749	21888
871.879	21941
872.008	22116
872.138	21964
872.267	21907
872.397	21804
872.526	21656
872.656	21854
872.785	21846
872.915	21915
873.044	22017
873.173	21922
873.303	22025
873.432	22017
873.561	22025
873.69	22002
873.819	21895
873.948	22070
874.077	21972
874.206	21918
874.335	21987
874.464	22131
874.593	22242
874.722	22101
874.851	22367
874.979	22223
875.108	22242
875.237	22143
875.365	22135
875.494	22280
875.623	22318
875.751	22063
875.88	22147
876.008	22314
876.136	22363
876.265	22626
876.393	22717
876.521	22622
876.65	22668
876.778	22561
876.906	22527
877.034	22489
877.162	22538
877.29	22523
877.418	22535
877.546	22535
877.674	22554
877.802	22516
877.93	22523
878.058	22451
878.185	22489
878.313	22481
878.441	22584
878.568	22459
878.696	22375
878.824	22569
878.951	22713
879.079	22748
879.206	22934
879.333	22618
879.461	22626
879.588	22664
879.715	22713
879.842	22957
879.97	22653
880.097	22272
880.224	22382
880.351	22432
880.478	22318
880.605	22261
880.732	22386
880.859	22649
880.986	22413
881.112	22352
881.239	22280
881.366	22124
881.493	22010
881.619	21899
881.746	22055
881.872	21972
881.999	22010
882.125	21800
882.252	22029
882.378	21759
882.505	21934
882.631	21682
882.757	21747
882.883	21660
883.01	21591
883.136	21542
883.262	21397
883.388	21466
883.514	21641
883.64	21671
883.766	21538
883.892	21408
884.018	21386
884.143	21599
884.269	21576
884.395	21287
884.52	21176
884.646	21382
884.772	21336
884.897	21252
885.023	21291
885.148	21264
885.274	21408
885.399	21389
885.524	21279
885.65	21241
885.775	21233
885.9	21207
886.025	21378
886.15	21340
886.275	21207
886.4	21241
886.525	21218
886.65	21249
886.775	21142
886.9	21359
887.025	21473
887.149	21127
887.274	21013
887.399	21070
887.523	21020
887.648	20933
887.773	20937
887.897	21116
888.021	21222
888.146	21005
888.27	21058
888.395	21058
888.519	21104
888.643	21024
888.767	21154
888.891	20880
889.015	20811
889.139	20834
889.263	20788
889.387	20963
889.511	20952
889.635	20967
889.759	20853
889.883	20762
890.006	20739
890.13	20899
890.254	20758
890.377	20891
890.501	20712
890.624	20507
890.748	20602
890.871	20476
890.995	20457
891.118	20298
891.241	20530
891.364	20355
891.488	20450
891.611	20408
891.734	20385
891.857	20400
891.98	20530
892.103	20503
892.226	20362
892.349	20267
892.471	20157
892.594	20366
892.717	20313
892.839	20267
892.962	20294
893.085	20454
893.207	20313
893.33	20183
893.452	20259
893.575	20408
893.697	20377
893.819	20492
893.941	20518
894.064	20396
894.186	20164
894.308	20187
894.43	20389
894.552	20419
894.674	20317
894.796	20142
894.918	20164
895.04	20233
895.161	20278
895.283	20366
895.405	20396
895.526	20351
895.648	20221
895.769	20278
895.891	20282
896.012	20332
896.134	20362
896.255	20298
896.376	20271
896.498	20358
896.619	20290
896.74	20374
896.861	20465
896.982	20598
897.103	20781
897.224	20560
897.345	20514
897.466	20492
897.587	20514
897.708	20678
897.828	20667
897.949	20423
898.07	20385
898.19	20377
898.311	20644
898.431	20450
898.552	20583
898.672	20651
898.792	20564
898.913	20526
899.033	20434
899.153	20347
899.273	20138
899.393	20271
899.513	20343
899.633	20320
899.753	20199
899.873	20218
899.993	20313
900.113	20168
900.232	20229
900.352	20210
900.472	20088
900.591	20005
900.711	20122
900.83	19936
900.95	20157
901.069	20161
901.189	19902
901.308	19719
901.427	19643
901.546	19628
901.665	19620
901.784	19635
901.904	19521
902.023	19384
902.141	19308
902.26	19187
902.379	19335
902.498	19133
902.617	19145
902.735	19156
902.854	19183
902.973	19088
903.091	18772
903.21	18715
903.328	18840
903.446	18677
903.565	18658
903.683	18658
903.801	18445
903.919	18494
904.038	18578
904.156	18365
904.274	18365
904.392	18270
904.51	18323
904.627	18289
904.745	18456
904.863	18338
904.981	18216
905.098	18038
905.216	17984
905.334	18148
905.451	18079
905.569	17920
905.686	17992
905.803	18068
905.921	17836
906.038	17874
906.155	17874
906.272	17668
906.389	17889
906.506	17665
906.623	17554
906.74	17474
906.857	17406
906.974	17337
907.091	17611
907.208	17794
907.324	17604
907.441	17455
907.557	17429
907.674	17223
907.79	17185
907.907	17307
908.023	17334
908.139	17288
908.256	17155
908.372	17242
908.488	17250
908.604	17098
908.72	16953
908.836	16972
908.952	16976
909.068	17018
909.184	17010
909.3	16953
909.415	16927
909.531	16972
909.647	16664
909.762	16687
909.878	16596
909.993	16660
910.108	16691
910.224	16618
910.339	16702
910.454	16497
910.57	16500
910.685	16455
910.8	16694
910.915	16679
911.03	16558
911.145	16398
911.259	16265
911.374	16268
911.489	16219
911.604	16120
911.718	16032
911.833	15953
911.947	15956
912.062	15873
912.176	16013
912.291	16147
912.405	16078
912.519	16204
912.633	16147
912.748	15987
912.862	16048
912.976	15842
913.09	15663
913.204	15827
913.318	15831
913.431	15926
913.545	15850
913.659	15899
913.772	15808
913.886	15663
914	15599
914.113	15637
914.226	15774
914.34	15755
914.453	15595
914.566	15610
914.68	15504
914.793	15466
914.906	15340
915.019	15203
915.132	15268
915.245	15226
915.358	15291
915.47	15272
915.583	15207
915.696	15184
915.809	15408
915.921	15359
916.034	15192
916.146	15199
916.259	15051
916.371	15256
916.483	15154
916.595	15180
916.708	15188
916.82	15077
916.932	15017
917.044	15062
917.156	14967
917.268	14868
917.38	14872
917.491	14960
917.603	14960
917.715	14979
917.826	15024
917.938	14880
918.049	14800
918.161	14876
918.272	15020
918.384	14971
918.495	14960
918.606	14693
918.717	14617
918.828	14727
918.939	14811
919.05	14640
919.161	14602
919.272	14457
919.383	14545
919.494	14743
919.604	14743
919.715	14659
919.826	14571
919.936	14708
920.047	14724
920.157	14716
920.267	14819
920.378	14731
920.488	14678
920.598	14868
920.708	14937
920.818	14792
920.928	14834
921.038	14944
921.148	14887
921.258	14587
921.368	14442
921.477	14358
921.587	14404
921.697	14286
921.806	14431
921.916	14294
922.025	14107
922.134	14005
922.244	13993
922.353	14145
922.462	13894
922.571	13868
922.68	13727
922.789	13746
922.898	13685
923.007	13677
923.116	13689
923.224	13647
923.333	13594
923.442	13460
923.55	13525
923.659	13575
923.767	13533
923.876	13468
923.984	13548
924.092	13373
924.201	13476
924.309	13441
924.417	13324
924.525	13384
924.633	13335
924.741	14088
924.849	13133
924.956	13327
925.064	13149
925.172	12977
925.279	13095
925.387	13202
925.494	13042
925.602	13183
925.709	13084
925.816	13008
925.924	12981
926.031	13149
926.138	13061
926.245	13122
926.352	12852
926.459	13076
926.566	13072
926.673	12863
926.779	12837
926.886	12810
926.993	12700
927.099	12646
927.206	12700
927.312	12719
927.419	12696
927.525	12654
927.631	12749
927.737	12563
927.843	12532
927.95	12357
928.056	12403
928.162	12464
928.267	12464
928.373	13053
928.479	12486
928.585	12346
928.69	12319
928.796	12456
928.901	12380
929.007	12216
929.112	12311
929.218	12292
929.323	12224
929.428	12235
929.533	12330
929.638	12144
929.743	12072
929.848	12216
929.953	12083
930.058	12007
930.163	11779
930.267	11851
930.372	11992
930.477	11828
930.581	12117
930.685	11889
930.79	11790
930.894	11783
930.998	11745
931.103	11908
931.207	11570
931.311	11554
931.415	11280
931.519	11185
931.623	11083
