Data from test_V78500241_2644.txt Node
Date: Fri Mar 25 16:00:06 CST 2022
User: usil
Spectrometer: V785-0024
Trigger mode: 0
Integration Time (sec): 4.000000E-1
Scans to average: 1
Nonlinearity correction enabled: false
Boxcar width: 0
Storing dark spectrum: false
XAxis mode: Wavelengths
Number of Pixels in Spectrum: 1024
>>>>>Begin Spectral Data<<<<<
801.071	27667
801.214	27599
801.356	27405
801.499	27302
801.641	27192
801.783	27214
801.926	27184
802.068	27104
802.211	27188
802.353	26937
802.496	26861
802.638	26773
802.78	26785
802.923	26678
803.065	26739
803.208	26712
803.35	26754
803.492	26921
803.635	27032
803.777	26834
803.919	26982
804.061	27154
804.204	26929
804.346	26876
804.488	26887
804.63	26868
804.773	26826
804.915	27138
805.057	27138
805.199	27131
805.341	27150
805.483	27195
805.626	27165
805.768	26971
805.91	27192
806.052	27085
806.194	27055
806.336	27131
806.478	27116
806.62	27077
806.762	27283
806.904	27561
807.046	27599
807.188	27614
807.33	27595
807.472	27587
807.614	27408
807.756	27412
807.898	27420
808.04	27294
808.182	27340
808.324	27275
808.465	27462
808.607	27568
808.749	27641
808.891	27895
809.033	27934
809.174	27736
809.316	27831
809.458	27739
809.6	27701
809.741	27831
809.883	27835
810.025	27949
810.166	27953
810.308	27964
810.45	27937
810.591	27945
810.733	27774
810.875	27770
811.016	27713
811.158	27629
811.299	27762
811.441	27827
811.582	27857
811.724	27778
811.865	27778
812.007	27781
812.148	27667
812.29	27709
812.431	27972
812.573	27983
812.714	28169
812.855	28181
812.997	28409
813.138	28436
813.279	28424
813.421	28246
813.562	28257
813.703	28097
813.845	27941
813.986	27583
814.127	27374
814.268	27500
814.41	27382
814.551	27378
814.692	27386
814.833	27252
814.974	27378
815.115	27310
815.256	27157
815.397	27344
815.539	27302
815.68	27218
815.821	27161
815.962	27218
816.103	27104
816.244	27165
816.385	26956
816.526	26891
816.666	26629
816.807	26609
816.948	26617
817.089	26838
817.23	26644
817.371	26659
817.512	26609
817.653	26651
817.793	26594
817.934	26708
818.075	26583
818.216	26777
818.356	26625
818.497	26541
818.638	26290
818.778	26419
818.919	26351
819.06	26579
819.2	26590
819.341	26663
819.481	26739
819.622	26720
819.762	26956
819.903	26872
820.043	26785
820.184	26868
820.324	26864
820.465	26883
820.605	26826
820.746	26853
820.886	26682
821.026	26697
821.167	26693
821.307	26845
821.447	26648
821.588	26575
821.728	26442
821.868	26309
822.008	26237
822.149	26149
822.289	26187
822.429	25909
822.569	25708
822.709	25807
822.849	25525
822.99	25582
823.13	25548
823.27	25575
823.41	25506
823.55	25358
823.69	25487
823.83	25552
823.97	25415
824.11	25225
824.25	25228
824.389	25335
824.529	25415
824.669	25206
824.809	25343
824.949	25388
825.089	25354
825.228	25339
825.368	25061
825.508	25072
825.648	25118
825.787	25198
825.927	25076
826.067	25133
826.206	25050
826.346	25126
826.485	25103
826.625	25145
826.765	25251
826.904	25072
827.044	24837
827.183	24943
827.323	24814
827.462	24951
827.601	24814
827.741	24909
827.88	24821
828.02	24814
828.159	24814
828.298	24894
828.437	24932
828.577	24783
828.716	24886
828.855	24783
828.994	24452
829.134	24559
829.273	24509
829.412	24445
829.551	24532
829.69	24429
829.829	24608
829.968	24578
830.107	24532
830.246	24513
830.385	24570
830.524	24365
830.663	24346
830.802	24327
830.941	24205
831.08	24140
831.219	24251
831.357	24216
831.496	24300
831.635	24083
831.774	24076
831.913	24007
832.051	23954
832.19	24026
832.329	23931
832.467	23809
832.606	23794
832.744	23840
832.883	23794
833.022	23779
833.16	23798
833.299	23783
833.437	23851
833.576	23916
833.714	23798
833.852	23961
833.991	23973
834.129	23912
834.267	24011
834.406	23828
834.544	23916
834.682	23836
834.821	23901
834.959	24095
835.097	23786
835.235	24022
835.373	23843
835.511	23805
835.65	23680
835.788	23646
835.926	23642
836.064	23478
836.202	23577
836.34	23661
836.478	23809
836.615	23630
836.753	23687
836.891	23745
837.029	23764
837.167	23726
837.305	23665
837.443	23691
837.58	23608
837.718	23619
837.856	23505
837.993	23455
838.131	23505
838.269	23406
838.406	23467
838.544	23497
838.681	23181
838.819	23200
838.956	22980
839.094	22987
839.231	22957
839.369	23044
839.506	23444
839.643	23258
839.781	23044
839.918	22934
840.055	22999
840.193	23033
840.33	22984
840.467	23006
840.604	23037
840.742	23261
840.879	22691
841.016	22820
841.153	22850
841.29	22919
841.427	22847
841.564	22904
841.701	22881
841.838	22824
841.975	22774
842.112	22831
842.249	22706
842.385	22679
842.522	22809
842.659	22725
842.796	22721
842.933	22740
843.069	22584
843.206	22634
843.343	22592
843.479	22717
843.616	22725
843.752	22493
843.889	22557
844.025	22675
844.162	22455
844.298	22706
844.435	22478
844.571	22546
844.708	22447
844.844	22622
844.98	22596
845.117	22569
845.253	22474
845.389	22405
845.525	22360
845.661	22333
845.798	22131
845.934	22284
846.07	22200
846.206	22185
846.342	22306
846.478	22188
846.614	21975
846.75	21934
846.886	21895
847.022	21934
847.158	21964
847.294	21869
847.429	21972
847.565	21880
847.701	22215
847.837	21648
847.972	21568
848.108	21880
848.244	21747
848.379	21564
848.515	21523
848.65	21549
848.786	21424
848.921	21591
849.057	21580
849.192	21473
849.328	21690
849.463	21511
849.598	21515
849.734	21412
849.869	21595
850.004	21218
850.14	21374
850.275	21222
850.41	21313
850.545	21245
850.68	21260
850.815	21226
850.95	21218
851.085	21511
851.22	21389
851.355	21279
851.49	21272
851.625	21294
851.76	21252
851.895	21184
852.03	21222
852.165	21420
852.299	21192
852.434	21378
852.569	21272
852.703	21401
852.838	21405
852.973	21504
853.107	21420
853.242	21195
853.376	21142
853.511	20990
853.645	21188
853.78	21275
853.914	21138
854.048	21119
854.183	21154
854.317	21119
854.451	21291
854.585	21199
854.72	21138
854.854	21195
854.988	21017
855.122	21001
855.256	21024
855.39	21039
855.524	21214
855.658	21237
855.792	21233
855.926	21070
856.06	21302
856.194	21222
856.327	21116
856.461	21074
856.595	21135
856.729	21039
856.862	21184
856.996	21169
857.13	21214
857.263	21306
857.397	21218
857.53	21108
857.664	21131
857.797	21161
857.931	21089
858.064	21058
858.197	21184
858.331	21161
858.464	21150
858.597	20967
858.731	20952
858.864	20998
858.997	21074
859.13	21081
859.263	21268
859.396	21283
859.529	21131
859.662	21104
859.795	21074
859.928	21100
860.061	21230
860.194	21340
860.327	21131
860.46	21100
860.592	21332
860.725	21310
860.858	21157
860.99	21020
861.123	21070
861.256	21055
861.388	21112
861.521	21895
861.653	21001
861.786	20963
861.918	20918
862.05	21047
862.183	21074
862.315	21093
862.447	21150
862.58	20960
862.712	20845
862.844	20868
862.976	20815
863.108	20960
863.24	21154
863.372	20765
863.504	20838
863.636	20880
863.768	20948
863.9	20891
864.032	20864
864.164	20788
864.296	20861
864.428	20921
864.559	20864
864.691	20914
864.823	20952
864.954	20838
865.086	20727
865.217	20830
865.349	20659
865.48	20739
865.612	20689
865.743	20963
865.875	20887
866.006	20693
866.137	20758
866.269	20617
866.4	20606
866.531	20644
866.662	20545
866.793	20807
866.924	20674
867.055	20644
867.186	20686
867.317	20629
867.448	20564
867.579	20667
867.71	20564
867.841	20514
867.972	20750
868.103	20606
868.233	20629
868.364	20716
868.495	20754
868.625	20887
868.756	21062
868.886	20948
869.017	20895
869.147	21058
869.278	20963
869.408	20979
869.539	20823
869.669	20990
869.799	20960
869.929	21161
870.06	21058
870.19	21329
870.32	21268
870.45	21161
870.58	21325
870.71	21545
870.84	21507
870.97	21408
871.1	21336
871.23	21545
871.36	21572
871.489	21462
871.619	21549
871.749	21492
871.879	21507
872.008	21572
872.138	21599
872.267	21576
872.397	21412
872.526	21279
872.656	21428
872.785	21313
872.915	21435
873.044	21671
873.173	21538
873.303	21603
873.432	21587
873.561	21667
873.69	21595
873.819	21549
873.948	21633
874.077	21485
874.206	21481
874.335	21561
874.464	21583
874.593	21808
874.722	21793
874.851	21846
874.979	21804
875.108	21846
875.237	21785
875.365	21637
875.494	21808
875.623	21793
875.751	21656
875.88	21823
876.008	21907
876.136	21918
876.265	22211
876.393	22337
876.521	22207
876.65	22246
876.778	22173
876.906	22074
877.034	22032
877.162	22078
877.29	22097
877.418	22116
877.546	22112
877.674	22139
877.802	22276
877.93	22230
878.058	22215
878.185	21979
878.313	22040
878.441	22261
878.568	22002
878.696	22131
878.824	22048
878.951	22249
879.079	22246
879.206	22478
879.333	22287
879.461	22223
879.588	22242
879.715	22276
879.842	22421
879.97	22230
880.097	21876
880.224	21915
880.351	22078
880.478	21838
880.605	21823
880.732	21975
880.859	22185
880.986	21937
881.112	21953
881.239	21819
881.366	21679
881.493	21660
881.619	21485
881.746	21458
881.872	21641
881.999	21545
882.125	21416
882.252	21682
882.378	21500
882.505	21488
882.631	21473
882.757	21131
882.883	21393
883.01	21256
883.136	21161
883.262	21192
883.388	21085
883.514	21127
883.64	21214
883.766	21157
883.892	20994
884.018	21100
884.143	21051
884.269	21283
884.395	21005
884.52	20842
884.646	20914
884.772	20830
884.897	20754
885.023	20937
885.148	20929
885.274	20994
885.399	21017
885.524	20838
885.65	20826
885.775	20868
885.9	20975
886.025	20994
886.15	21001
886.275	20823
886.4	20758
886.525	20815
886.65	20724
886.775	20830
886.9	20979
887.025	21013
887.149	20807
887.274	20743
887.399	20667
887.523	20655
887.648	20621
887.773	20632
887.897	20823
888.021	20640
888.146	20602
888.27	20716
888.395	20800
888.519	20609
888.643	20708
888.767	20667
888.891	20613
889.015	20495
889.139	20644
889.263	20328
889.387	20545
889.511	20785
889.635	20594
889.759	20415
889.883	20393
890.006	20511
890.13	20408
890.254	20278
890.377	20446
890.501	20142
890.624	20320
890.748	20183
890.871	20126
890.995	19986
891.118	19951
891.241	20039
891.364	20012
891.488	20142
891.611	19993
891.734	20012
891.857	20214
891.98	20043
892.103	20008
892.226	19970
892.349	19913
892.471	19837
892.594	19982
892.717	19970
892.839	19833
892.962	20012
893.085	19986
893.207	19860
893.33	19830
893.452	19803
893.575	19913
893.697	19772
893.819	20001
893.941	20069
894.064	20100
894.186	19970
894.308	19826
894.43	20054
894.552	20195
894.674	20054
894.796	19887
894.918	19917
895.04	19875
895.161	20012
895.283	19944
895.405	20065
895.526	19951
895.648	19967
895.769	19921
895.891	19940
896.012	19970
896.134	20054
896.255	20008
896.376	19925
896.498	19811
896.619	19925
896.74	19936
896.861	19902
896.982	20298
897.103	20377
897.224	20115
897.345	20168
897.466	20050
897.587	20210
897.708	20248
897.828	20199
897.949	20115
898.07	20050
898.19	20172
898.311	20157
898.431	20096
898.552	20267
898.672	20202
898.792	20252
898.913	20142
899.033	20142
899.153	20092
899.273	19879
899.393	19883
899.513	19967
899.633	19902
899.753	19974
899.873	19811
899.993	19944
900.113	19906
900.232	19989
900.352	19860
900.472	19715
900.591	19715
900.711	19761
900.83	19628
900.95	19685
901.069	19814
901.189	19670
901.308	19419
901.427	19270
901.546	19282
901.665	19244
901.784	19304
901.904	19141
902.023	19038
902.141	18852
902.26	18871
902.379	18886
902.498	18825
902.617	18764
902.735	18798
902.854	18745
902.973	18673
903.091	18467
903.21	18429
903.328	18445
903.446	18304
903.565	18251
903.683	18330
903.801	18163
903.919	18270
904.038	18239
904.156	18045
904.274	18076
904.392	17984
904.51	18022
904.627	18041
904.745	18106
904.863	18163
904.981	17764
905.098	17600
905.216	17752
905.334	17726
905.451	17771
905.569	17634
905.686	17722
905.803	17699
905.921	17497
906.038	17547
906.155	17604
906.272	17444
906.389	17425
906.506	17292
906.623	17231
906.74	17284
906.857	17155
906.974	17185
907.091	17341
907.208	17368
907.324	17212
907.441	17067
907.557	17056
907.674	16987
907.79	16953
907.907	16908
908.023	17060
908.139	16980
908.256	16904
908.372	16805
908.488	16843
908.604	16710
908.72	16687
908.836	16702
908.952	16706
909.068	16759
909.184	16687
909.3	16717
909.415	16774
909.531	16634
909.647	16436
909.762	16417
909.878	16405
909.993	16440
910.108	16516
910.224	16371
910.339	16462
910.454	16249
910.57	16166
910.685	16101
910.8	16356
910.915	16333
911.03	16238
911.145	15968
911.259	15907
911.374	16055
911.489	15911
911.604	15835
911.718	15812
911.833	15827
911.947	15667
912.062	15568
912.176	15663
912.291	15835
912.405	15739
912.519	15956
912.633	15926
912.748	15698
912.862	15701
912.976	15568
913.09	15424
913.204	15523
913.318	15587
913.431	15591
913.545	15671
913.659	15743
913.772	15515
913.886	15374
914	15344
914.113	15389
914.226	15439
914.34	15488
914.453	15230
914.566	15447
914.68	15287
914.793	15283
914.906	15036
915.019	14986
915.132	14963
915.245	14910
915.358	15028
915.47	14967
915.583	14982
915.696	14963
915.809	15028
915.921	15062
916.034	14838
916.146	14811
916.259	14807
916.371	14986
916.483	14948
916.595	14769
916.708	14830
916.82	14758
916.932	14678
917.044	14777
917.156	14720
917.268	14651
917.38	14629
917.491	14594
917.603	14712
917.715	14716
917.826	14708
917.938	14533
918.049	14419
918.161	14579
918.272	14758
918.384	14663
918.495	14594
918.606	14427
918.717	14358
918.828	14408
918.939	14412
919.05	14339
919.161	14396
919.272	14145
919.383	14218
919.494	14431
919.604	14598
919.715	14343
919.826	14210
919.936	14362
920.047	14404
920.157	14286
920.267	14503
920.378	14362
920.488	14320
920.598	14518
920.708	14465
920.818	14511
920.928	14442
921.038	14503
921.148	14621
921.258	14347
921.368	14161
921.477	14069
921.587	14092
921.697	14001
921.806	14088
921.916	13963
922.025	13780
922.134	13765
922.244	13715
922.353	13772
922.462	13559
922.571	13601
922.68	13304
922.789	13422
922.898	13384
923.007	13373
923.116	13411
923.224	13373
923.333	13373
923.442	13221
923.55	13255
923.659	13213
923.767	13259
923.876	13118
923.984	13247
924.092	13179
924.201	13209
924.309	13088
924.417	13202
924.525	13099
924.633	13114
924.741	14058
924.849	12878
924.956	12962
925.064	12882
925.172	12795
925.279	12875
925.387	12806
925.494	12852
925.602	12943
925.709	12856
925.816	12726
925.924	12715
926.031	12852
926.138	12806
926.245	12871
926.352	12722
926.459	12852
926.566	12905
926.673	12703
926.779	12620
926.886	12658
926.993	12437
927.099	12441
927.206	12330
927.312	12414
927.419	12486
927.525	12414
927.631	12410
927.737	12410
927.843	12243
927.95	12213
928.056	12201
928.162	12281
928.267	12334
928.373	12829
928.479	12399
928.585	12053
928.69	12235
928.796	12243
928.901	12106
929.007	11973
929.112	12098
929.218	12144
929.323	11988
929.428	12003
929.533	12140
929.638	11870
929.743	11961
929.848	11973
929.953	11809
930.058	11786
930.163	11767
930.267	11718
930.372	11840
930.477	11661
930.581	11859
930.685	11737
930.79	11611
930.894	11585
930.998	11573
931.103	11581
931.207	11337
931.311	11273
931.415	11162
931.519	10995
931.623	10938
