Data from test_V78500241_2941.txt Node
Date: Fri Mar 25 16:02:10 CST 2022
User: usil
Spectrometer: V785-0024
Trigger mode: 0
Integration Time (sec): 4.000000E-1
Scans to average: 1
Nonlinearity correction enabled: false
Boxcar width: 0
Storing dark spectrum: false
XAxis mode: Wavelengths
Number of Pixels in Spectrum: 1024
>>>>>Begin Spectral Data<<<<<
801.071	28622
801.214	28691
801.356	28500
801.499	28440
801.641	28265
801.783	28363
801.926	28424
802.068	28215
802.211	28287
802.353	28219
802.496	28173
802.638	27979
802.78	28067
802.923	28013
803.065	27888
803.208	27903
803.35	27960
803.492	28188
803.635	28105
803.777	28025
803.919	28299
804.061	28554
804.204	28192
804.346	28029
804.488	28169
804.63	28352
804.773	28207
804.915	28154
805.057	28401
805.199	28295
805.341	28223
805.483	28447
805.626	28367
805.768	28265
805.91	28371
806.052	28371
806.194	28352
806.336	28573
806.478	28432
806.62	28447
806.762	28512
806.904	28618
807.046	28968
807.188	28862
807.33	28793
807.472	28854
807.614	28927
807.756	28774
807.898	28656
808.04	28755
808.182	28736
808.324	28771
808.465	28793
808.607	28915
808.749	29052
808.891	29124
809.033	29261
809.174	29326
809.316	29056
809.458	29296
809.6	29098
809.741	29258
809.883	29223
810.025	29322
810.166	29379
810.308	29307
810.45	29269
810.591	29395
810.733	29159
810.875	29098
811.016	28904
811.158	28991
811.299	29098
811.441	29284
811.582	29185
811.724	29174
811.865	29090
812.007	29140
812.148	29155
812.29	29140
812.431	29288
812.573	29478
812.714	29566
812.855	29684
812.997	29619
813.138	29805
813.279	29794
813.421	29592
813.562	29665
813.703	29505
813.845	29417
813.986	28980
814.127	28942
814.268	28858
814.41	28782
814.551	28752
814.692	28759
814.833	28694
814.974	28835
815.115	28942
815.256	28672
815.397	28820
815.539	28683
815.68	28630
815.821	28622
815.962	28561
816.103	28824
816.244	28584
816.385	28440
816.526	28246
816.666	28230
816.807	28097
816.948	28162
817.089	28150
817.23	28249
817.371	28070
817.512	28166
817.653	28246
817.793	28017
817.934	28215
818.075	28154
818.216	28074
818.356	28067
818.497	28002
818.638	27892
818.778	27861
818.919	27857
819.06	27972
819.2	27930
819.341	28143
819.481	28032
819.622	28207
819.762	28481
819.903	28462
820.043	28318
820.184	28223
820.324	28230
820.465	28215
820.605	28249
820.746	28196
820.886	28143
821.026	28291
821.167	28310
821.307	28181
821.447	28116
821.588	28025
821.728	27937
821.868	27800
822.008	27755
822.149	27705
822.289	27511
822.429	27370
822.569	27313
822.709	27374
822.849	27222
822.99	27085
823.13	27089
823.27	27127
823.41	27089
823.55	26842
823.69	26921
823.83	26883
823.97	26891
824.11	26762
824.25	26815
824.389	26826
824.529	26868
824.669	26769
824.809	26921
824.949	26929
825.089	26857
825.228	26876
825.368	26625
825.508	26492
825.648	26743
825.787	26712
825.927	26788
826.067	26686
826.206	26689
826.346	26686
826.485	26670
826.625	26625
826.765	26769
826.904	26716
827.044	26526
827.183	26507
827.323	26374
827.462	26492
827.601	26332
827.741	26408
827.88	26328
828.02	26210
828.159	26320
828.298	26495
828.437	26461
828.577	26355
828.716	26351
828.855	26385
828.994	26278
829.134	26077
829.273	26088
829.412	26039
829.551	26016
829.69	26092
829.829	26096
829.968	26206
830.107	26088
830.246	26054
830.385	25944
830.524	25963
830.663	25830
830.802	25811
830.941	25670
831.08	25700
831.219	25746
831.357	25750
831.496	25898
831.635	25616
831.774	25632
831.913	25559
832.051	25434
832.19	25464
832.329	25556
832.467	25392
832.606	25453
832.744	25362
832.883	25221
833.022	25274
833.16	25308
833.299	25304
833.437	25346
833.576	25293
833.714	25343
833.852	25468
833.991	25479
834.129	25495
834.267	25529
834.406	25445
834.544	25377
834.682	25316
834.821	25274
834.959	25491
835.097	25377
835.235	25525
835.373	25377
835.511	25293
835.65	25274
835.788	25251
835.926	25133
836.064	25133
836.202	25072
836.34	25251
836.478	25213
836.615	25365
836.753	25282
836.891	25152
837.029	25217
837.167	25209
837.305	25008
837.443	25076
837.58	25008
837.718	25110
837.856	25129
837.993	24981
838.131	24996
838.269	24905
838.406	24996
838.544	24802
838.681	24764
838.819	24711
838.956	24452
839.094	24403
839.231	24585
839.369	24760
839.506	24962
839.643	24700
839.781	24490
839.918	24532
840.055	24528
840.193	24467
840.33	24361
840.467	24426
840.604	24483
840.742	24707
840.879	24357
841.016	24399
841.153	24247
841.29	24388
841.427	24429
841.564	24323
841.701	24350
841.838	24350
841.975	24285
842.112	24338
842.249	24262
842.385	24254
842.522	24490
842.659	24350
842.796	24079
842.933	24114
843.069	24194
843.206	24095
843.343	24296
843.479	24194
843.616	24163
843.752	24034
843.889	24076
844.025	24060
844.162	23889
844.298	24068
844.435	23756
844.571	23904
844.708	23897
844.844	23954
844.98	24018
845.117	23965
845.253	23836
845.389	23786
845.525	23916
845.661	23729
845.798	23661
845.934	23878
846.07	23554
846.206	23638
846.342	23843
846.478	23608
846.614	23455
846.75	23410
846.886	23410
847.022	23497
847.158	23410
847.294	23387
847.429	23501
847.565	23349
847.701	23615
847.837	23193
847.972	23079
848.108	23246
848.244	23181
848.379	23029
848.515	22930
848.65	22999
848.786	22972
848.921	23041
849.057	23044
849.192	23143
849.328	23044
849.463	22965
849.598	22831
849.734	22881
849.869	22816
850.004	22793
850.14	22729
850.275	22740
850.41	22611
850.545	22577
850.68	22740
850.815	22774
850.95	22744
851.085	23037
851.22	22858
851.355	22778
851.49	22767
851.625	22725
851.76	22790
851.895	22744
852.03	22771
852.165	22744
852.299	22824
852.434	22805
852.569	22847
852.703	22771
852.838	22782
852.973	22923
853.107	22778
853.242	22706
853.376	22611
853.511	22497
853.645	22634
853.78	22763
853.914	22622
854.048	22645
854.183	22626
854.317	22607
854.451	22866
854.585	22615
854.72	22584
854.854	22668
854.988	22596
855.122	22592
855.256	22550
855.39	22580
855.524	22702
855.658	22683
855.792	22542
855.926	22592
856.06	22687
856.194	22599
856.327	22538
856.461	22500
856.595	22577
856.729	22592
856.862	22653
856.996	22607
857.13	22653
857.263	22740
857.397	22698
857.53	22611
857.664	22546
857.797	22580
857.931	22626
858.064	22588
858.197	22691
858.331	22565
858.464	22573
858.597	22325
858.731	22428
858.864	22538
858.997	22546
859.13	22645
859.263	22554
859.396	22683
859.529	22550
859.662	22554
859.795	22500
859.928	22626
860.061	22649
860.194	22740
860.327	22721
860.46	22622
860.592	22694
860.725	22725
860.858	22630
860.99	22656
861.123	22421
861.256	22447
861.388	22622
861.521	23421
861.653	22500
861.786	22398
861.918	22493
862.05	22451
862.183	22500
862.315	22569
862.447	22603
862.58	22516
862.712	22211
862.844	22295
862.976	22363
863.108	22318
863.24	22786
863.372	22207
863.504	22223
863.636	22207
863.768	22325
863.9	22413
864.032	22249
864.164	22398
864.296	22329
864.428	22280
864.559	22325
864.691	22409
864.823	22166
864.954	22162
865.086	22192
865.217	22120
865.349	21979
865.48	22154
865.612	22105
865.743	22329
865.875	22116
866.006	22166
866.137	22173
866.269	22116
866.4	22200
866.531	22181
866.662	22177
866.793	22070
866.924	22032
867.055	22154
867.186	22112
867.317	21956
867.448	21983
867.579	22048
867.71	22070
867.841	21998
867.972	22154
868.103	22074
868.233	22021
868.364	22090
868.495	22238
868.625	22223
868.756	22405
868.886	22177
869.017	22341
869.147	22382
869.278	22451
869.408	22295
869.539	22295
869.669	22405
869.799	22325
869.929	22390
870.06	22459
870.19	22729
870.32	22694
870.45	22679
870.58	22710
870.71	22782
870.84	22927
870.97	22858
871.1	22850
871.23	22869
871.36	22911
871.489	22812
871.619	22847
871.749	23010
871.879	22896
872.008	22995
872.138	22908
872.267	22923
872.397	22957
872.526	22710
872.656	22892
872.785	22596
872.915	22949
873.044	22987
873.173	22976
873.303	22961
873.432	22980
873.561	23025
873.69	22995
873.819	22850
873.948	23029
874.077	22987
874.206	22946
874.335	22904
874.464	23098
874.593	23121
874.722	23151
874.851	23200
874.979	23105
875.108	23280
875.237	23064
875.365	23083
875.494	23033
875.623	23204
875.751	23109
875.88	23140
876.008	23322
876.136	23303
876.265	23486
876.393	23691
876.521	23608
876.65	23752
876.778	23512
876.906	23486
877.034	23425
877.162	23585
877.29	23471
877.418	23642
877.546	23471
877.674	23623
877.802	23558
877.93	23452
878.058	23383
878.185	23433
878.313	23501
878.441	23501
878.568	23277
878.696	23345
878.824	23596
878.951	23558
879.079	23684
879.206	23775
879.333	23756
879.461	23581
879.588	23646
879.715	23653
879.842	23733
879.97	23501
880.097	23391
880.224	23353
880.351	23273
880.478	23280
880.605	23326
880.732	23227
880.859	23699
880.986	23307
881.112	23368
881.239	23208
881.366	22965
881.493	22957
881.619	22930
881.746	22972
881.872	22850
881.999	22984
882.125	22778
882.252	22797
882.378	22934
882.505	22843
882.631	22748
882.757	22618
882.883	22656
883.01	22592
883.136	22523
883.262	22497
883.388	22413
883.514	22519
883.64	22592
883.766	22421
883.892	22352
884.018	22299
884.143	22508
884.269	22523
884.395	22329
884.52	22074
884.646	22219
884.772	22109
884.897	22051
885.023	22074
885.148	22204
885.274	22246
885.399	22337
885.524	22219
885.65	22101
885.775	22150
885.9	22109
886.025	22299
886.15	22219
886.275	22109
886.4	22074
886.525	22204
886.65	21979
886.775	22013
886.9	22318
887.025	22371
887.149	22192
887.274	21994
887.399	21987
887.523	21968
887.648	21960
887.773	21823
887.897	21987
888.021	22051
888.146	21827
888.27	21930
888.395	22029
888.519	21869
888.643	21937
888.767	22006
888.891	21865
889.015	21720
889.139	21873
889.263	21709
889.387	21835
889.511	21949
889.635	21865
889.759	21732
889.883	21705
890.006	21751
890.13	21895
890.254	21698
890.377	21762
890.501	21401
890.624	21458
890.748	21454
890.871	21237
890.995	21184
891.118	21237
891.241	21332
891.364	21291
891.488	21382
891.611	21389
891.734	21283
891.857	21260
891.98	21233
892.103	21321
892.226	21378
892.349	21203
892.471	21093
892.594	21306
892.717	21127
892.839	21131
892.962	21157
893.085	21272
893.207	21131
893.33	21051
893.452	21066
893.575	21169
893.697	21150
893.819	21294
893.941	21344
894.064	21310
894.186	21055
894.308	21032
894.43	21085
894.552	21382
894.674	21332
894.796	21024
894.918	21051
895.04	21127
895.161	21112
895.283	21142
895.405	21184
895.526	21142
895.648	21077
895.769	21036
895.891	21116
896.012	21214
896.134	21245
896.255	21138
896.376	21135
896.498	21135
896.619	21142
896.74	21100
896.861	21272
896.982	21374
897.103	21568
897.224	21496
897.345	21401
897.466	21416
897.587	21405
897.708	21530
897.828	21458
897.949	21275
898.07	21272
898.19	21131
898.311	21294
898.431	21287
898.552	21355
898.672	21431
898.792	21481
898.913	21367
899.033	21275
899.153	21211
899.273	20971
899.393	21195
899.513	21245
899.633	21211
899.753	21043
899.873	21020
899.993	21127
900.113	20975
900.232	21123
900.352	21039
900.472	21024
900.591	20792
900.711	20895
900.83	20830
900.95	20921
901.069	20952
901.189	20750
901.308	20415
901.427	20507
901.546	20552
901.665	20419
901.784	20530
901.904	20309
902.023	20206
902.141	20084
902.26	20012
902.379	20164
902.498	20005
902.617	19909
902.735	19967
902.854	19917
902.973	19890
903.091	19559
903.21	19594
903.328	19674
903.446	19525
903.565	19388
903.683	19426
903.801	19228
903.919	19312
904.038	19388
904.156	19228
904.274	19221
904.392	19164
904.51	19194
904.627	19118
904.745	19164
904.863	19251
904.981	18977
905.098	18935
905.216	18886
905.334	18772
905.451	18844
905.569	18791
905.686	18844
905.803	18772
905.921	18513
906.038	18749
906.155	18616
906.272	18380
906.389	18521
906.506	18334
906.623	18391
906.74	18422
906.857	18262
906.974	18258
907.091	18433
907.208	18391
907.324	18330
907.441	18205
907.557	18030
907.674	18068
907.79	18022
907.907	18079
908.023	18167
908.139	18125
908.256	17927
908.372	17904
908.488	17885
908.604	17821
908.72	17748
908.836	17794
908.952	17779
909.068	17779
909.184	17859
909.3	17737
909.415	17783
909.531	17756
909.647	17532
909.762	17474
909.878	17509
909.993	17383
910.108	17376
910.224	17406
910.339	17383
910.454	17364
910.57	17265
910.685	17166
910.8	17486
910.915	17436
911.03	17345
911.145	17067
911.259	17090
911.374	17102
911.489	16930
911.604	16938
911.718	16748
911.833	16828
911.947	16675
912.062	16668
912.176	16725
912.291	16763
912.405	16721
912.519	16961
912.633	17010
912.748	16820
912.862	16755
912.976	16580
913.09	16470
913.204	16527
913.318	16569
913.431	16729
913.545	16702
913.659	16626
913.772	16573
913.886	16379
914	16299
914.113	16455
914.226	16538
914.34	16421
914.453	16249
914.566	16432
914.68	16352
914.793	16188
914.906	16055
915.019	15994
915.132	15895
915.245	15922
915.358	16013
915.47	15960
915.583	15892
915.696	15964
915.809	16055
915.921	15987
916.034	15918
916.146	15819
916.259	15690
916.371	15857
916.483	15854
916.595	15717
916.708	15800
916.82	15759
916.932	15720
917.044	15728
917.156	15644
917.268	15553
917.38	15557
917.491	15564
917.603	15618
917.715	15595
917.826	15663
917.938	15538
918.049	15435
918.161	15477
918.272	15561
918.384	15610
918.495	15389
918.606	15355
918.717	15310
918.828	15291
918.939	15412
919.05	15142
919.161	15131
919.272	15081
919.383	15165
919.494	15329
919.604	15538
919.715	15233
919.826	15119
919.936	15336
920.047	15310
920.157	15325
920.267	15348
920.378	15283
920.488	15256
920.598	15428
920.708	15656
920.818	15435
920.928	15408
921.038	15454
921.148	15450
921.258	15146
921.368	15138
921.477	15047
921.587	14887
921.697	14834
921.806	14960
921.916	14891
922.025	14705
922.134	14682
922.244	14507
922.353	14686
922.462	14480
922.571	14381
922.68	14290
922.789	14286
922.898	14332
923.007	14195
923.116	14366
923.224	14324
923.333	14275
923.442	14092
923.55	14008
923.659	14073
923.767	14065
923.876	14103
923.984	14180
924.092	13989
924.201	14001
924.309	14062
924.417	13974
924.525	13887
924.633	13887
924.741	14823
924.849	13803
924.956	13772
925.064	13731
925.172	13636
925.279	13616
925.387	13658
925.494	13651
925.602	13689
925.709	13647
925.816	13552
925.924	13563
926.031	13662
926.138	13453
926.245	13559
926.352	13502
926.459	13655
926.566	13647
926.673	13377
926.779	13384
926.886	13369
926.993	13244
927.099	13225
927.206	13152
927.312	13126
927.419	13206
927.525	13145
927.631	13217
927.737	13046
927.843	13004
927.95	12905
928.056	12848
928.162	12993
928.267	12981
928.373	13658
928.479	13023
928.585	12757
928.69	12867
928.796	12962
928.901	12905
929.007	12684
929.112	12795
929.218	12764
929.323	12757
929.428	12620
929.533	12783
929.638	12681
929.743	12574
929.848	12696
929.953	12589
930.058	12513
930.163	12254
930.267	12330
930.372	12479
930.477	12258
930.581	12582
930.685	12395
930.79	12311
930.894	12273
930.998	12270
931.103	12311
931.207	11954
931.311	11977
931.415	11863
931.519	11581
931.623	11543
