Data from test_V78500241_2134.txt Node
Date: Fri Mar 25 15:56:35 CST 2022
User: usil
Spectrometer: V785-0024
Trigger mode: 0
Integration Time (sec): 4.000000E-1
Scans to average: 1
Nonlinearity correction enabled: false
Boxcar width: 0
Storing dark spectrum: false
XAxis mode: Wavelengths
Number of Pixels in Spectrum: 1024
>>>>>Begin Spectral Data<<<<<
801.071	28995
801.214	29003
801.356	28866
801.499	28710
801.641	28565
801.783	28462
801.926	28599
802.068	28580
802.211	28523
802.353	28481
802.496	28398
802.638	28242
802.78	28314
802.923	28192
803.065	28135
803.208	28139
803.35	28238
803.492	28242
803.635	28512
803.777	28398
803.919	28618
804.061	28953
804.204	28611
804.346	28443
804.488	28478
804.63	28577
804.773	28519
804.915	28615
805.057	28531
805.199	28599
805.341	28702
805.483	28679
805.626	28752
805.768	28611
805.91	28630
806.052	28786
806.194	28771
806.336	28793
806.478	28786
806.62	28679
806.762	28786
806.904	28984
807.046	29109
807.188	29140
807.33	29231
807.472	29193
807.614	29216
807.756	29265
807.898	28965
808.04	29037
808.182	29037
808.324	29151
808.465	29162
808.607	29429
808.749	29417
808.891	29505
809.033	29478
809.174	29387
809.316	29292
809.458	29425
809.6	29505
809.741	29490
809.883	29520
810.025	29703
810.166	29680
810.308	29687
810.45	29676
810.591	29646
810.733	29455
810.875	29520
811.016	29391
811.158	29307
811.299	29356
811.441	29444
811.582	29554
811.724	29497
811.865	29379
812.007	29421
812.148	29558
812.29	29467
812.431	29608
812.573	29786
812.714	29786
812.855	29950
812.997	30079
813.138	30125
813.279	30064
813.421	29988
813.562	29885
813.703	29745
813.845	29653
813.986	29395
814.127	29269
814.268	29075
814.41	29273
814.551	29140
814.692	29204
814.833	29090
814.974	29155
815.115	29170
815.256	28835
815.397	28965
815.539	28987
815.68	28984
815.821	28828
815.962	29029
816.103	28965
816.244	28877
816.385	28622
816.526	28774
816.666	28611
816.807	28451
816.948	28497
817.089	28554
817.23	28470
817.371	28466
817.512	28443
817.653	28432
817.793	28379
817.934	28462
818.075	28398
818.216	28557
818.356	28417
818.497	28265
818.638	28169
818.778	28219
818.919	28181
819.06	28295
819.2	28462
819.341	28356
819.481	28531
819.622	28630
819.762	28908
819.903	28622
820.043	28592
820.184	28645
820.324	28557
820.465	28679
820.605	28729
820.746	28611
820.886	28405
821.026	28592
821.167	28424
821.307	28531
821.447	28584
821.588	28413
821.728	28303
821.868	27998
822.008	27892
822.149	28188
822.289	27956
822.429	27819
822.569	27530
822.709	27694
822.849	27553
822.99	27545
823.13	27469
823.27	27393
823.41	27332
823.55	27211
823.69	27378
823.83	27348
823.97	27176
824.11	27070
824.25	26990
824.389	27066
824.529	27013
824.669	27077
824.809	27131
824.949	27260
825.089	27272
825.228	27222
825.368	26906
825.508	27013
825.648	27005
825.787	27020
825.927	27093
826.067	26982
826.206	27020
826.346	26998
826.485	27062
826.625	26979
826.765	27116
826.904	27085
827.044	26830
827.183	26781
827.323	26716
827.462	26746
827.601	26708
827.741	26621
827.88	26686
828.02	26545
828.159	26769
828.298	26853
828.437	26811
828.577	26712
828.716	26902
828.855	26682
828.994	26473
829.134	26366
829.273	26355
829.412	26298
829.551	26362
829.69	26442
829.829	26473
829.968	26579
830.107	26412
830.246	26317
830.385	26396
830.524	26339
830.663	26225
830.802	26035
830.941	26035
831.08	25928
831.219	26161
831.357	26164
831.496	26221
831.635	26001
831.774	25917
831.913	25837
832.051	25811
832.19	25852
832.329	25795
832.467	25670
832.606	25635
832.744	25655
832.883	25662
833.022	25476
833.16	25616
833.299	25765
833.437	25655
833.576	25616
833.714	25811
833.852	25841
833.991	25837
834.129	25750
834.267	25811
834.406	25746
834.544	25780
834.682	25909
834.821	25620
834.959	25864
835.097	25655
835.235	25765
835.373	25727
835.511	25666
835.65	25563
835.788	25556
835.926	25495
836.064	25468
836.202	25320
836.34	25571
836.478	25616
836.615	25476
836.753	25548
836.891	25578
837.029	25434
837.167	25487
837.305	25419
837.443	25597
837.58	25244
837.718	25396
837.856	25327
837.993	25377
838.131	25430
838.269	25232
838.406	25236
838.544	25251
838.681	24951
838.819	25012
838.956	24875
839.094	24954
839.231	24913
839.369	24901
839.506	25240
839.643	25027
839.781	24897
839.918	24738
840.055	24810
840.193	24867
840.33	24783
840.467	24810
840.604	24696
840.742	25034
840.879	24502
841.016	24616
841.153	24658
841.29	24852
841.427	24795
841.564	24878
841.701	24783
841.838	24604
841.975	24696
842.112	24574
842.249	24475
842.385	24483
842.522	24730
842.659	24483
842.796	24540
842.933	24528
843.069	24441
843.206	24330
843.343	24422
843.479	24350
843.616	24369
843.752	24201
843.889	24273
844.025	24357
844.162	24346
844.298	24414
844.435	24197
844.571	24220
844.708	24186
844.844	24467
844.98	24391
845.117	24319
845.253	24133
845.389	24232
845.525	24114
845.661	24098
845.798	23942
845.934	24015
846.07	23828
846.206	23977
846.342	24258
846.478	23897
846.614	23794
846.75	23623
846.886	23707
847.022	23756
847.158	23707
847.294	23638
847.429	23695
847.565	23505
847.701	24041
847.837	23573
847.972	23486
848.108	23467
848.244	23509
848.379	23239
848.515	23288
848.65	23197
848.786	23299
848.921	23284
849.057	23330
849.192	23292
849.328	23273
849.463	23364
849.598	23269
849.734	23223
849.869	23128
850.004	23041
850.14	23060
850.275	23086
850.41	23067
850.545	23006
850.68	23003
850.815	23025
850.95	22995
851.085	23204
851.22	23067
851.355	23033
851.49	23033
851.625	23037
851.76	23155
851.895	23018
852.03	23014
852.165	23048
852.299	23075
852.434	23105
852.569	22984
852.703	23010
852.838	23121
852.973	23117
853.107	23204
853.242	22942
853.376	22934
853.511	22733
853.645	22919
853.78	23044
853.914	22736
854.048	22911
854.183	22927
854.317	23022
854.451	23113
854.585	22786
854.72	22869
854.854	22953
854.988	22828
855.122	22946
855.256	22729
855.39	22858
855.524	22957
855.658	22991
855.792	22873
855.926	22987
856.06	22828
856.194	22858
856.327	22835
856.461	22831
856.595	22858
856.729	22820
856.862	22972
856.996	22965
857.13	22991
857.263	22984
857.397	22980
857.53	22942
857.664	22869
857.797	22904
857.931	22980
858.064	22915
858.197	22961
858.331	22881
858.464	22854
858.597	22866
858.731	22847
858.864	22987
858.997	22828
859.13	22835
859.263	22934
859.396	22987
859.529	22968
859.662	22946
859.795	22839
859.928	22968
860.061	22976
860.194	23121
860.327	22984
860.46	22892
860.592	23048
860.725	23014
860.858	23052
860.99	22976
861.123	22767
861.256	22797
861.388	22957
861.521	23570
861.653	22748
861.786	22622
861.918	22713
862.05	22820
862.183	22778
862.315	22786
862.447	22790
862.58	22854
862.712	22664
862.844	22565
862.976	22786
863.108	22721
863.24	22995
863.372	22561
863.504	22596
863.636	22588
863.768	22710
863.9	22771
864.032	22500
864.164	22538
864.296	22637
864.428	22672
864.559	22797
864.691	22622
864.823	22577
864.954	22637
865.086	22504
865.217	22527
865.349	22428
865.48	22447
865.612	22474
865.743	22672
865.875	22459
866.006	22485
866.137	22470
866.269	22485
866.4	22535
866.531	22440
866.662	22375
866.793	22386
866.924	22375
867.055	22455
867.186	22440
867.317	22417
867.448	22405
867.579	22363
867.71	22242
867.841	22272
867.972	22394
868.103	22261
868.233	22569
868.364	22497
868.495	22523
868.625	22615
868.756	22725
868.886	22630
869.017	22668
869.147	22828
869.278	22809
869.408	22717
869.539	22588
869.669	22759
869.799	22717
869.929	22729
870.06	22694
870.19	22892
870.32	23056
870.45	23022
870.58	23044
870.71	23094
870.84	23170
870.97	23060
871.1	23056
871.23	23239
871.36	23231
871.489	23147
871.619	23197
871.749	23185
871.879	23208
872.008	23391
872.138	23242
872.267	23239
872.397	23098
872.526	23029
872.656	23162
872.785	23162
872.915	23208
873.044	23269
873.173	23406
873.303	23250
873.432	23326
873.561	23235
873.69	23288
873.819	23303
873.948	23303
874.077	23128
874.206	23155
874.335	23376
874.464	23486
874.593	23406
874.722	23486
874.851	23524
874.979	23501
875.108	23615
875.237	23531
875.365	23387
875.494	23505
875.623	23512
875.751	23284
875.88	23414
876.008	23592
876.136	23684
876.265	23771
876.393	24026
876.521	23931
876.65	23969
876.778	23851
876.906	23843
877.034	23851
877.162	23916
877.29	23672
877.418	23863
877.546	23809
877.674	23790
877.802	23756
877.93	23760
878.058	23764
878.185	23745
878.313	23707
878.441	23707
878.568	23638
878.696	23741
878.824	23817
878.951	23969
879.079	24003
879.206	24087
879.333	23874
879.461	23775
879.588	23935
879.715	23912
879.842	23992
879.97	23939
880.097	23596
880.224	23680
880.351	23634
880.478	23684
880.605	23600
880.732	23551
880.859	23828
880.986	23745
881.112	23592
881.239	23512
881.366	23299
881.493	23307
881.619	23136
881.746	23159
881.872	23227
881.999	23105
882.125	23132
882.252	23277
882.378	23105
882.505	23098
882.631	22995
882.757	22900
882.883	22938
883.01	22881
883.136	22755
883.262	22668
883.388	22778
883.514	22782
883.64	22885
883.766	22687
883.892	22599
884.018	22599
884.143	22786
884.269	22816
884.395	22485
884.52	22382
884.646	22478
884.772	22337
884.897	22200
885.023	22466
885.148	22592
885.274	22535
885.399	22588
885.524	22557
885.65	22405
885.775	22489
885.9	22432
886.025	22523
886.15	22584
886.275	22481
886.4	22500
886.525	22489
886.65	22432
886.775	22443
886.9	22599
887.025	22569
887.149	22474
887.274	22253
887.399	22287
887.523	22200
887.648	22154
887.773	22097
887.897	22246
888.021	22131
888.146	22177
888.27	22280
888.395	22295
888.519	22196
888.643	22276
888.767	22196
888.891	22025
889.015	21987
889.139	21991
889.263	21941
889.387	22040
889.511	22166
889.635	22067
889.759	22013
889.883	21945
890.006	21964
890.13	22078
890.254	21987
890.377	22025
890.501	21675
890.624	21717
890.748	21778
890.871	21717
890.995	21641
891.118	21576
891.241	21542
891.364	21553
891.488	21641
891.611	21633
891.734	21580
891.857	21492
891.98	21545
892.103	21599
892.226	21450
892.349	21526
892.471	21355
892.594	21538
892.717	21496
892.839	21405
892.962	21473
893.085	21572
893.207	21458
893.33	21302
893.452	21260
893.575	21511
893.697	21279
893.819	21633
893.941	21682
894.064	21530
894.186	21382
894.308	21401
894.43	21492
894.552	21629
894.674	21492
894.796	21329
894.918	21283
895.04	21382
895.161	21523
895.283	21420
895.405	21348
895.526	21272
895.648	21302
895.769	21424
895.891	21485
896.012	21507
896.134	21405
896.255	21424
896.376	21393
896.498	21355
896.619	21359
896.74	21447
896.861	21534
896.982	21785
897.103	21911
897.224	21663
897.345	21698
897.466	21488
897.587	21618
897.708	21660
897.828	21603
897.949	21492
898.07	21348
898.19	21542
898.311	21717
898.431	21614
898.552	21644
898.672	21603
898.792	21682
898.913	21583
899.033	21492
899.153	21542
899.273	21310
899.393	21393
899.513	21302
899.633	21382
899.753	21405
899.873	21268
899.993	21306
900.113	21256
900.232	21313
900.352	21260
900.472	21154
900.591	21089
900.711	21161
900.83	21074
900.95	21100
901.069	21066
901.189	21032
901.308	20769
901.427	20594
901.546	20663
901.665	20769
901.784	20617
901.904	20526
902.023	20545
902.141	20134
902.26	20172
902.379	20313
902.498	20119
902.617	20005
902.735	20237
902.854	20161
902.973	20069
903.091	19841
903.21	19757
903.328	19757
903.446	19712
903.565	19620
903.683	19689
903.801	19369
903.919	19518
904.038	19487
904.156	19403
904.274	19445
904.392	19358
904.51	19350
904.627	19339
904.745	19388
904.863	19339
904.981	19236
905.098	19034
905.216	19019
905.334	19091
905.451	19034
905.569	18943
905.686	19084
905.803	18962
905.921	18783
906.038	18875
906.155	18863
906.272	18722
906.389	18700
906.506	18521
906.623	18471
906.74	18608
906.857	18403
906.974	18296
907.091	18506
907.208	18673
907.324	18464
907.441	18418
907.557	18216
907.674	18239
907.79	18148
907.907	18277
908.023	18178
908.139	18201
908.256	18140
908.372	18224
908.488	18117
908.604	18041
908.72	17931
908.836	18019
908.952	17958
909.068	18106
909.184	17942
909.3	17920
909.415	17958
909.531	18038
909.647	17714
909.762	17798
909.878	17661
909.993	17634
910.108	17634
910.224	17566
910.339	17615
910.454	17490
910.57	17505
910.685	17356
910.8	17710
910.915	17486
911.03	17376
911.145	17258
911.259	17212
911.374	17280
911.489	17193
911.604	17166
911.718	17124
911.833	17006
911.947	16942
912.062	16885
912.176	17003
912.291	16873
912.405	16889
912.519	17208
912.633	17162
912.748	16946
912.862	16892
912.976	16854
913.09	16664
913.204	16729
913.318	16862
913.431	16908
913.545	16828
913.659	16862
913.772	16687
913.886	16584
914	16440
914.113	16656
914.226	16675
914.34	16554
914.453	16489
914.566	16493
914.68	16337
914.793	16348
914.906	16147
915.019	16181
915.132	16055
915.245	16139
915.358	16158
915.47	16112
915.583	16147
915.696	16238
915.809	16234
915.921	16246
916.034	16105
916.146	16006
916.259	15956
916.371	16078
916.483	16071
916.595	15915
916.708	15892
916.82	15945
916.932	15819
917.044	15884
917.156	15812
917.268	15732
917.38	15854
917.491	15797
917.603	15804
917.715	15816
917.826	15774
917.938	15606
918.049	15618
918.161	15675
918.272	15766
918.384	15850
918.495	15682
918.606	15492
918.717	15405
918.828	15530
918.939	15481
919.05	15302
919.161	15488
919.272	15264
919.383	15370
919.494	15458
919.604	15633
919.715	15462
919.826	15214
919.936	15526
920.047	15443
920.157	15477
920.267	15481
920.378	15466
920.488	15382
920.598	15587
920.708	15781
920.818	15545
920.928	15557
921.038	15682
921.148	15572
921.258	15367
921.368	15321
921.477	15249
921.587	15211
921.697	15093
921.806	15138
921.916	14979
922.025	14838
922.134	14807
922.244	14823
922.353	14758
922.462	14632
922.571	14682
922.68	14473
922.789	14393
922.898	14473
923.007	14347
923.116	14438
923.224	14408
923.333	14355
923.442	14237
923.55	14237
923.659	14313
923.767	14282
923.876	14161
923.984	14237
924.092	14092
924.201	14145
924.309	14107
924.417	14103
924.525	14084
924.633	14058
924.741	14895
924.849	13890
924.956	14016
925.064	13849
925.172	13856
925.279	13845
925.387	13795
925.494	13780
925.602	13925
925.709	13841
925.816	13677
925.924	13731
926.031	13734
926.138	13799
926.245	13780
926.352	13636
926.459	13780
926.566	13753
926.673	13563
926.779	13597
926.886	13578
926.993	13396
927.099	13400
927.206	13247
927.312	13350
927.419	13373
927.525	13324
927.631	13320
927.737	13232
927.843	13156
927.95	13050
928.056	13179
928.162	13149
928.267	13206
928.373	13776
928.479	13240
928.585	12996
928.69	13080
928.796	13118
928.901	13050
929.007	12886
929.112	12951
929.218	13004
929.323	12848
929.428	12897
929.533	12985
929.638	12760
929.743	12787
929.848	12837
929.953	12639
930.058	12608
930.163	12513
930.267	12620
930.372	12635
930.477	12490
930.581	12681
930.685	12490
930.79	12418
930.894	12479
930.998	12388
931.103	12467
931.207	12152
931.311	12007
931.415	12019
931.519	11699
931.623	11707
