Data from test_V78500241_3308.txt Node
Date: Fri Mar 25 16:04:43 CST 2022
User: usil
Spectrometer: V785-0024
Trigger mode: 0
Integration Time (sec): 4.000000E-1
Scans to average: 1
Nonlinearity correction enabled: false
Boxcar width: 0
Storing dark spectrum: false
XAxis mode: Wavelengths
Number of Pixels in Spectrum: 1024
>>>>>Begin Spectral Data<<<<<
801.071	28748
801.214	28763
801.356	28348
801.499	28413
801.641	28207
801.783	28295
801.926	28200
802.068	28223
802.211	28162
802.353	28223
802.496	28192
802.638	27987
802.78	28021
802.923	27743
803.065	27869
803.208	27991
803.35	27994
803.492	28181
803.635	28082
803.777	28002
803.919	28310
804.061	28607
804.204	28166
804.346	28139
804.488	28101
804.63	28154
804.773	28074
804.915	28181
805.057	28409
805.199	28303
805.341	28379
805.483	28409
805.626	28500
805.768	28158
805.91	28306
806.052	28481
806.194	28329
806.336	28588
806.478	28504
806.62	28371
806.762	28455
806.904	28603
807.046	29003
807.188	28843
807.33	28873
807.472	28778
807.614	28733
807.756	28854
807.898	28710
808.04	28634
808.182	28668
808.324	28748
808.465	28752
808.607	28862
808.749	29105
808.891	29178
809.033	29227
809.174	29098
809.316	29204
809.458	29075
809.6	29025
809.741	29128
809.883	29121
810.025	29391
810.166	29505
810.308	29299
810.45	29463
810.591	29322
810.733	29029
810.875	29083
811.016	28987
811.158	29136
811.299	29208
811.441	29189
811.582	29220
811.724	29033
811.865	29216
812.007	28999
812.148	29098
812.29	29121
812.431	29345
812.573	29444
812.714	29414
812.855	29486
812.997	29661
813.138	29836
813.279	29779
813.421	29611
813.562	29627
813.703	29444
813.845	29341
813.986	29022
814.127	28869
814.268	28809
814.41	28763
814.551	28862
814.692	28759
814.833	28755
814.974	28698
815.115	28885
815.256	28717
815.397	28588
815.539	28755
815.68	28618
815.821	28561
815.962	28675
816.103	28694
816.244	28394
816.385	28337
816.526	28280
816.666	28329
816.807	28116
816.948	28143
817.089	28265
817.23	28139
817.371	28086
817.512	28112
817.653	28128
817.793	28090
817.934	28120
818.075	28101
818.216	28314
818.356	28082
818.497	27937
818.638	27899
818.778	27808
818.919	27739
819.06	28006
819.2	28040
819.341	28109
819.481	28021
819.622	28177
819.762	28493
819.903	28474
820.043	28143
820.184	28276
820.324	28147
820.465	28223
820.605	28265
820.746	28223
820.886	28002
821.026	28200
821.167	28116
821.307	28322
821.447	28272
821.588	28044
821.728	27983
821.868	27728
822.008	27705
822.149	27534
822.289	27587
822.429	27325
822.569	27397
822.709	27291
822.849	27108
822.99	27104
823.13	27085
823.27	26971
823.41	26975
823.55	26765
823.69	26777
823.83	26880
823.97	26891
824.11	26697
824.25	26659
824.389	26720
824.529	26792
824.669	26777
824.809	26876
824.949	26796
825.089	26811
825.228	26735
825.368	26530
825.508	26705
825.648	26549
825.787	26533
825.927	26746
826.067	26659
826.206	26636
826.346	26579
826.485	26712
826.625	26583
826.765	26838
826.904	26682
827.044	26522
827.183	26522
827.323	26294
827.462	26450
827.601	26438
827.741	26313
827.88	26320
828.02	26305
828.159	26355
828.298	26328
828.437	26492
828.577	26320
828.716	26339
828.855	26294
828.994	26126
829.134	26122
829.273	25966
829.412	25947
829.551	26043
829.69	26031
829.829	26073
829.968	26210
830.107	26069
830.246	26050
830.385	25917
830.524	25875
830.663	25852
830.802	25651
830.941	25563
831.08	25552
831.219	25769
831.357	25635
831.496	25868
831.635	25666
831.774	25609
831.913	25609
832.051	25411
832.19	25487
832.329	25464
832.467	25308
832.606	25168
832.744	25293
832.883	25297
833.022	25187
833.16	25240
833.299	25289
833.437	25209
833.576	25324
833.714	25358
833.852	25392
833.991	25381
834.129	25487
834.267	25499
834.406	25335
834.544	25495
834.682	25525
834.821	25308
834.959	25670
835.097	25312
835.235	25422
835.373	25457
835.511	25392
835.65	25259
835.788	25206
835.926	25225
836.064	24981
836.202	25050
836.34	25187
836.478	25228
836.615	25122
836.753	25304
836.891	25354
837.029	25202
837.167	25160
837.305	25156
837.443	25088
837.58	25008
837.718	25175
837.856	25148
837.993	25012
838.131	24951
838.269	24909
838.406	24966
838.544	24905
838.681	24734
838.819	24817
838.956	24441
839.094	24410
839.231	24525
839.369	24681
839.506	24833
839.643	24757
839.781	24578
839.918	24395
840.055	24616
840.193	24414
840.33	24441
840.467	24372
840.604	24384
840.742	24757
840.879	24197
841.016	24399
841.153	24327
841.29	24441
841.427	24334
841.564	24388
841.701	24445
841.838	24334
841.975	24190
842.112	24388
842.249	24369
842.385	24239
842.522	24292
842.659	24163
842.796	24079
842.933	24155
843.069	24041
843.206	24026
843.343	24110
843.479	24178
843.616	24213
843.752	23931
843.889	23984
844.025	23984
844.162	23980
844.298	24007
844.435	23992
844.571	24038
844.708	24018
844.844	24129
844.98	24079
845.117	24095
845.253	23931
845.389	23687
845.525	23923
845.661	23794
845.798	23589
845.934	23680
846.07	23646
846.206	23653
846.342	23767
846.478	23714
846.614	23524
846.75	23406
846.886	23356
847.022	23433
847.158	23463
847.294	23410
847.429	23452
847.565	23284
847.701	23516
847.837	23052
847.972	23098
848.108	23155
848.244	23098
848.379	23041
848.515	23090
848.65	22869
848.786	22999
848.921	23105
849.057	23010
849.192	23048
849.328	23067
849.463	22915
849.598	22850
849.734	22839
849.869	22786
850.004	22767
850.14	22771
850.275	22725
850.41	22656
850.545	22611
850.68	22626
850.815	22778
850.95	22717
851.085	22938
851.22	22702
851.355	22892
851.49	22767
851.625	22710
851.76	22634
851.895	22706
852.03	22592
852.165	22694
852.299	22637
852.434	22919
852.569	22729
852.703	22778
852.838	22755
852.973	22839
853.107	22828
853.242	22687
853.376	22584
853.511	22409
853.645	22519
853.78	22668
853.914	22542
854.048	22626
854.183	22508
854.317	22573
854.451	22733
854.585	22569
854.72	22599
854.854	22535
854.988	22546
855.122	22626
855.256	22424
855.39	22519
855.524	22645
855.658	22683
855.792	22675
855.926	22649
856.06	22603
856.194	22611
856.327	22577
856.461	22497
856.595	22531
856.729	22542
856.862	22736
856.996	22557
857.13	22596
857.263	22599
857.397	22607
857.53	22592
857.664	22618
857.797	22713
857.931	22691
858.064	22504
858.197	22580
858.331	22561
858.464	22447
858.597	22432
858.731	22405
858.864	22459
858.997	22508
859.13	22679
859.263	22573
859.396	22535
859.529	22512
859.662	22527
859.795	22497
859.928	22512
860.061	22831
860.194	22675
860.327	22637
860.46	22527
860.592	22622
860.725	22698
860.858	22626
860.99	22573
861.123	22432
861.256	22436
861.388	22584
861.521	23288
861.653	22436
861.786	22314
861.918	22436
862.05	22478
862.183	22428
862.315	22409
862.447	22508
862.58	22500
862.712	22253
862.844	22158
862.976	22421
863.108	22443
863.24	22771
863.372	22219
863.504	22382
863.636	22280
863.768	22390
863.9	22344
864.032	22238
864.164	22230
864.296	22356
864.428	22268
864.559	22280
864.691	22424
864.823	22181
864.954	22234
865.086	22169
865.217	22124
865.349	22063
865.48	22166
865.612	22063
865.743	22276
865.875	22204
866.006	22101
866.137	22154
866.269	22196
866.4	22223
866.531	22032
866.662	22002
866.793	22059
866.924	22055
867.055	22265
867.186	22101
867.317	22048
867.448	22029
867.579	22013
867.71	22063
867.841	21983
867.972	22120
868.103	22063
868.233	22078
868.364	22173
868.495	22158
868.625	22128
868.756	22337
868.886	22147
869.017	22295
869.147	22531
869.278	22367
869.408	22352
869.539	22287
869.669	22478
869.799	22352
869.929	22447
870.06	22436
870.19	22641
870.32	22618
870.45	22641
870.58	22706
870.71	22809
870.84	22816
870.97	22660
871.1	22618
871.23	22942
871.36	22995
871.489	22873
871.619	22850
871.749	22991
871.879	22984
872.008	23048
872.138	22908
872.267	22816
872.397	22850
872.526	22725
872.656	22778
872.785	22626
872.915	22953
873.044	22957
873.173	22987
873.303	22904
873.432	22999
873.561	22938
873.69	22957
873.819	22938
873.948	22934
874.077	22919
874.206	22968
874.335	22976
874.464	23022
874.593	23102
874.722	23174
874.851	23181
874.979	23098
875.108	23303
875.237	23117
875.365	23121
875.494	23147
875.623	23216
875.751	23064
875.88	23090
876.008	23258
876.136	23311
876.265	23539
876.393	23703
876.521	23646
876.65	23695
876.778	23535
876.906	23493
877.034	23646
877.162	23539
877.29	23490
877.418	23558
877.546	23539
877.674	23474
877.802	23570
877.93	23318
878.058	23402
878.185	23391
878.313	23493
878.441	23577
878.568	23254
878.696	23387
878.824	23604
878.951	23642
879.079	23585
879.206	23657
879.333	23672
879.461	23395
879.588	23535
879.715	23589
879.842	23946
879.97	23547
880.097	23204
880.224	23273
880.351	23383
880.478	23307
880.605	23280
880.732	23326
880.859	23535
880.986	23212
881.112	23334
881.239	23174
881.366	23094
881.493	23033
881.619	22824
881.746	22968
881.872	22877
881.999	22812
882.125	22881
882.252	22930
882.378	22790
882.505	22900
882.631	22664
882.757	22588
882.883	22713
883.01	22637
883.136	22535
883.262	22382
883.388	22375
883.514	22478
883.64	22569
883.766	22462
883.892	22299
884.018	22310
884.143	22478
884.269	22588
884.395	22268
884.52	22082
884.646	22204
884.772	22257
884.897	22128
885.023	22223
885.148	22230
885.274	22272
885.399	22329
885.524	22090
885.65	22200
885.775	22272
885.9	22169
886.025	22257
886.15	22204
886.275	22135
886.4	22128
886.525	22128
886.65	22025
886.775	21998
886.9	22230
887.025	22348
887.149	22086
887.274	21991
887.399	21991
887.523	21823
887.648	21876
887.773	21804
887.897	22105
888.021	21899
888.146	21899
888.27	22112
888.395	21987
888.519	21880
888.643	21941
888.767	21953
888.891	21869
889.015	21812
889.139	21686
889.263	21698
889.387	21781
889.511	21838
889.635	21747
889.759	21667
889.883	21759
890.006	21823
890.13	21770
890.254	21606
890.377	21720
890.501	21447
890.624	21481
890.748	21542
890.871	21321
890.995	21272
891.118	21161
891.241	21241
891.364	21218
891.488	21336
891.611	21268
891.734	21230
891.857	21370
891.98	21203
892.103	21264
892.226	21313
892.349	21283
892.471	20982
892.594	21039
892.717	21123
892.839	21195
892.962	21180
893.085	21199
893.207	21089
893.33	21089
893.452	21036
893.575	21150
893.697	21119
893.819	21291
893.941	21287
894.064	21363
894.186	21165
894.308	20994
894.43	21321
894.552	21241
894.674	21222
894.796	21112
894.918	21165
895.04	21104
895.161	21195
895.283	21192
895.405	21077
895.526	20944
895.648	21161
895.769	21135
895.891	21161
896.012	21317
896.134	21272
896.255	21055
896.376	21062
896.498	21028
896.619	21195
896.74	21077
896.861	21081
896.982	21420
897.103	21469
897.224	21306
897.345	21336
897.466	21332
897.587	21279
897.708	21332
897.828	21222
897.949	21260
898.07	21218
898.19	21184
898.311	21416
898.431	21249
898.552	21294
898.672	21500
898.792	21310
898.913	21344
899.033	21119
899.153	21195
899.273	21028
899.393	21096
899.513	21055
899.633	21161
899.753	21127
899.873	21032
899.993	21135
900.113	21005
900.232	21020
900.352	21005
900.472	20990
900.591	20807
900.711	20777
900.83	20731
900.95	20990
901.069	20895
901.189	20689
901.308	20541
901.427	20324
901.546	20347
901.665	20396
901.784	20332
901.904	20240
902.023	20153
902.141	19993
902.26	19959
902.379	19963
902.498	19833
902.617	19890
902.735	19906
902.854	19932
902.973	19883
903.091	19502
903.21	19544
903.328	19521
903.446	19556
903.565	19369
903.683	19343
903.801	19107
903.919	19396
904.038	19194
904.156	19168
904.274	19126
904.392	19198
904.51	19091
904.627	19065
904.745	19206
904.863	19179
904.981	19008
905.098	18749
905.216	18749
905.334	18901
905.451	18821
905.569	18776
905.686	18719
905.803	18817
905.921	18604
906.038	18639
906.155	18646
906.272	18433
906.389	18441
906.506	18304
906.623	18365
906.74	18315
906.857	18106
906.974	18254
907.091	18357
907.208	18327
907.324	18380
907.441	18216
907.557	18072
907.674	17992
907.79	17954
907.907	18034
908.023	18060
908.139	17992
908.256	17988
908.372	17973
908.488	17790
908.604	17733
908.72	17638
908.836	17729
908.952	17737
909.068	17756
909.184	17756
909.3	17718
909.415	17707
909.531	17661
909.647	17516
909.762	17490
909.878	17471
909.993	17379
910.108	17512
910.224	17376
910.339	17391
910.454	17277
910.57	17200
910.685	17060
910.8	17368
910.915	17364
911.03	17223
911.145	17083
911.259	17037
911.374	16889
911.489	17006
911.604	16793
911.718	16691
911.833	16877
911.947	16706
912.062	16470
912.176	16691
912.291	16809
912.405	16767
912.519	16984
912.633	16923
912.748	16675
912.862	16717
912.976	16641
913.09	16436
913.204	16584
913.318	16519
913.431	16637
913.545	16519
913.659	16759
913.772	16443
913.886	16360
914	16379
914.113	16424
914.226	16440
914.34	16375
914.453	16299
914.566	16284
914.68	16147
914.793	16071
914.906	16032
915.019	15903
915.132	15880
915.245	15911
915.358	15922
915.47	15934
915.583	15911
915.696	15934
915.809	16071
915.921	16082
916.034	15793
916.146	15838
916.259	15804
916.371	15876
916.483	15785
916.595	15770
916.708	15762
916.82	15774
916.932	15751
917.044	15720
917.156	15545
917.268	15587
917.38	15519
917.491	15542
917.603	15580
917.715	15732
917.826	15641
917.938	15393
918.049	15351
918.161	15401
918.272	15561
918.384	15561
918.495	15458
918.606	15332
918.717	15230
918.828	15355
918.939	15329
919.05	15233
919.161	15161
919.272	15055
919.383	15176
919.494	15355
919.604	15408
919.715	15291
919.826	15192
919.936	15192
920.047	15355
920.157	15211
920.267	15492
920.378	15275
920.488	15192
920.598	15355
920.708	15488
920.818	15332
920.928	15283
921.038	15526
921.148	15416
921.258	15188
921.368	15138
921.477	14963
921.587	14998
921.697	14857
921.806	14956
921.916	14720
922.025	14632
922.134	14610
922.244	14503
922.353	14552
922.462	14571
922.571	14381
922.68	14252
922.789	14259
922.898	14332
923.007	14202
923.116	14259
923.224	14256
923.333	14126
923.442	14130
923.55	13986
923.659	14119
923.767	14149
923.876	14027
923.984	14031
924.092	13841
924.201	14035
924.309	13902
924.417	13947
924.525	13807
924.633	13890
924.741	14777
924.849	13624
924.956	13871
925.064	13712
925.172	13537
925.279	13510
925.387	13658
925.494	13651
925.602	13693
925.709	13601
925.816	13480
925.924	13582
926.031	13666
926.138	13464
926.245	13556
926.352	13514
926.459	13533
926.566	13518
926.673	13445
926.779	13362
926.886	13365
926.993	13114
927.099	13187
927.206	13126
927.312	13103
927.419	13206
927.525	13149
927.631	13187
927.737	12989
927.843	13012
927.95	12844
928.056	13004
928.162	12973
928.267	12951
928.373	13582
928.479	13042
928.585	12760
928.69	12913
928.796	12928
928.901	12772
929.007	12620
929.112	12760
929.218	12817
929.323	12608
929.428	12585
929.533	12776
929.638	12639
929.743	12566
929.848	12654
929.953	12627
930.058	12532
930.163	12254
930.267	12342
930.372	12525
930.477	12311
930.581	12536
930.685	12384
930.79	12178
930.894	12175
930.998	12224
931.103	12270
931.207	11923
931.311	11885
931.415	11741
931.519	11638
931.623	11566
