Data from test_V78500241_947.txt Node
Date: Fri Mar 25 15:48:21 CST 2022
User: usil
Spectrometer: V785-0024
Trigger mode: 0
Integration Time (sec): 4.000000E-1
Scans to average: 1
Nonlinearity correction enabled: false
Boxcar width: 0
Storing dark spectrum: false
XAxis mode: Wavelengths
Number of Pixels in Spectrum: 1024
>>>>>Begin Spectral Data<<<<<
801.071	28580
801.214	28394
801.356	28257
801.499	28314
801.641	28044
801.783	28162
801.926	28188
802.068	28124
802.211	28017
802.353	27972
802.496	27686
802.638	27736
802.78	27698
802.923	27576
803.065	27656
803.208	27679
803.35	27724
803.492	27907
803.635	27922
803.777	27842
803.919	27941
804.061	28375
804.204	28086
804.346	27960
804.488	27937
804.63	27922
804.773	27804
804.915	27983
805.057	28169
805.199	27835
805.341	28162
805.483	28074
805.626	28082
805.768	28059
805.91	28124
806.052	28120
806.194	27991
806.336	28295
806.478	28147
806.62	28090
806.762	28337
806.904	28466
807.046	28611
807.188	28546
807.33	28618
807.472	28565
807.614	28527
807.756	28569
807.898	28390
808.04	28360
808.182	28352
808.324	28474
808.465	28432
808.607	28653
808.749	28752
808.891	28892
809.033	28953
809.174	28858
809.316	28653
809.458	28793
809.6	28797
809.741	29025
809.883	28900
810.025	29102
810.166	29166
810.308	29136
810.45	29018
810.591	29200
810.733	28820
810.875	28809
811.016	28744
811.158	28797
811.299	29018
811.441	29041
811.582	28946
811.724	28980
811.865	28809
812.007	28729
812.148	28752
812.29	28873
812.431	29239
812.573	29102
812.714	29239
812.855	29463
812.997	29596
813.138	29703
813.279	29471
813.421	29322
813.562	29356
813.703	29181
813.845	29060
813.986	28828
814.127	28588
814.268	28698
814.41	28519
814.551	28481
814.692	28653
814.833	28432
814.974	28363
815.115	28489
815.256	28443
815.397	28455
815.539	28508
815.68	28306
815.821	28382
815.962	28299
816.103	28310
816.244	28246
816.385	28337
816.526	28048
816.666	28025
816.807	27865
816.948	27884
817.089	27895
817.23	28025
817.371	27892
817.512	27819
817.653	27930
817.793	28025
817.934	27934
818.075	27876
818.216	27869
818.356	27884
818.497	27736
818.638	27549
818.778	27443
818.919	27701
819.06	27797
819.2	27838
819.341	27861
819.481	27846
819.622	27953
819.762	28192
819.903	28090
820.043	28044
820.184	28135
820.324	27998
820.465	28135
820.605	28021
820.746	27949
820.886	27781
821.026	27918
821.167	27835
821.307	28112
821.447	27998
821.588	27739
821.728	27682
821.868	27561
822.008	27329
822.149	27291
822.289	27306
822.429	26982
822.569	26975
822.709	26868
822.849	26788
822.99	26823
823.13	26842
823.27	26693
823.41	26697
823.55	26530
823.69	26811
823.83	26655
823.97	26731
824.11	26514
824.25	26442
824.389	26549
824.529	26583
824.669	26571
824.809	26701
824.949	26682
825.089	26518
825.228	26636
825.368	26488
825.508	26408
825.648	26442
825.787	26522
825.927	26492
826.067	26412
826.206	26415
826.346	26393
826.485	26396
826.625	26389
826.765	26575
826.904	26446
827.044	26168
827.183	26210
827.323	26157
827.462	26088
827.601	26199
827.741	26050
827.88	26183
828.02	26001
828.159	26100
828.298	26119
828.437	26176
828.577	26035
828.716	26240
828.855	25989
828.994	25875
829.134	25681
829.273	25795
829.412	25734
829.551	25685
829.69	25928
829.829	25841
829.968	25799
830.107	25814
830.246	25776
830.385	25696
830.524	25624
830.663	25616
830.802	25479
830.941	25426
831.08	25339
831.219	25479
831.357	25506
831.496	25514
831.635	25304
831.774	25331
831.913	25301
832.051	25156
832.19	25019
832.329	25190
832.467	25228
832.606	24939
832.744	25004
832.883	25148
833.022	25156
833.16	25019
833.299	25095
833.437	25129
833.576	25164
833.714	25156
833.852	25183
833.991	25072
834.129	25152
834.267	25107
834.406	25160
834.544	25099
834.682	25065
834.821	25110
834.959	25441
835.097	25034
835.235	25160
835.373	25027
835.511	25072
835.65	25034
835.788	25031
835.926	24821
836.064	24707
836.202	24783
836.34	24928
836.478	25160
836.615	24859
836.753	24890
836.891	24814
837.029	24992
837.167	24878
837.305	24882
837.443	24943
837.58	24863
837.718	24856
837.856	24779
837.993	24730
838.131	24829
838.269	24745
838.406	24741
838.544	24601
838.681	24448
838.819	24418
838.956	24346
839.094	24315
839.231	24190
839.369	24361
839.506	24593
839.643	24517
839.781	24334
839.918	24213
840.055	24270
840.193	24228
840.33	24098
840.467	24220
840.604	24243
840.742	24414
840.879	23996
841.016	24129
841.153	23980
841.29	24235
841.427	24110
841.564	24201
841.701	24117
841.838	24174
841.975	23958
842.112	24011
842.249	23912
842.385	23961
842.522	24136
842.659	24007
842.796	23889
842.933	23783
843.069	23851
843.206	23775
843.343	23996
843.479	23813
843.616	23946
843.752	23718
843.889	23813
844.025	23783
844.162	23592
844.298	23653
844.435	23752
844.571	23687
844.708	23729
844.844	23866
844.98	23786
845.117	23779
845.253	23646
845.389	23581
845.525	23562
845.661	23478
845.798	23444
845.934	23440
846.07	23379
846.206	23303
846.342	23455
846.478	23463
846.614	23136
846.75	23003
846.886	23117
847.022	23258
847.158	23212
847.294	23083
847.429	23052
847.565	23075
847.701	23277
847.837	22885
847.972	22858
848.108	23060
848.244	22984
848.379	22755
848.515	22755
848.65	22759
848.786	22691
848.921	22687
849.057	22809
849.192	22790
849.328	22824
849.463	22801
849.598	22637
849.734	22694
849.869	22466
850.004	22592
850.14	22489
850.275	22516
850.41	22497
850.545	22390
850.68	22451
850.815	22352
850.95	22352
851.085	22649
851.22	22481
851.355	22538
851.49	22504
851.625	22428
851.76	22485
851.895	22459
852.03	22512
852.165	22466
852.299	22630
852.434	22565
852.569	22512
852.703	22497
852.838	22519
852.973	22569
853.107	22508
853.242	22440
853.376	22303
853.511	22303
853.645	22173
853.78	22409
853.914	22284
854.048	22257
854.183	22291
854.317	22299
854.451	22550
854.585	22223
854.72	22268
854.854	22462
854.988	22337
855.122	22265
855.256	22158
855.39	22207
855.524	22234
855.658	22382
855.792	22344
855.926	22185
856.06	22303
856.194	22398
856.327	22284
856.461	22204
856.595	22192
856.729	22299
856.862	22386
856.996	22398
857.13	22303
857.263	22276
857.397	22333
857.53	22268
857.664	22455
857.797	22375
857.931	22356
858.064	22344
858.197	22375
858.331	22192
858.464	22280
858.597	22200
858.731	22276
858.864	22238
858.997	22249
859.13	22207
859.263	22341
859.396	22497
859.529	22268
859.662	22322
859.795	22284
859.928	22390
860.061	22341
860.194	22538
860.327	22379
860.46	22303
860.592	22424
860.725	22428
860.858	22337
860.99	22333
861.123	22276
861.256	22310
861.388	22348
861.521	22877
861.653	22249
861.786	22032
861.918	22124
862.05	22181
862.183	22230
862.315	22207
862.447	22257
862.58	22162
862.712	22044
862.844	21998
862.976	22032
863.108	22025
863.24	22421
863.372	21915
863.504	21956
863.636	22013
863.768	21994
863.9	21998
864.032	21854
864.164	22010
864.296	21926
864.428	22063
864.559	22032
864.691	22070
864.823	22025
864.954	21922
865.086	21934
865.217	21930
865.349	21793
865.48	21865
865.612	21865
865.743	22017
865.875	21922
866.006	21956
866.137	21850
866.269	21812
866.4	21918
866.531	21835
866.662	21797
866.793	21633
866.924	21842
867.055	21816
867.186	21854
867.317	21652
867.448	21709
867.579	21698
867.71	21698
867.841	21793
867.972	21838
868.103	21755
868.233	21766
868.364	21800
868.495	21857
868.625	22040
868.756	22162
868.886	21945
869.017	21994
869.147	22025
869.278	22063
869.408	22040
869.539	22063
869.669	22105
869.799	22044
869.929	22154
870.06	22002
870.19	22363
870.32	22223
870.45	22379
870.58	22398
870.71	22531
870.84	22535
870.97	22470
871.1	22500
871.23	22630
871.36	22630
871.489	22554
871.619	22649
871.749	22653
871.879	22694
872.008	22790
872.138	22596
872.267	22725
872.397	22497
872.526	22443
872.656	22405
872.785	22474
872.915	22653
873.044	22835
873.173	22740
873.303	22702
873.432	22694
873.561	22721
873.69	22565
873.819	22740
873.948	22782
874.077	22660
874.206	22672
874.335	22603
874.464	22763
874.593	22755
874.722	22790
874.851	22835
874.979	22934
875.108	22965
875.237	22713
875.365	22831
875.494	22805
875.623	22793
875.751	22885
875.88	22889
876.008	23006
876.136	22987
876.265	23273
876.393	23402
876.521	23303
876.65	23330
876.778	23246
876.906	23124
877.034	23311
877.162	23136
877.29	23200
877.418	23155
877.546	23105
877.674	23132
877.802	23223
877.93	23246
878.058	23227
878.185	23136
878.313	23204
878.441	23220
878.568	23006
878.696	23136
878.824	23117
878.951	23315
879.079	23406
879.206	23577
879.333	23341
879.461	23159
879.588	23315
879.715	23421
879.842	23562
879.97	23318
880.097	23052
880.224	23094
880.351	23010
880.478	23022
880.605	22862
880.732	23075
880.859	23261
880.986	23083
881.112	23037
881.239	22889
881.366	22656
881.493	22649
881.619	22451
881.746	22618
881.872	22653
881.999	22573
882.125	22573
882.252	22653
882.378	22554
882.505	22683
882.631	22352
882.757	22356
882.883	22363
883.01	22287
883.136	22242
883.262	22185
883.388	22196
883.514	22177
883.64	22360
883.766	22200
883.892	21949
884.018	22101
884.143	22337
884.269	22303
884.395	21876
884.52	21812
884.646	21930
884.772	21797
884.897	21785
885.023	21915
885.148	21968
885.274	22074
885.399	22059
885.524	21831
885.65	21945
885.775	21907
885.9	21869
886.025	21880
886.15	21953
886.275	21880
886.4	21835
886.525	21816
886.65	21793
886.775	21812
886.9	21949
887.025	22124
887.149	21903
887.274	21701
887.399	21641
887.523	21671
887.648	21526
887.773	21618
887.897	21739
888.021	21667
888.146	21557
888.27	21679
888.395	21770
888.519	21637
888.643	21762
888.767	21675
888.891	21625
889.015	21530
889.139	21583
889.263	21405
889.387	21591
889.511	21675
889.635	21473
889.759	21378
889.883	21507
890.006	21519
890.13	21599
890.254	21428
890.377	21317
890.501	21180
890.624	21108
890.748	21252
890.871	21138
890.995	20933
891.118	21077
891.241	21024
891.364	21013
891.488	21135
891.611	21066
891.734	20986
891.857	21154
891.98	21009
892.103	21093
892.226	21024
892.349	20883
892.471	20716
892.594	20960
892.717	20857
892.839	20872
892.962	20845
893.085	21032
893.207	20777
893.33	20727
893.452	20758
893.575	20838
893.697	20876
893.819	21096
893.941	21089
894.064	21047
894.186	20887
894.308	20804
894.43	21074
894.552	21077
894.674	21055
894.796	20769
894.918	20838
895.04	20876
895.161	21009
895.283	20880
895.405	20845
895.526	20849
895.648	20849
895.769	20823
895.891	20986
896.012	21017
896.134	20982
896.255	20979
896.376	20891
896.498	20746
896.619	20902
896.74	20960
896.861	20975
896.982	21074
897.103	21313
897.224	21214
897.345	21108
897.466	20914
897.587	21074
897.708	21100
897.828	21245
897.949	21005
898.07	20842
898.19	21112
898.311	21214
898.431	20963
898.552	21154
898.672	21142
898.792	21199
898.913	21146
899.033	20975
899.153	20849
899.273	20781
899.393	20819
899.513	20823
899.633	20773
899.753	20811
899.873	20697
899.993	20781
900.113	20861
900.232	20857
900.352	20712
900.472	20735
900.591	20571
900.711	20495
900.83	20457
900.95	20594
901.069	20667
901.189	20313
901.308	20317
901.427	20221
901.546	20195
901.665	20153
901.784	20278
901.904	19955
902.023	19909
902.141	19822
902.26	19715
902.379	19750
902.498	19734
902.617	19590
902.735	19727
902.854	19696
902.973	19616
903.091	19282
903.21	19293
903.328	19350
903.446	19236
903.565	19160
903.683	19091
903.801	19084
903.919	19145
904.038	19069
904.156	18837
904.274	18886
904.392	19012
904.51	18867
904.627	18772
904.745	18932
904.863	18886
904.981	18673
905.098	18589
905.216	18642
905.334	18551
905.451	18456
905.569	18585
905.686	18601
905.803	18681
905.921	18361
906.038	18506
906.155	18414
906.272	18220
906.389	18262
906.506	18197
906.623	18186
906.74	18121
906.857	18038
906.974	17980
907.091	18174
907.208	18129
907.324	18057
907.441	17977
907.557	17790
907.674	17794
907.79	17710
907.907	17741
908.023	17908
908.139	17726
908.256	17710
908.372	17672
908.488	17657
908.604	17520
908.72	17493
908.836	17501
908.952	17520
909.068	17570
909.184	17634
909.3	17467
909.415	17573
909.531	17501
909.647	17220
909.762	17216
909.878	17128
909.993	17220
910.108	17200
910.224	17162
910.339	17090
910.454	17064
910.57	17075
910.685	16847
910.8	17098
910.915	17090
911.03	16980
911.145	16843
911.259	16687
911.374	16656
911.489	16778
911.604	16607
911.718	16584
911.833	16542
911.947	16489
912.062	16402
912.176	16394
912.291	16558
912.405	16523
912.519	16729
912.633	16725
912.748	16588
912.862	16535
912.976	16352
913.09	16173
913.204	16360
913.318	16333
913.431	16306
913.545	16432
913.659	16405
913.772	16238
913.886	16223
914	16101
914.113	16181
914.226	16181
914.34	16116
914.453	16051
914.566	16150
914.68	16013
914.793	15941
914.906	15808
915.019	15774
915.132	15625
915.245	15648
915.358	15675
915.47	15766
915.583	15743
915.696	15675
915.809	15861
915.921	15819
916.034	15743
916.146	15660
916.259	15504
916.371	15663
916.483	15713
916.595	15534
916.708	15515
916.82	15557
916.932	15526
917.044	15553
917.156	15549
917.268	15287
917.38	15397
917.491	15336
917.603	15252
917.715	15367
917.826	15428
917.938	15329
918.049	15214
918.161	15298
918.272	15443
918.384	15443
918.495	15287
918.606	15173
918.717	15062
918.828	15127
918.939	15108
919.05	15104
919.161	15039
919.272	14902
919.383	14963
919.494	15020
919.604	15272
919.715	15036
919.826	14937
919.936	15043
920.047	15135
920.157	15001
920.267	15135
920.378	15081
920.488	14990
920.598	15264
920.708	15374
920.818	15226
920.928	15024
921.038	15256
921.148	15325
921.258	15051
921.368	14933
921.477	14781
921.587	14705
921.697	14720
921.806	14830
921.916	14655
922.025	14385
922.134	14412
922.244	14294
922.353	14431
922.462	14328
922.571	14282
922.68	14138
922.789	14096
922.898	14008
923.007	13989
923.116	14062
923.224	14008
923.333	14016
923.442	13890
923.55	13871
923.659	13811
923.767	13982
923.876	13769
923.984	13936
924.092	13734
924.201	13837
924.309	13746
924.417	13719
924.525	13647
924.633	13693
924.741	14579
924.849	13518
924.956	13643
925.064	13521
925.172	13445
925.279	13430
925.387	13495
925.494	13392
925.602	13590
925.709	13510
925.816	13388
925.924	13388
926.031	13422
926.138	13354
926.245	13358
926.352	13316
926.459	13403
926.566	13457
926.673	13259
926.779	13160
926.886	13198
926.993	13050
927.099	13042
927.206	13015
927.312	12954
927.419	13046
927.525	12966
927.631	12977
927.737	12848
927.843	12776
927.95	12646
928.056	12791
928.162	12810
928.267	12894
928.373	13350
928.479	12954
928.585	12582
928.69	12787
928.796	12662
928.901	12658
929.007	12574
929.112	12654
929.218	12585
929.323	12601
929.428	12517
929.533	12623
929.638	12502
929.743	12433
929.848	12460
929.953	12464
930.058	12369
930.163	12266
930.267	12201
930.372	12319
930.477	12068
930.581	12437
930.685	12224
930.79	12057
930.894	12110
930.998	12026
931.103	12129
931.207	11813
931.311	11699
931.415	11665
931.519	11448
931.623	11395
