Data from test_V78500241_288.txt Node
Date: Fri Mar 25 15:43:47 CST 2022
User: usil
Spectrometer: V785-0024
Trigger mode: 0
Integration Time (sec): 4.000000E-1
Scans to average: 1
Nonlinearity correction enabled: false
Boxcar width: 0
Storing dark spectrum: false
XAxis mode: Wavelengths
Number of Pixels in Spectrum: 1024
>>>>>Begin Spectral Data<<<<<
801.071	29748
801.214	29566
801.356	29505
801.499	29383
801.641	29303
801.783	29349
801.926	29455
802.068	29341
802.211	29246
802.353	29124
802.496	29014
802.638	29033
802.78	28968
802.923	28904
803.065	28900
803.208	28915
803.35	28869
803.492	29090
803.635	29235
803.777	29083
803.919	29360
804.061	29509
804.204	29143
804.346	29056
804.488	29003
804.63	29041
804.773	28957
804.915	29086
805.057	29220
805.199	29185
805.341	29216
805.483	29284
805.626	29360
805.768	29090
805.91	29223
806.052	29174
806.194	29178
806.336	29474
806.478	29337
806.62	29223
806.762	29296
806.904	29581
807.046	29729
807.188	29699
807.33	29627
807.472	29813
807.614	29676
807.756	29638
807.898	29535
808.04	29551
808.182	29604
808.324	29554
808.465	29425
808.607	29741
808.749	29950
808.891	30030
809.033	30136
809.174	29980
809.316	29927
809.458	29977
809.6	30049
809.741	29931
809.883	29923
810.025	30247
810.166	30251
810.308	30152
810.45	30136
810.591	30178
810.733	30026
810.875	30030
811.016	29927
811.158	29748
811.299	30049
811.441	30174
811.582	30022
811.724	29843
811.865	29878
812.007	29821
812.148	29923
812.29	29942
812.431	30057
812.573	30258
812.714	30418
812.855	30270
812.997	30532
813.138	30608
813.279	30623
813.421	30467
813.562	30342
813.703	30338
813.845	30079
813.986	29824
814.127	29672
814.268	29642
814.41	29634
814.551	29600
814.692	29566
814.833	29486
814.974	29608
815.115	29619
815.256	29493
815.397	29417
815.539	29478
815.68	29459
815.821	29387
815.962	29410
816.103	29318
816.244	29170
816.385	29132
816.526	29227
816.666	29056
816.807	28896
816.948	28881
817.089	28881
817.23	28888
817.371	28850
817.512	28774
817.653	28733
817.793	28820
817.934	28873
818.075	28748
818.216	28904
818.356	28683
818.497	28637
818.638	28466
818.778	28615
818.919	28512
819.06	28645
819.2	28611
819.341	28675
819.481	28797
819.622	28858
819.762	29094
819.903	28984
820.043	28946
820.184	28869
820.324	28911
820.465	28885
820.605	28919
820.746	28835
820.886	28713
821.026	28733
821.167	28904
821.307	29003
821.447	28767
821.588	28577
821.728	28516
821.868	28447
822.008	28223
822.149	28284
822.289	28150
822.429	27945
822.569	27983
822.709	27850
822.849	27717
822.99	27656
823.13	27652
823.27	27641
823.41	27488
823.55	27405
823.69	27405
823.83	27507
823.97	27454
824.11	27336
824.25	27222
824.389	27439
824.529	27241
824.669	27351
824.809	27393
824.949	27382
825.089	27325
825.228	27249
825.368	27214
825.508	27100
825.648	27165
825.787	27055
825.927	27249
826.067	27188
826.206	27104
826.346	27077
826.485	27233
826.625	27051
826.765	27154
826.904	27214
827.044	26880
827.183	27013
827.323	26815
827.462	26796
827.601	26781
827.741	26674
827.88	26906
828.02	26777
828.159	26804
828.298	26925
828.437	26750
828.577	26708
828.716	26838
828.855	26823
828.994	26640
829.134	26469
829.273	26663
829.412	26366
829.551	26480
829.69	26526
829.829	26609
829.968	26473
830.107	26590
830.246	26621
830.385	26526
830.524	26381
830.663	26366
830.802	26161
830.941	26153
831.08	25925
831.219	26062
831.357	26191
831.496	26351
831.635	26115
831.774	25913
831.913	25970
832.051	25826
832.19	25788
832.329	25761
832.467	25708
832.606	25487
832.744	25757
832.883	25734
833.022	25700
833.16	25628
833.299	25738
833.437	25780
833.576	25712
833.714	25799
833.852	25849
833.991	25791
834.129	25871
834.267	25833
834.406	25837
834.544	25791
834.682	25742
834.821	25674
834.959	25913
835.097	25734
835.235	25788
835.373	25601
835.511	25719
835.65	25632
835.788	25514
835.926	25441
836.064	25362
836.202	25445
836.34	25533
836.478	25609
836.615	25483
836.753	25457
836.891	25582
837.029	25537
837.167	25518
837.305	25365
837.443	25537
837.58	25339
837.718	25426
837.856	25377
837.993	25206
838.131	25339
838.269	25335
838.406	25255
838.544	25110
838.681	25023
838.819	24901
838.956	24848
839.094	24749
839.231	24913
839.369	24897
839.506	25110
839.643	25027
839.781	24757
839.918	24753
840.055	24757
840.193	24745
840.33	24654
840.467	24757
840.604	24787
840.742	24981
840.879	24639
841.016	24696
841.153	24597
841.29	24798
841.427	24475
841.564	24654
841.701	24551
841.838	24597
841.975	24551
842.112	24608
842.249	24505
842.385	24243
842.522	24707
842.659	24505
842.796	24437
842.933	24289
843.069	24376
843.206	24433
843.343	24365
843.479	24346
843.616	24346
843.752	24197
843.889	24178
844.025	24152
844.162	24182
844.298	24258
844.435	24053
844.571	23973
844.708	24060
844.844	24361
844.98	24266
845.117	24213
845.253	24003
845.389	24026
845.525	24148
845.661	23885
845.798	23779
845.934	23783
846.07	23939
846.206	23855
846.342	23958
846.478	23843
846.614	23558
846.75	23501
846.886	23665
847.022	23627
847.158	23722
847.294	23562
847.429	23516
847.565	23539
847.701	23809
847.837	23307
847.972	23223
848.108	23452
848.244	23318
848.379	23277
848.515	23227
848.65	23018
848.786	23140
848.921	23044
849.057	23071
849.192	23254
849.328	23113
849.463	23048
849.598	23086
849.734	22938
849.869	22946
850.004	22896
850.14	22976
850.275	22980
850.41	22744
850.545	22752
850.68	22835
850.815	22843
850.95	22839
851.085	23064
851.22	22957
851.355	22797
851.49	22809
851.625	22877
851.76	22938
851.895	22759
852.03	22683
852.165	22843
852.299	22877
852.434	22881
852.569	22896
852.703	22809
852.838	22915
852.973	22995
853.107	22946
853.242	22744
853.376	22630
853.511	22584
853.645	22691
853.78	22793
853.914	22626
854.048	22622
854.183	22675
854.317	22535
854.451	22713
854.585	22577
854.72	22523
854.854	22828
854.988	22531
855.122	22660
855.256	22554
855.39	22565
855.524	22694
855.658	22774
855.792	22618
855.926	22588
856.06	22649
856.194	22683
856.327	22626
856.461	22664
856.595	22519
856.729	22729
856.862	22687
856.996	22698
857.13	22755
857.263	22763
857.397	22675
857.53	22588
857.664	22660
857.797	22713
857.931	22683
858.064	22664
858.197	22656
858.331	22691
858.464	22573
858.597	22508
858.731	22504
858.864	22565
858.997	22596
859.13	22405
859.263	22512
859.396	22835
859.529	22546
859.662	22493
859.795	22519
859.928	22523
860.061	22805
860.194	22816
860.327	22641
860.46	22580
860.592	22618
860.725	22622
860.858	22733
860.99	22622
861.123	22557
861.256	22519
861.388	22626
861.521	23265
861.653	22386
861.786	22451
861.918	22451
862.05	22436
862.183	22634
862.315	22573
862.447	22668
862.58	22474
862.712	22276
862.844	22234
862.976	22268
863.108	22428
863.24	22771
863.372	22188
863.504	22329
863.636	22356
863.768	22314
863.9	22352
864.032	22166
864.164	22215
864.296	22215
864.428	22287
864.559	22272
864.691	22226
864.823	22341
864.954	22291
865.086	22192
865.217	22287
865.349	22051
865.48	22276
865.612	22112
865.743	22337
865.875	22253
866.006	22124
866.137	22120
866.269	22185
866.4	22226
866.531	22067
866.662	22097
866.793	21953
866.924	22040
867.055	22185
867.186	22082
867.317	22120
867.448	21941
867.579	21987
867.71	21972
867.841	22006
867.972	22074
868.103	22021
868.233	22097
868.364	22124
868.495	22242
868.625	22272
868.756	22379
868.886	22234
869.017	22276
869.147	22367
869.278	22451
869.408	22341
869.539	22230
869.669	22379
869.799	22295
869.929	22474
870.06	22394
870.19	22660
870.32	22554
870.45	22717
870.58	22573
870.71	22774
870.84	22854
870.97	22660
871.1	22683
871.23	22904
871.36	22831
871.489	22908
871.619	22847
871.749	22839
871.879	22942
872.008	23041
872.138	22942
872.267	22927
872.397	22755
872.526	22694
872.656	22656
872.785	22774
872.915	22881
873.044	22987
873.173	22885
873.303	22934
873.432	22957
873.561	23033
873.69	22862
873.819	22968
873.948	23067
874.077	22953
874.206	22869
874.335	22904
874.464	23029
874.593	23048
874.722	23113
874.851	23117
874.979	23098
875.108	23269
875.237	23178
875.365	23124
875.494	23185
875.623	23292
875.751	23090
875.88	23151
876.008	23181
876.136	23330
876.265	23554
876.393	23684
876.521	23566
876.65	23551
876.778	23589
876.906	23444
877.034	23349
877.162	23467
877.29	23452
877.418	23528
877.546	23478
877.674	23391
877.802	23414
877.93	23467
878.058	23376
878.185	23414
878.313	23436
878.441	23440
878.568	23345
878.696	23436
878.824	23558
878.951	23661
879.079	23672
879.206	23718
879.333	23668
879.461	23474
879.588	23535
879.715	23661
879.842	23741
879.97	23452
880.097	23288
880.224	23174
880.351	23356
880.478	23299
880.605	23307
880.732	23216
880.859	23452
880.986	23284
881.112	23197
881.239	23147
881.366	23025
881.493	22774
881.619	22877
881.746	22892
881.872	22942
881.999	22793
882.125	22755
882.252	22816
882.378	22904
882.505	22908
882.631	22740
882.757	22519
882.883	22675
883.01	22573
883.136	22508
883.262	22489
883.388	22390
883.514	22489
883.64	22622
883.766	22497
883.892	22185
884.018	22253
884.143	22329
884.269	22554
884.395	22234
884.52	22169
884.646	22265
884.772	22078
884.897	22070
885.023	22177
885.148	22356
885.274	22246
885.399	22348
885.524	22116
885.65	22105
885.775	22101
885.9	22105
886.025	22238
886.15	22310
886.275	22070
886.4	21975
886.525	22044
886.65	21945
886.775	21975
886.9	22192
887.025	22215
887.149	22017
887.274	22010
887.399	21892
887.523	21979
887.648	21812
887.773	21838
887.897	22063
888.021	22010
888.146	21835
888.27	22013
888.395	21987
888.519	22032
888.643	22010
888.767	21892
888.891	21842
889.015	21625
889.139	21888
889.263	21625
889.387	21876
889.511	21838
889.635	21812
889.759	21671
889.883	21709
890.006	21686
890.13	21587
890.254	21591
890.377	21557
890.501	21450
890.624	21374
890.748	21477
890.871	21275
890.995	21195
891.118	21237
891.241	21264
891.364	21272
891.488	21325
891.611	21192
891.734	21188
891.857	21218
891.98	21264
892.103	21207
892.226	21279
892.349	21138
892.471	21074
892.594	21157
892.717	21165
892.839	21199
892.962	21081
893.085	21241
893.207	21077
893.33	20914
893.452	21058
893.575	21199
893.697	21093
893.819	21184
893.941	21374
894.064	21260
894.186	21062
894.308	21017
894.43	21272
894.552	21260
894.674	21116
894.796	21043
894.918	20986
895.04	21005
895.161	21192
895.283	21188
895.405	21032
895.526	21161
895.648	20971
895.769	21131
895.891	21070
896.012	21154
896.134	21066
896.255	21062
896.376	21043
896.498	21173
896.619	21245
896.74	21176
896.861	21146
896.982	21591
897.103	21534
897.224	21431
897.345	21279
897.466	21226
897.587	21264
897.708	21504
897.828	21310
897.949	21214
898.07	21108
898.19	21169
898.311	21382
898.431	21207
898.552	21367
898.672	21264
898.792	21317
898.913	21241
899.033	21127
899.153	21066
899.273	20998
899.393	21036
899.513	21039
899.633	21058
899.753	20944
899.873	20979
899.993	21024
900.113	20941
900.232	20910
900.352	20929
900.472	20838
900.591	20720
900.711	20773
900.83	20663
900.95	20811
901.069	20899
901.189	20655
901.308	20355
901.427	20389
901.546	20400
901.665	20400
901.784	20385
901.904	20214
902.023	20180
902.141	19925
902.26	20027
902.379	19902
902.498	19689
902.617	19860
902.735	19871
902.854	19909
902.973	19658
903.091	19460
903.21	19510
903.328	19457
903.446	19411
903.565	19289
903.683	19350
903.801	19171
903.919	19137
904.038	19122
904.156	18958
904.274	19023
904.392	19129
904.51	18981
904.627	18947
904.745	18973
904.863	19076
904.981	18814
905.098	18684
905.216	18711
905.334	18688
905.451	18764
905.569	18612
905.686	18760
905.803	18669
905.921	18429
906.038	18559
906.155	18475
906.272	18353
906.389	18365
906.506	18258
906.623	18319
906.74	18292
906.857	18129
906.974	18106
907.091	18251
907.208	18300
907.324	18273
907.441	18171
907.557	18022
907.674	18011
907.79	17767
907.907	17863
908.023	18038
908.139	17874
908.256	17817
908.372	17786
908.488	17714
908.604	17676
908.72	17585
908.836	17630
908.952	17573
909.068	17729
909.184	17619
909.3	17592
909.415	17615
909.531	17684
909.647	17227
909.762	17292
909.878	17330
909.993	17288
910.108	17208
910.224	17231
910.339	17185
910.454	17147
910.57	17143
910.685	17022
910.8	17280
910.915	17136
911.03	16999
911.145	16980
911.259	16927
911.374	16915
911.489	16683
911.604	16721
911.718	16558
911.833	16546
911.947	16561
912.062	16428
912.176	16611
912.291	16634
912.405	16683
912.519	16801
912.633	16782
912.748	16618
912.862	16656
912.976	16337
913.09	16253
913.204	16276
913.318	16329
913.431	16386
913.545	16436
913.659	16550
913.772	16352
913.886	16257
914	16112
914.113	16299
914.226	16306
914.34	16204
914.453	16055
914.566	16101
914.68	16036
914.793	16101
914.906	15823
915.019	15774
915.132	15667
915.245	15667
915.358	15759
915.47	15766
915.583	15827
915.696	15641
915.809	15751
915.921	15873
916.034	15580
916.146	15618
916.259	15606
916.371	15778
916.483	15724
916.595	15523
916.708	15568
916.82	15644
916.932	15557
917.044	15485
917.156	15462
917.268	15447
917.38	15439
917.491	15310
917.603	15363
917.715	15477
917.826	15519
917.938	15321
918.049	15203
918.161	15363
918.272	15534
918.384	15405
918.495	15340
918.606	15211
918.717	15077
918.828	15135
918.939	15089
919.05	15024
919.161	15180
919.272	14861
919.383	14944
919.494	15226
919.604	15249
919.715	15081
919.826	14967
919.936	15055
920.047	15058
920.157	15085
920.267	15237
920.378	15089
920.488	15055
920.598	15222
920.708	15306
920.818	15157
920.928	15211
921.038	15412
921.148	15260
921.258	14994
921.368	14960
921.477	14765
921.587	14807
921.697	14545
921.806	14807
921.916	14693
922.025	14389
922.134	14389
922.244	14343
922.353	14381
922.462	14301
922.571	14336
922.68	14119
922.789	14054
922.898	13982
923.007	13959
923.116	14103
923.224	13951
923.333	13978
923.442	13822
923.55	13898
923.659	13879
923.767	13818
923.876	13841
923.984	13856
924.092	13769
924.201	13712
924.309	13761
924.417	13761
924.525	13708
924.633	13700
924.741	14598
924.849	13445
924.956	13616
925.064	13419
925.172	13434
925.279	13339
925.387	13403
925.494	13422
925.602	13533
925.709	13441
925.816	13396
925.924	13331
926.031	13460
926.138	13354
926.245	13381
926.352	13225
926.459	13403
926.566	13358
926.673	13217
926.779	13152
926.886	13103
926.993	12993
927.099	12947
927.206	12840
927.312	12886
927.419	12981
927.525	12966
927.631	12985
927.737	12863
927.843	12875
927.95	12711
928.056	12779
928.162	12760
928.267	12798
928.373	13537
928.479	12909
928.585	12608
928.69	12821
928.796	12791
928.901	12627
929.007	12536
929.112	12639
929.218	12604
929.323	12433
929.428	12441
929.533	12627
929.638	12391
929.743	12456
929.848	12486
929.953	12452
930.058	12281
930.163	12163
930.267	12152
930.372	12300
930.477	12140
930.581	12315
930.685	12247
930.79	12091
930.894	11988
930.998	12049
931.103	12117
931.207	11699
931.311	11733
931.415	11630
931.519	11417
931.623	11417
