Data from test_V78500241_2878.txt Node
Date: Fri Mar 25 16:01:44 CST 2022
User: usil
Spectrometer: V785-0024
Trigger mode: 0
Integration Time (sec): 4.000000E-1
Scans to average: 1
Nonlinearity correction enabled: false
Boxcar width: 0
Storing dark spectrum: false
XAxis mode: Wavelengths
Number of Pixels in Spectrum: 1024
>>>>>Begin Spectral Data<<<<<
801.071	28691
801.214	28421
801.356	28390
801.499	28310
801.641	28135
801.783	28181
801.926	28291
802.068	28196
802.211	28162
802.353	27991
802.496	27953
802.638	27895
802.78	27804
802.923	27930
803.065	27812
803.208	27770
803.35	27888
803.492	28040
803.635	28082
803.777	27816
803.919	28131
804.061	28246
804.204	28200
804.346	27987
804.488	27895
804.63	27998
804.773	27953
804.915	28238
805.057	28204
805.199	28074
805.341	28101
805.483	28257
805.626	28200
805.768	28158
805.91	28246
806.052	28185
806.194	28173
806.336	28440
806.478	28306
806.62	28352
806.762	28356
806.904	28542
807.046	28618
807.188	28516
807.33	28615
807.472	28755
807.614	28584
807.756	28611
807.898	28523
808.04	28485
808.182	28493
808.324	28577
808.465	28767
808.607	28656
808.749	28885
808.891	29018
809.033	29170
809.174	28900
809.316	28991
809.458	29025
809.6	28869
809.741	28949
809.883	29181
810.025	29113
810.166	29159
810.308	29075
810.45	29155
810.591	29041
810.733	29029
810.875	28869
811.016	28938
811.158	28763
811.299	28946
811.441	29178
811.582	29212
811.724	28957
811.865	28980
812.007	28957
812.148	28934
812.29	28919
812.431	29090
812.573	29288
812.714	29429
812.855	29360
812.997	29512
813.138	29695
813.279	29497
813.421	29512
813.562	29410
813.703	29292
813.845	29151
813.986	28934
814.127	28729
814.268	28584
814.41	28687
814.551	28687
814.692	28554
814.833	28565
814.974	28592
815.115	28565
815.256	28352
815.397	28538
815.539	28607
815.68	28382
815.821	28417
815.962	28466
816.103	28451
816.244	28253
816.385	28314
816.526	28166
816.666	27907
816.807	27998
816.948	28059
817.089	27968
817.23	27945
817.371	27808
817.512	27895
817.653	27926
817.793	27827
817.934	27949
818.075	27953
818.216	27945
818.356	27774
818.497	27778
818.638	27603
818.778	27713
818.919	27717
819.06	27679
819.2	27823
819.341	27953
819.481	28013
819.622	28230
819.762	28382
819.903	28162
820.043	28272
820.184	28097
820.324	27991
820.465	28188
820.605	28093
820.746	28021
820.886	27873
821.026	27983
821.167	27949
821.307	27987
821.447	27918
821.588	27827
821.728	27652
821.868	27549
822.008	27492
822.149	27408
822.289	27355
822.429	27195
822.569	27150
822.709	27089
822.849	26929
822.99	26967
823.13	26834
823.27	26872
823.41	26678
823.55	26659
823.69	26644
823.83	26804
823.97	26735
824.11	26667
824.25	26533
824.389	26434
824.529	26674
824.669	26636
824.809	26636
824.949	26686
825.089	26621
825.228	26674
825.368	26514
825.508	26476
825.648	26355
825.787	26552
825.927	26419
826.067	26461
826.206	26385
826.346	26419
826.485	26556
826.625	26396
826.765	26609
826.904	26499
827.044	26210
827.183	26130
827.323	26172
827.462	26168
827.601	26218
827.741	26172
827.88	26130
828.02	26077
828.159	26187
828.298	26180
828.437	26149
828.577	26081
828.716	26248
828.855	26043
828.994	25818
829.134	25921
829.273	25928
829.412	25784
829.551	25833
829.69	25871
829.829	25837
829.968	25959
830.107	25963
830.246	25833
830.385	25639
830.524	25750
830.663	25696
830.802	25563
830.941	25365
831.08	25362
831.219	25605
831.357	25586
831.496	25662
831.635	25468
831.774	25274
831.913	25251
832.051	25221
832.19	25183
832.329	25266
832.467	25080
832.606	25118
832.744	25103
832.883	25148
833.022	25145
833.16	25190
833.299	25145
833.437	25179
833.576	25148
833.714	25069
833.852	25285
833.991	25285
834.129	25266
834.267	25179
834.406	25266
834.544	25221
834.682	25099
834.821	25152
834.959	25335
835.097	25148
835.235	25187
835.373	25206
835.511	25270
835.65	24947
835.788	25084
835.926	24947
836.064	24844
836.202	24779
836.34	25069
836.478	25114
836.615	24920
836.753	25008
836.891	25194
837.029	24924
837.167	24852
837.305	24947
837.443	24878
837.58	24760
837.718	25004
837.856	24772
837.993	24772
838.131	24760
838.269	24681
838.406	24825
838.544	24585
838.681	24342
838.819	24528
838.956	24338
839.094	24342
839.231	24395
839.369	24540
839.506	24616
839.643	24513
839.781	24300
839.918	24353
840.055	24251
840.193	24140
840.33	24171
840.467	24190
840.604	24064
840.742	24422
840.879	24190
841.016	24011
841.153	24106
841.29	24247
841.427	24213
841.564	24129
841.701	24064
841.838	24015
841.975	24038
842.112	24110
842.249	24018
842.385	23897
842.522	24289
842.659	24079
842.796	23897
842.933	23946
843.069	23904
843.206	23942
843.343	23969
843.479	24038
843.616	23859
843.752	23733
843.889	23767
844.025	23874
844.162	23752
844.298	23790
844.435	23733
844.571	23767
844.708	23726
844.844	23836
844.98	23901
845.117	23828
845.253	23524
845.389	23570
845.525	23551
845.661	23562
845.798	23543
845.934	23551
846.07	23471
846.206	23444
846.342	23634
846.478	23360
846.614	23326
846.75	23227
846.886	23193
847.022	23185
847.158	23197
847.294	23178
847.429	23258
847.565	23197
847.701	23322
847.837	22801
847.972	22900
848.108	23132
848.244	22847
848.379	22831
848.515	22790
848.65	22679
848.786	22824
848.921	22816
849.057	22953
849.192	22831
849.328	22847
849.463	22869
849.598	22694
849.734	22618
849.869	22733
850.004	22512
850.14	22577
850.275	22584
850.41	22500
850.545	22424
850.68	22569
850.815	22512
850.95	22478
851.085	22767
851.22	22660
851.355	22630
851.49	22546
851.625	22360
851.76	22466
851.895	22409
852.03	22405
852.165	22497
852.299	22573
852.434	22588
852.569	22573
852.703	22531
852.838	22577
852.973	22607
853.107	22691
853.242	22569
853.376	22382
853.511	22185
853.645	22333
853.78	22398
853.914	22455
854.048	22287
854.183	22295
854.317	22356
854.451	22645
854.585	22417
854.72	22394
854.854	22398
854.988	22379
855.122	22337
855.256	22177
855.39	22306
855.524	22413
855.658	22489
855.792	22432
855.926	22341
856.06	22428
856.194	22489
856.327	22265
856.461	22287
856.595	22280
856.729	22223
856.862	22379
856.996	22314
857.13	22382
857.263	22432
857.397	22504
857.53	22223
857.664	22390
857.797	22470
857.931	22455
858.064	22390
858.197	22470
858.331	22360
858.464	22188
858.597	22234
858.731	22363
858.864	22322
858.997	22287
859.13	22417
859.263	22344
859.396	22356
859.529	22272
859.662	22325
859.795	22348
859.928	22211
860.061	22538
860.194	22599
860.327	22413
860.46	22398
860.592	22489
860.725	22493
860.858	22557
860.99	22478
861.123	22356
861.256	22257
861.388	22337
861.521	22987
861.653	22287
861.786	22128
861.918	22223
862.05	22261
862.183	22348
862.315	22443
862.447	22394
862.58	22337
862.712	22082
862.844	22051
862.976	22067
863.108	22185
863.24	22577
863.372	22082
863.504	22082
863.636	22006
863.768	22154
863.9	22006
864.032	21945
864.164	21915
864.296	22013
864.428	22234
864.559	21983
864.691	22063
864.823	22006
864.954	22040
865.086	22025
865.217	22002
865.349	21797
865.48	21975
865.612	21895
865.743	22048
865.875	21968
866.006	22017
866.137	21934
866.269	22010
866.4	21915
866.531	21804
866.662	21804
866.793	22013
866.924	21884
867.055	21907
867.186	21884
867.317	21880
867.448	21770
867.579	21800
867.71	21816
867.841	21797
867.972	21895
868.103	21804
868.233	21911
868.364	21892
868.495	21827
868.625	22036
868.756	22246
868.886	21949
869.017	22086
869.147	22207
869.278	22162
869.408	22109
869.539	22017
869.669	22131
869.799	22109
869.929	22268
870.06	22158
870.19	22322
870.32	22337
870.45	22417
870.58	22375
870.71	22626
870.84	22561
870.97	22432
871.1	22470
871.23	22630
871.36	22725
871.489	22542
871.619	22672
871.749	22641
871.879	22675
872.008	22721
872.138	22698
872.267	22793
872.397	22668
872.526	22675
872.656	22516
872.785	22516
872.915	22869
873.044	22744
873.173	22664
873.303	22790
873.432	22793
873.561	22961
873.69	22744
873.819	22736
873.948	22820
874.077	22744
874.206	22596
874.335	22675
874.464	22816
874.593	23052
874.722	22835
874.851	22934
874.979	22953
875.108	22957
875.237	22892
875.365	22942
875.494	22904
875.623	23098
875.751	22873
875.88	22904
876.008	23025
876.136	23162
876.265	23417
876.393	23433
876.521	23341
876.65	23402
876.778	23292
876.906	23246
877.034	23303
877.162	23349
877.29	23136
877.418	23414
877.546	23254
877.674	23303
877.802	23303
877.93	23284
878.058	23261
878.185	23174
878.313	23239
878.441	23364
878.568	23174
878.696	23277
878.824	23341
878.951	23383
879.079	23372
879.206	23535
879.333	23448
879.461	23334
879.588	23414
879.715	23337
879.842	23551
879.97	23337
880.097	23242
880.224	23113
880.351	23052
880.478	23113
880.605	23147
880.732	23090
880.859	23463
880.986	23098
881.112	23083
881.239	22972
881.366	22869
881.493	22786
881.619	22615
881.746	22816
881.872	22759
881.999	22710
882.125	22691
882.252	22668
882.378	22706
882.505	22774
882.631	22538
882.757	22443
882.883	22394
883.01	22265
883.136	22390
883.262	22238
883.388	22192
883.514	22341
883.64	22352
883.766	22207
883.892	22032
884.018	22162
884.143	22139
884.269	22409
884.395	22055
884.52	21937
884.646	22029
884.772	21934
884.897	21899
885.023	21979
885.148	22090
885.274	22036
885.399	22051
885.524	22040
885.65	21983
885.775	22055
885.9	21972
886.025	21991
886.15	22086
886.275	22048
886.4	21956
886.525	21949
886.65	21888
886.775	21869
886.9	22051
887.025	22128
887.149	21918
887.274	21694
887.399	21747
887.523	21766
887.648	21778
887.773	21561
887.897	21857
888.021	21793
888.146	21720
888.27	21835
888.395	21907
888.519	21641
888.643	21701
888.767	21808
888.891	21709
889.015	21603
889.139	21542
889.263	21462
889.387	21557
889.511	21720
889.635	21629
889.759	21557
889.883	21473
890.006	21603
890.13	21587
890.254	21557
890.377	21454
890.501	21173
890.624	21294
890.748	21291
890.871	21230
890.995	21100
891.118	20906
891.241	21066
891.364	21104
891.488	21245
891.611	21195
891.734	21051
891.857	21119
891.98	21096
892.103	21138
892.226	21055
892.349	21001
892.471	20823
892.594	20880
892.717	20906
892.839	20979
892.962	21051
893.085	21036
893.207	20937
893.33	20941
893.452	20910
893.575	21074
893.697	20982
893.819	21104
893.941	21116
894.064	21108
894.186	20899
894.308	20849
894.43	21127
894.552	21051
894.674	21058
894.796	20864
894.918	20990
895.04	20891
895.161	21032
895.283	21009
895.405	20880
895.526	20914
895.648	20937
895.769	20952
895.891	20986
896.012	21001
896.134	21013
896.255	20982
896.376	20929
896.498	20937
896.619	20967
896.74	20925
896.861	21043
896.982	21199
897.103	21431
897.224	21211
897.345	21203
897.466	21127
897.587	21096
897.708	21233
897.828	21230
897.949	21146
898.07	20990
898.19	21070
898.311	21199
898.431	21074
898.552	21173
898.672	21192
898.792	21207
898.913	21104
899.033	21093
899.153	20941
899.273	20906
899.393	20853
899.513	20876
899.633	20861
899.753	20902
899.873	20815
899.993	20986
900.113	20857
900.232	20804
900.352	20781
900.472	20720
900.591	20686
900.711	20689
900.83	20667
900.95	20697
901.069	20773
901.189	20670
901.308	20366
901.427	20176
901.546	20282
901.665	20210
901.784	20259
901.904	20092
902.023	20088
902.141	19772
902.26	19742
902.379	19731
902.498	19799
902.617	19632
902.735	19727
902.854	19696
902.973	19552
903.091	19350
903.21	19400
903.328	19460
903.446	19365
903.565	19183
903.683	19266
903.801	19103
903.919	19152
904.038	19129
904.156	18993
904.274	18989
904.392	19034
904.51	18810
904.627	18878
904.745	18939
904.863	18924
904.981	18768
905.098	18639
905.216	18612
905.334	18681
905.451	18650
905.569	18536
905.686	18635
905.803	18631
905.921	18433
906.038	18506
906.155	18357
906.272	18311
906.389	18319
906.506	18083
906.623	18057
906.74	18117
906.857	17958
906.974	17988
907.091	18209
907.208	18228
907.324	18190
907.441	18011
907.557	17992
907.674	17813
907.79	17954
907.907	17851
908.023	17866
908.139	17783
908.256	17866
908.372	17760
908.488	17733
908.604	17604
908.72	17520
908.836	17524
908.952	17459
909.068	17589
909.184	17722
909.3	17672
909.415	17630
909.531	17547
909.647	17246
909.762	17311
909.878	17254
909.993	17250
910.108	17216
910.224	17356
910.339	17136
910.454	17204
910.57	17045
910.685	17014
910.8	17273
910.915	17162
911.03	17094
911.145	16938
911.259	16847
911.374	16820
911.489	16778
911.604	16733
911.718	16599
911.833	16618
911.947	16531
912.062	16371
912.176	16497
912.291	16645
912.405	16478
912.519	16755
912.633	16752
912.748	16656
912.862	16523
912.976	16447
913.09	16322
913.204	16428
913.318	16417
913.431	16432
913.545	16573
913.659	16516
913.772	16363
913.886	16124
914	16128
914.113	16341
914.226	16200
914.34	16299
914.453	16090
914.566	16169
914.68	16048
914.793	16036
914.906	15838
915.019	15713
915.132	15682
915.245	15743
915.358	15819
915.47	15720
915.583	15778
915.696	15705
915.809	15884
915.921	15873
916.034	15641
916.146	15694
916.259	15584
916.371	15793
916.483	15652
916.595	15523
916.708	15656
916.82	15587
916.932	15511
917.044	15500
917.156	15500
917.268	15431
917.38	15359
917.491	15393
917.603	15393
917.715	15439
917.826	15466
917.938	15367
918.049	15230
918.161	15298
918.272	15481
918.384	15507
918.495	15325
918.606	15157
918.717	15005
918.828	15237
918.939	15192
919.05	15081
919.161	15051
919.272	14902
919.383	15100
919.494	15112
919.604	15378
919.715	15157
919.826	15039
919.936	15123
920.047	15169
920.157	15150
920.267	15332
920.378	15116
920.488	15104
920.598	15203
920.708	15386
920.818	15237
920.928	15245
921.038	15313
921.148	15256
921.258	14994
921.368	14963
921.477	14876
921.587	14807
921.697	14708
921.806	14826
921.916	14602
922.025	14552
922.134	14495
922.244	14339
922.353	14552
922.462	14351
922.571	14225
922.68	14134
922.789	14103
922.898	14111
923.007	13959
923.116	14111
923.224	13970
923.333	14062
923.442	13974
923.55	13909
923.659	13925
923.767	14020
923.876	13864
923.984	13970
924.092	13799
924.201	13822
924.309	13788
924.417	13734
924.525	13670
924.633	13689
924.741	14743
924.849	13586
924.956	13586
925.064	13525
925.172	13343
925.279	13514
925.387	13453
925.494	13411
925.602	13499
925.709	13533
925.816	13373
925.924	13525
926.031	13422
926.138	13411
926.245	13377
926.352	13331
926.459	13396
926.566	13445
926.673	13285
926.779	13183
926.886	13232
926.993	13107
927.099	13076
927.206	13038
927.312	12973
927.419	13042
927.525	13019
927.631	12966
927.737	12886
927.843	12825
927.95	12791
928.056	12829
928.162	12859
928.267	12886
928.373	13559
928.479	12863
928.585	12669
928.69	12768
928.796	12757
928.901	12719
929.007	12528
929.112	12703
929.218	12620
929.323	12566
929.428	12570
929.533	12692
929.638	12486
929.743	12452
929.848	12464
929.953	12536
930.058	12372
930.163	12197
930.267	12289
930.372	12407
930.477	12216
930.581	12426
930.685	12281
930.79	12068
930.894	12079
930.998	11958
931.103	12163
931.207	11817
931.311	11695
931.415	11726
931.519	11478
931.623	11436
