Data from test_V78500241_1708.txt Node
Date: Fri Mar 25 15:53:37 CST 2022
User: usil
Spectrometer: V785-0024
Trigger mode: 0
Integration Time (sec): 4.000000E-1
Scans to average: 1
Nonlinearity correction enabled: false
Boxcar width: 0
Storing dark spectrum: false
XAxis mode: Wavelengths
Number of Pixels in Spectrum: 1024
>>>>>Begin Spectral Data<<<<<
801.071	28192
801.214	28093
801.356	27907
801.499	27888
801.641	27937
801.783	27762
801.926	27816
802.068	27732
802.211	27808
802.353	27660
802.496	27507
802.638	27519
802.78	27401
802.923	27329
803.065	27283
803.208	27329
803.35	27363
803.492	27561
803.635	27576
803.777	27507
803.919	27644
804.061	28078
804.204	27610
804.346	27530
804.488	27614
804.63	27633
804.773	27698
804.915	27778
805.057	27800
805.199	27694
805.341	27686
805.483	27854
805.626	27743
805.768	27743
805.91	27884
806.052	27983
806.194	27724
806.336	27880
806.478	27816
806.62	27876
806.762	28021
806.904	27960
807.046	28470
807.188	28299
807.33	28200
807.472	28219
807.614	28135
807.756	28063
807.898	27991
808.04	28006
808.182	28010
808.324	28059
808.465	28219
808.607	28200
808.749	28603
808.891	28592
809.033	28573
809.174	28512
809.316	28447
809.458	28390
809.6	28360
809.741	28603
809.883	28580
810.025	28637
810.166	28691
810.308	28660
810.45	28653
810.591	28637
810.733	28512
810.875	28341
811.016	28432
811.158	28371
811.299	28535
811.441	28630
811.582	28637
811.724	28542
811.865	28527
812.007	28493
812.148	28546
812.29	28466
812.431	28660
812.573	28713
812.714	28801
812.855	28915
812.997	29197
813.138	29269
813.279	29143
813.421	28961
813.562	28847
813.703	28713
813.845	28717
813.986	28390
814.127	28314
814.268	28284
814.41	28128
814.551	28147
814.692	28219
814.833	28017
814.974	28204
815.115	28101
815.256	28017
815.397	28006
815.539	28021
815.68	27899
815.821	27861
815.962	27914
816.103	27857
816.244	27907
816.385	27823
816.526	27751
816.666	27549
816.807	27332
816.948	27557
817.089	27587
817.23	27405
817.371	27496
817.512	27500
817.653	27405
817.793	27332
817.934	27439
818.075	27481
818.216	27424
818.356	27336
818.497	27332
818.638	27252
818.778	27161
818.919	27233
819.06	27214
819.2	27279
819.341	27359
819.481	27344
819.622	27663
819.762	27781
819.903	27713
820.043	27720
820.184	27599
820.324	27507
820.465	27701
820.605	27618
820.746	27519
820.886	27553
821.026	27603
821.167	27466
821.307	27534
821.447	27519
821.588	27310
821.728	27291
821.868	27123
822.008	26979
822.149	26838
822.289	26914
822.429	26590
822.569	26667
822.709	26579
822.849	26400
822.99	26469
823.13	26366
823.27	26278
823.41	26278
823.55	26107
823.69	26358
823.83	26240
823.97	26138
824.11	26149
824.25	26126
824.389	26142
824.529	26206
824.669	26199
824.809	26187
824.949	26210
825.089	26187
825.228	26119
825.368	25913
825.508	25932
825.648	25997
825.787	25887
825.927	26111
826.067	25970
826.206	25909
826.346	26035
826.485	25959
826.625	25875
826.765	26062
826.904	26092
827.044	25670
827.183	25841
827.323	25677
827.462	25689
827.601	25639
827.741	25658
827.88	25784
828.02	25624
828.159	25594
828.298	25708
828.437	25852
828.577	25685
828.716	25875
828.855	25495
828.994	25324
829.134	25308
829.273	25365
829.412	25244
829.551	25209
829.69	25354
829.829	25377
829.968	25384
830.107	25457
830.246	25312
830.385	25331
830.524	25270
830.663	25137
830.802	25061
830.941	25038
831.08	24901
831.219	24973
831.357	24924
831.496	25247
831.635	24924
831.774	24996
831.913	24730
832.051	24825
832.19	24932
832.329	24764
832.467	24646
832.606	24608
832.744	24445
832.883	24521
833.022	24551
833.16	24570
833.299	24696
833.437	24646
833.576	24726
833.714	24814
833.852	24749
833.991	24757
834.129	24730
834.267	24814
834.406	24901
834.544	24726
834.682	24753
834.821	24741
834.959	24814
835.097	24658
835.235	24570
835.373	24627
835.511	24650
835.65	24559
835.788	24578
835.926	24361
836.064	24292
836.202	24380
836.34	24483
836.478	24521
836.615	24441
836.753	24471
836.891	24505
837.029	24525
837.167	24433
837.305	24483
837.443	24471
837.58	24319
837.718	24327
837.856	24285
837.993	24426
838.131	24315
838.269	24159
838.406	24289
838.544	24106
838.681	23992
838.819	24076
838.956	23927
839.094	23878
839.231	23840
839.369	24007
839.506	24106
839.643	24171
839.781	23901
839.918	23657
840.055	23771
840.193	23882
840.33	23707
840.467	23752
840.604	23863
840.742	24007
840.879	23600
841.016	23691
841.153	23676
841.29	23920
841.427	23737
841.564	23752
841.701	23748
841.838	23611
841.975	23554
842.112	23646
842.249	23478
842.385	23512
842.522	23722
842.659	23528
842.796	23448
842.933	23570
843.069	23406
843.206	23364
843.343	23577
843.479	23490
843.616	23501
843.752	23265
843.889	23299
844.025	23429
844.162	23288
844.298	23353
844.435	23124
844.571	23353
844.708	23330
844.844	23341
844.98	23353
845.117	23444
845.253	23124
845.389	23185
845.525	23288
845.661	23090
845.798	22866
845.934	23025
846.07	23014
846.206	23003
846.342	23064
846.478	23022
846.614	22862
846.75	22542
846.886	22710
847.022	22748
847.158	22687
847.294	22721
847.429	22759
847.565	22672
847.701	22892
847.837	22565
847.972	22379
848.108	22557
848.244	22615
848.379	22424
848.515	22219
848.65	22238
848.786	22287
848.921	22352
849.057	22329
849.192	22333
849.328	22295
849.463	22329
849.598	22234
849.734	22230
849.869	22158
850.004	22074
850.14	22078
850.275	22070
850.41	22006
850.545	21998
850.68	22070
850.815	22109
850.95	22143
851.085	22257
851.22	22128
851.355	22109
851.49	22070
851.625	21937
851.76	22010
851.895	21991
852.03	21975
852.165	22086
852.299	22116
852.434	22128
852.569	22044
852.703	22055
852.838	22131
852.973	22200
853.107	22147
853.242	22097
853.376	21998
853.511	21842
853.645	21876
853.78	22078
853.914	21884
854.048	21945
854.183	21865
854.317	21869
854.451	22150
854.585	21979
854.72	21861
854.854	21979
854.988	21755
855.122	21994
855.256	21728
855.39	21892
855.524	21781
855.658	21892
855.792	21983
855.926	21956
856.06	22059
856.194	22040
856.327	21869
856.461	21880
856.595	21892
856.729	21846
856.862	21968
856.996	22078
857.13	21994
857.263	22078
857.397	21945
857.53	21823
857.664	21960
857.797	21911
857.931	21968
858.064	21998
858.197	22002
858.331	21861
858.464	21819
858.597	21701
858.731	22017
858.864	21774
858.997	21816
859.13	21876
859.263	21911
859.396	21945
859.529	21778
859.662	21808
859.795	21850
859.928	21766
860.061	22166
860.194	21953
860.327	21960
860.46	21937
860.592	22006
860.725	22116
860.858	21987
860.99	21930
861.123	21785
861.256	21835
861.388	21842
861.521	22603
861.653	21835
861.786	21789
861.918	21717
862.05	21724
862.183	21717
862.315	21865
862.447	21895
862.58	21808
862.712	21709
862.844	21618
862.976	21774
863.108	21728
863.24	21983
863.372	21504
863.504	21648
863.636	21591
863.768	21564
863.9	21641
864.032	21526
864.164	21572
864.296	21599
864.428	21637
864.559	21568
864.691	21682
864.823	21572
864.954	21675
865.086	21572
865.217	21519
865.349	21412
865.48	21466
865.612	21481
865.743	21766
865.875	21485
866.006	21519
866.137	21496
866.269	21420
866.4	21500
866.531	21511
866.662	21389
866.793	21564
866.924	21443
867.055	21405
867.186	21405
867.317	21420
867.448	21310
867.579	21321
867.71	21306
867.841	21275
867.972	21488
868.103	21405
868.233	21420
868.364	21454
868.495	21572
868.625	21663
868.756	21709
868.886	21648
869.017	21587
869.147	21793
869.278	21663
869.408	21667
869.539	21641
869.669	21686
869.799	21759
869.929	21846
870.06	21789
870.19	22032
870.32	21953
870.45	21899
870.58	22101
870.71	22230
870.84	22219
870.97	22211
871.1	22112
871.23	22276
871.36	22352
871.489	22238
871.619	22238
871.749	22356
871.879	22341
872.008	22371
872.138	22375
872.267	22242
872.397	22226
872.526	22078
872.656	22116
872.785	22070
872.915	22284
873.044	22348
873.173	22344
873.303	22310
873.432	22337
873.561	22318
873.69	22432
873.819	22348
873.948	22333
874.077	22371
874.206	22253
874.335	22352
874.464	22344
874.593	22546
874.722	22443
874.851	22474
874.979	22466
875.108	22664
875.237	22523
875.365	22367
875.494	22447
875.623	22523
875.751	22512
875.88	22455
876.008	22649
876.136	22660
876.265	23003
876.393	23010
876.521	22889
876.65	22999
876.778	22896
876.906	22949
877.034	22752
877.162	22968
877.29	22733
877.418	22793
877.546	22904
877.674	22828
877.802	22869
877.93	22892
878.058	22831
878.185	22759
878.313	22782
878.441	22949
878.568	22740
878.696	22790
878.824	22972
878.951	22976
879.079	23022
879.206	23003
879.333	23071
879.461	22881
879.588	22972
879.715	23086
879.842	23326
879.97	22862
880.097	22538
880.224	22668
880.351	22736
880.478	22763
880.605	22725
880.732	22706
880.859	22862
880.986	22797
881.112	22729
881.239	22485
881.366	22542
881.493	22398
881.619	22238
881.746	22230
881.872	22402
881.999	22219
882.125	22116
882.252	22303
882.378	22162
882.505	22306
882.631	22078
882.757	21964
882.883	22002
883.01	21937
883.136	21987
883.262	21865
883.388	21835
883.514	22021
883.64	21956
883.766	21865
883.892	21732
884.018	21770
884.143	21937
884.269	21892
884.395	21641
884.52	21610
884.646	21747
884.772	21564
884.897	21610
885.023	21511
885.148	21656
885.274	21698
885.399	21698
885.524	21561
885.65	21526
885.775	21679
885.9	21500
886.025	21720
886.15	21675
886.275	21481
886.4	21526
886.525	21534
886.65	21576
886.775	21553
886.9	21660
887.025	21823
887.149	21545
887.274	21511
887.399	21272
887.523	21351
887.648	21275
887.773	21180
887.897	21363
888.021	21450
888.146	21294
888.27	21462
888.395	21397
888.519	21272
888.643	21393
888.767	21416
888.891	21340
889.015	21058
889.139	21264
889.263	21192
889.387	21268
889.511	21458
889.635	21188
889.759	21062
889.883	21138
890.006	21226
890.13	21252
890.254	20998
890.377	21047
890.501	20979
890.624	20701
890.748	20971
890.871	20754
890.995	20674
891.118	20625
891.241	20686
891.364	20735
891.488	20750
891.611	20804
891.734	20667
891.857	20724
891.98	20648
892.103	20834
892.226	20705
892.349	20571
892.471	20507
892.594	20598
892.717	20632
892.839	20511
892.962	20667
893.085	20667
893.207	20568
893.33	20434
893.452	20492
893.575	20602
893.697	20625
893.819	20727
893.941	20773
894.064	20693
894.186	20347
894.308	20492
894.43	20769
894.552	20804
894.674	20659
894.796	20598
894.918	20590
895.04	20526
895.161	20655
895.283	20682
895.405	20579
895.526	20617
895.648	20530
895.769	20552
895.891	20686
896.012	20705
896.134	20625
896.255	20549
896.376	20530
896.498	20495
896.619	20571
896.74	20621
896.861	20716
896.982	20948
897.103	21032
897.224	20834
897.345	20777
897.466	20686
897.587	20823
897.708	20986
897.828	20906
897.949	20910
898.07	20686
898.19	20765
898.311	20880
898.431	20804
898.552	20724
898.672	20880
898.792	20925
898.913	20857
899.033	20629
899.153	20636
899.273	20492
899.393	20590
899.513	20617
899.633	20617
899.753	20526
899.873	20526
899.993	20495
900.113	20560
900.232	20533
900.352	20355
900.472	20454
900.591	20298
900.711	20355
900.83	20328
900.95	20396
901.069	20389
901.189	20210
901.308	20035
901.427	19769
901.546	19890
901.665	19791
901.784	19890
901.904	19753
902.023	19620
902.141	19525
902.26	19483
902.379	19571
902.498	19415
902.617	19468
902.735	19411
902.854	19331
902.973	19369
903.091	19114
903.21	19046
903.328	19095
903.446	18848
903.565	18878
903.683	18878
903.801	18787
903.919	18806
904.038	18829
904.156	18589
904.274	18589
904.392	18536
904.51	18555
904.627	18509
904.745	18772
904.863	18875
904.981	18483
905.098	18201
905.216	18281
905.334	18300
905.451	18262
905.569	18254
905.686	18369
905.803	18330
905.921	18087
906.038	18045
906.155	18110
906.272	18022
906.389	18026
906.506	17889
906.623	17817
906.74	17893
906.857	17638
906.974	17752
907.091	17809
907.208	17969
907.324	17828
907.441	17695
907.557	17623
907.674	17558
907.79	17558
907.907	17543
908.023	17596
908.139	17539
908.256	17524
908.372	17414
908.488	17436
908.604	17349
908.72	17258
908.836	17395
908.952	17143
909.068	17220
909.184	17265
909.3	17246
909.415	17231
909.531	17315
909.647	17071
909.762	16904
909.878	16919
909.993	16980
910.108	16976
910.224	16942
910.339	16965
910.454	16850
910.57	16774
910.685	16721
910.8	16957
910.915	16881
911.03	16679
911.145	16618
911.259	16527
911.374	16542
911.489	16489
911.604	16390
911.718	16268
911.833	16226
911.947	16196
912.062	16177
912.176	16291
912.291	16261
912.405	16238
912.519	16459
912.633	16348
912.748	16325
912.862	16261
912.976	16135
913.09	16055
913.204	16090
913.318	16135
913.431	16230
913.545	16246
913.659	16215
913.772	16067
913.886	15778
914	15907
914.113	15941
914.226	16013
914.34	15953
914.453	15846
914.566	15835
914.68	15895
914.793	15656
914.906	15549
915.019	15450
915.132	15454
915.245	15481
915.358	15545
915.47	15530
915.583	15408
915.696	15545
915.809	15538
915.921	15580
916.034	15530
916.146	15363
916.259	15359
916.371	15458
916.483	15447
916.595	15355
916.708	15367
916.82	15260
916.932	15291
917.044	15264
917.156	15222
917.268	15142
917.38	15116
917.491	15104
917.603	15093
917.715	15207
917.826	15241
917.938	15039
918.049	14960
918.161	15097
918.272	15135
918.384	15123
918.495	15047
918.606	14937
918.717	14788
918.828	14952
918.939	14906
919.05	14830
919.161	14906
919.272	14625
919.383	14785
919.494	14906
919.604	15058
919.715	14796
919.826	14815
919.936	14861
920.047	14918
920.157	14838
920.267	15028
920.378	14788
920.488	14815
920.598	15062
920.708	15062
920.818	14956
920.928	14967
921.038	15074
921.148	15062
921.258	14689
921.368	14720
921.477	14594
921.587	14571
921.697	14389
921.806	14602
921.916	14396
922.025	14298
922.134	14183
922.244	14119
922.353	14332
922.462	14088
922.571	14046
922.68	13811
922.789	13879
922.898	13902
923.007	13734
923.116	13814
923.224	13909
923.333	13708
923.442	13693
923.55	13719
923.659	13666
923.767	13670
923.876	13643
923.984	13601
924.092	13567
924.201	13563
924.309	13586
924.417	13544
924.525	13529
924.633	13559
924.741	14290
924.849	13282
924.956	13441
925.064	13407
925.172	13240
925.279	13206
925.387	13247
925.494	13190
925.602	13419
925.709	13221
925.816	13141
925.924	13168
926.031	13232
926.138	13168
926.245	13149
926.352	13072
926.459	13217
926.566	13259
926.673	13236
926.779	12935
926.886	13004
926.993	12924
927.099	12821
927.206	12817
927.312	12764
927.419	12806
927.525	12837
927.631	12894
927.737	12654
927.843	12574
927.95	12506
928.056	12593
928.162	12597
928.267	12696
928.373	13297
928.479	12749
928.585	12483
928.69	12623
928.796	12627
928.901	12414
929.007	12346
929.112	12437
929.218	12372
929.323	12372
929.428	12281
929.533	12483
929.638	12277
929.743	12254
929.848	12361
929.953	12239
930.058	12136
930.163	12083
930.267	12049
930.372	12171
930.477	11897
930.581	12159
930.685	12079
930.79	11916
930.894	11824
930.998	11889
931.103	11958
931.207	11649
931.311	11562
931.415	11509
931.519	11258
931.623	11280
