Data from test_V78500241_170.txt Node
Date: Fri Mar 25 15:42:58 CST 2022
User: usil
Spectrometer: V785-0024
Trigger mode: 0
Integration Time (sec): 4.000000E-1
Scans to average: 1
Nonlinearity correction enabled: false
Boxcar width: 0
Storing dark spectrum: false
XAxis mode: Wavelengths
Number of Pixels in Spectrum: 1024
>>>>>Begin Spectral Data<<<<<
801.071	29375
801.214	29155
801.356	29048
801.499	28904
801.641	28858
801.783	28873
801.926	28957
802.068	28885
802.211	28790
802.353	28744
802.496	28546
802.638	28497
802.78	28618
802.923	28314
803.065	28424
803.208	28341
803.35	28341
803.492	28649
803.635	28550
803.777	28481
803.919	28493
804.061	29018
804.204	28618
804.346	28523
804.488	28371
804.63	28470
804.773	28287
804.915	28550
805.057	28713
805.199	28489
805.341	28599
805.483	28706
805.626	28554
805.768	28538
805.91	28588
806.052	28596
806.194	28557
806.336	28752
806.478	28611
806.62	28698
806.762	28660
806.904	28809
807.046	29189
807.188	29052
807.33	29075
807.472	29041
807.614	28843
807.756	28953
807.898	28896
808.04	28820
808.182	28771
808.324	28949
808.465	28862
808.607	28847
808.749	29166
808.891	29227
809.033	29261
809.174	29197
809.316	29185
809.458	29204
809.6	29151
809.741	29375
809.883	29223
810.025	29375
810.166	29258
810.308	29204
810.45	29410
810.591	29303
810.733	29098
810.875	29140
811.016	29003
811.158	28987
811.299	29223
811.441	29299
811.582	29349
811.724	29185
811.865	29022
812.007	29067
812.148	29197
812.29	29181
812.431	29303
812.573	29554
812.714	29463
812.855	29608
812.997	29733
813.138	29927
813.279	29729
813.421	29566
813.562	29570
813.703	29284
813.845	29239
813.986	28961
814.127	28854
814.268	28820
814.41	28694
814.551	28717
814.692	28828
814.833	28531
814.974	28668
815.115	28675
815.256	28432
815.397	28569
815.539	28592
815.68	28417
815.821	28554
815.962	28504
816.103	28394
816.244	28291
816.385	28303
816.526	28181
816.666	28105
816.807	27838
816.948	27888
817.089	28082
817.23	27903
817.371	27922
817.512	27960
817.653	27800
817.793	27846
817.934	27774
818.075	27831
818.216	27857
818.356	27869
818.497	27774
818.638	27667
818.778	27538
818.919	27515
819.06	27656
819.2	27736
819.341	27869
819.481	27759
819.622	27907
819.762	28074
819.903	27991
820.043	27991
820.184	27797
820.324	27884
820.465	28002
820.605	28036
820.746	27907
820.886	27759
821.026	27770
821.167	27789
821.307	27979
821.447	27747
821.588	27644
821.728	27511
821.868	27439
822.008	27218
822.149	27351
822.289	27367
822.429	27020
822.569	26902
822.709	26910
822.849	26811
822.99	26724
823.13	26678
823.27	26701
823.41	26446
823.55	26324
823.69	26442
823.83	26594
823.97	26415
824.11	26263
824.25	26088
824.389	26370
824.529	26404
824.669	26324
824.809	26404
824.949	26332
825.089	26389
825.228	26328
825.368	26214
825.508	26138
825.648	26005
825.787	26142
825.927	26180
826.067	26001
826.206	26233
826.346	26012
826.485	26275
826.625	26142
826.765	26210
826.904	26183
827.044	25898
827.183	25788
827.323	25841
827.462	25830
827.601	25807
827.741	25833
827.88	25655
828.02	25696
828.159	25624
828.298	25700
828.437	25822
828.577	25693
828.716	25849
828.855	25559
828.994	25510
829.134	25426
829.273	25518
829.412	25529
829.551	25365
829.69	25438
829.829	25407
829.968	25499
830.107	25438
830.246	25400
830.385	25369
830.524	25327
830.663	25240
830.802	25141
830.941	24989
831.08	24989
831.219	24935
831.357	25114
831.496	25141
831.635	24947
831.774	24886
831.913	24878
832.051	24814
832.19	24757
832.329	24776
832.467	24681
832.606	24464
832.744	24578
832.883	24673
833.022	24540
833.16	24540
833.299	24589
833.437	24658
833.576	24559
833.714	24513
833.852	24669
833.991	24646
834.129	24673
834.267	24642
834.406	24612
834.544	24635
834.682	24589
834.821	24448
834.959	24715
835.097	24467
835.235	24688
835.373	24601
835.511	24532
835.65	24456
835.788	24418
835.926	24281
836.064	24300
836.202	24376
836.34	24479
836.478	24517
836.615	24350
836.753	24437
836.891	24475
837.029	24399
837.167	24350
837.305	24281
837.443	24357
837.58	24152
837.718	24190
837.856	24323
837.993	24342
838.131	24357
838.269	23984
838.406	24209
838.544	24045
838.681	23889
838.819	23653
838.956	23714
839.094	23786
839.231	23737
839.369	23786
839.506	24064
839.643	23794
839.781	23691
839.918	23619
840.055	23748
840.193	23657
840.33	23501
840.467	23566
840.604	23649
840.742	23874
840.879	23459
841.016	23535
841.153	23486
841.29	23627
841.427	23573
841.564	23573
841.701	23585
841.838	23505
841.975	23436
842.112	23474
842.249	23414
842.385	23284
842.522	23330
842.659	23349
842.796	23292
842.933	23204
843.069	23277
843.206	23200
843.343	23391
843.479	23265
843.616	23200
843.752	23098
843.889	23075
844.025	22953
844.162	22961
844.298	23094
844.435	23064
844.571	23014
844.708	23022
844.844	23136
844.98	23193
845.117	23033
845.253	22889
845.389	22805
845.525	22793
845.661	22858
845.798	22683
845.934	22740
846.07	22618
846.206	22873
846.342	22885
846.478	22634
846.614	22398
846.75	22356
846.886	22390
847.022	22516
847.158	22318
847.294	22375
847.429	22436
847.565	22390
847.701	22542
847.837	22090
847.972	22158
848.108	22143
848.244	22242
848.379	22025
848.515	21975
848.65	21983
848.786	21934
848.921	22021
849.057	22051
849.192	22135
849.328	22010
849.463	22013
849.598	21869
849.734	21907
849.869	21819
850.004	21797
850.14	21686
850.275	21755
850.41	21595
850.545	21675
850.68	21633
850.815	21667
850.95	21633
851.085	21857
851.22	21903
851.355	21671
851.49	21629
851.625	21656
851.76	21618
851.895	21564
852.03	21603
852.165	21675
852.299	21663
852.434	21656
852.569	21698
852.703	21599
852.838	21606
852.973	21808
853.107	21770
853.242	21591
853.376	21622
853.511	21325
853.645	21458
853.78	21667
853.914	21469
854.048	21473
854.183	21336
854.317	21500
854.451	21603
854.585	21435
854.72	21530
854.854	21580
854.988	21420
855.122	21564
855.256	21294
855.39	21355
855.524	21408
855.658	21481
855.792	21488
855.926	21344
856.06	21492
856.194	21534
856.327	21466
856.461	21408
856.595	21412
856.729	21408
856.862	21431
856.996	21504
857.13	21504
857.263	21485
857.397	21542
857.53	21370
857.664	21488
857.797	21473
857.931	21572
858.064	21420
858.197	21542
858.331	21291
858.464	21386
858.597	21294
858.731	21348
858.864	21454
858.997	21386
859.13	21370
859.263	21469
859.396	21401
859.529	21340
859.662	21348
859.795	21416
859.928	21458
860.061	21606
860.194	21625
860.327	21378
860.46	21435
860.592	21530
860.725	21485
860.858	21447
860.99	21397
861.123	21325
861.256	21310
861.388	21317
861.521	22036
861.653	21321
861.786	21176
861.918	21279
862.05	21405
862.183	21397
862.315	21435
862.447	21340
862.58	21245
862.712	21233
862.844	21062
862.976	21161
863.108	21268
863.24	21386
863.372	21009
863.504	21138
863.636	21074
863.768	21237
863.9	21070
864.032	21005
864.164	21013
864.296	21062
864.428	21230
864.559	20990
864.691	21336
864.823	21119
864.954	21062
865.086	21085
865.217	21081
865.349	20868
865.48	21017
865.612	20994
865.743	21176
865.875	21062
866.006	20929
866.137	20925
866.269	21032
866.4	21009
866.531	20937
866.662	20739
866.793	20918
866.924	21089
867.055	20941
867.186	20963
867.317	20880
867.448	20823
867.579	20826
867.71	20796
867.841	20830
867.972	20963
868.103	21020
868.233	20960
868.364	20902
868.495	20853
868.625	21119
868.756	21268
868.886	21096
869.017	21150
869.147	21131
869.278	21226
869.408	21142
869.539	21146
869.669	21173
869.799	21142
869.929	21359
870.06	21108
870.19	21568
870.32	21439
870.45	21523
870.58	21428
870.71	21629
870.84	21618
870.97	21416
871.1	21526
871.23	21618
871.36	21724
871.489	21724
871.619	21663
871.749	21709
871.879	21781
872.008	21827
872.138	21770
872.267	21739
872.397	21644
872.526	21549
872.656	21637
872.785	21462
872.915	21816
873.044	21736
873.173	21759
873.303	21781
873.432	21804
873.561	21998
873.69	21800
873.819	21747
873.948	21800
874.077	21778
874.206	21580
874.335	21762
874.464	21755
874.593	22002
874.722	22051
874.851	22002
874.979	22032
875.108	21979
875.237	22002
875.365	21846
875.494	21873
875.623	21922
875.751	21915
875.88	21972
876.008	22086
876.136	22185
876.265	22455
876.393	22550
876.521	22428
876.65	22577
876.778	22424
876.906	22390
877.034	22158
877.162	22333
877.29	22363
877.418	22337
877.546	22356
877.674	22295
877.802	22276
877.93	22303
878.058	22196
878.185	22207
878.313	22329
878.441	22322
878.568	22204
878.696	22299
878.824	22291
878.951	22352
879.079	22432
879.206	22668
879.333	22459
879.461	22295
879.588	22542
879.715	22546
879.842	22713
879.97	22402
880.097	22143
880.224	22280
880.351	22154
880.478	22226
880.605	22143
880.732	22090
880.859	22379
880.986	22166
881.112	22010
881.239	22086
881.366	21956
881.493	21747
881.619	21724
881.746	21789
881.872	21743
881.999	21656
882.125	21762
882.252	21823
882.378	21778
882.505	21819
882.631	21610
882.757	21629
882.883	21530
883.01	21477
883.136	21374
883.262	21439
883.388	21283
883.514	21500
883.64	21557
883.766	21466
883.892	21226
884.018	21264
884.143	21420
884.269	21469
884.395	21249
884.52	21085
884.646	21058
884.772	21039
884.897	20925
885.023	21100
885.148	21180
885.274	21302
885.399	21184
885.524	21112
885.65	21123
885.775	21123
885.9	21081
886.025	21165
886.15	21085
886.275	20906
886.4	20914
886.525	21039
886.65	20944
886.775	21005
886.9	21047
887.025	21211
887.149	21055
887.274	20823
887.399	20819
887.523	20765
887.648	20830
887.773	20762
887.897	20929
888.021	20891
888.146	20811
888.27	20895
888.395	20895
888.519	20857
888.643	20876
888.767	20853
888.891	20800
889.015	20659
889.139	20678
889.263	20689
889.387	20887
889.511	20823
889.635	20811
889.759	20514
889.883	20503
890.006	20617
890.13	20606
890.254	20499
890.377	20583
890.501	20362
890.624	20347
890.748	20370
890.871	20210
890.995	20077
891.118	20126
891.241	20191
891.364	20229
891.488	20259
891.611	20248
891.734	20183
891.857	20282
891.98	20210
892.103	20233
892.226	20092
892.349	20084
892.471	20107
892.594	20126
892.717	20107
892.839	20100
892.962	20161
893.085	20180
893.207	20069
893.33	19997
893.452	20012
893.575	20100
893.697	19978
893.819	20256
893.941	20317
894.064	20294
894.186	20088
894.308	20031
894.43	20031
894.552	20221
894.674	20191
894.796	20008
894.918	19974
895.04	20183
895.161	20149
895.283	20145
895.405	20012
895.526	19986
895.648	20054
895.769	20069
895.891	20024
896.012	20237
896.134	20187
896.255	20065
896.376	20119
896.498	20191
896.619	20149
896.74	20161
896.861	20218
896.982	20454
897.103	20568
897.224	20400
897.345	20252
897.466	20317
897.587	20415
897.708	20454
897.828	20343
897.949	20313
898.07	20138
898.19	20195
898.311	20412
898.431	20221
898.552	20339
898.672	20343
898.792	20324
898.913	20244
899.033	20187
899.153	19936
899.273	19917
899.393	20020
899.513	20069
899.633	20005
899.753	20005
899.873	19982
899.993	20008
900.113	19932
900.232	19993
900.352	19913
900.472	19814
900.591	19868
900.711	19830
900.83	19769
900.95	19970
901.069	19913
901.189	19833
901.308	19438
901.427	19377
901.546	19384
901.665	19514
901.784	19388
901.904	19263
902.023	19175
902.141	18962
902.26	18909
902.379	18977
902.498	18859
902.617	18757
902.735	18825
902.854	18875
902.973	18791
903.091	18547
903.21	18582
903.328	18601
903.446	18559
903.565	18426
903.683	18391
903.801	18205
903.919	18357
904.038	18254
904.156	18182
904.274	18136
904.392	18087
904.51	18098
904.627	18129
904.745	18140
904.863	18220
904.981	17893
905.098	17851
905.216	17760
905.334	17779
905.451	17832
905.569	17726
905.686	17798
905.803	17687
905.921	17570
906.038	17699
906.155	17665
906.272	17448
906.389	17596
906.506	17299
906.623	17372
906.74	17311
906.857	17220
906.974	17204
907.091	17360
907.208	17486
907.324	17379
907.441	17242
907.557	17067
907.674	17098
907.79	16900
907.907	16858
908.023	16942
908.139	16953
908.256	16831
908.372	16930
908.488	16847
908.604	16721
908.72	16721
908.836	16622
908.952	16611
909.068	16786
909.184	16820
909.3	16607
909.415	16713
909.531	16618
909.647	16462
909.762	16375
909.878	16337
909.993	16436
910.108	16337
910.224	16352
910.339	16257
910.454	16204
910.57	16071
910.685	16048
910.8	16379
910.915	16314
911.03	16139
911.145	16101
911.259	15873
911.374	15915
911.489	15857
911.604	15800
911.718	15694
911.833	15663
911.947	15656
912.062	15553
912.176	15739
912.291	15641
912.405	15732
912.519	15876
912.633	15823
912.748	15812
912.862	15625
912.976	15477
913.09	15408
913.204	15401
913.318	15523
913.431	15633
913.545	15477
913.659	15507
913.772	15477
913.886	15370
914	15264
914.113	15473
914.226	15428
914.34	15298
914.453	15230
914.566	15321
914.68	15252
914.793	15188
914.906	14941
915.019	14906
915.132	14861
915.245	15024
915.358	14921
915.47	14883
915.583	14902
915.696	14986
915.809	15066
915.921	15036
916.034	14811
916.146	14804
916.259	14819
916.371	14876
916.483	14895
916.595	14708
916.708	14746
916.82	14750
916.932	14716
917.044	14716
917.156	14621
917.268	14537
917.38	14583
917.491	14503
917.603	14526
917.715	14678
917.826	14610
917.938	14495
918.049	14499
918.161	14564
918.272	14712
918.384	14598
918.495	14533
918.606	14309
918.717	14240
918.828	14309
918.939	14248
919.05	14176
919.161	14351
919.272	14142
919.383	14084
919.494	14313
919.604	14492
919.715	14343
919.826	14206
919.936	14195
920.047	14351
920.157	14290
920.267	14339
920.378	14278
920.488	14259
920.598	14469
920.708	14621
920.818	14419
920.928	14423
921.038	14530
921.148	14476
921.258	14126
921.368	14134
921.477	14024
921.587	13989
921.697	13864
921.806	13989
921.916	13871
922.025	13712
922.134	13658
922.244	13578
922.353	13704
922.462	13510
922.571	13472
922.68	13297
922.789	13236
922.898	13187
923.007	13179
923.116	13266
923.224	13255
923.333	13187
923.442	13168
923.55	13042
923.659	13171
923.767	13183
923.876	13023
923.984	13099
924.092	13042
924.201	13008
924.309	12966
924.417	13042
924.525	12920
924.633	12909
924.741	13727
924.849	12753
924.956	12943
925.064	12745
925.172	12688
925.279	12696
925.387	12768
925.494	12681
925.602	12867
925.709	12779
925.816	12616
925.924	12616
926.031	12760
926.138	12616
926.245	12787
926.352	12528
926.459	12684
926.566	12726
926.673	12612
926.779	12448
926.886	12407
926.993	12296
927.099	12338
927.206	12171
927.312	12167
927.419	12319
927.525	12281
927.631	12228
927.737	12159
927.843	12136
927.95	12060
928.056	12102
928.162	12057
928.267	12167
928.373	12753
928.479	12163
928.585	11920
928.69	12038
928.796	12057
928.901	11912
929.007	11859
929.112	11946
929.218	11923
929.323	11851
929.428	11817
929.533	11893
929.638	11760
929.743	11764
929.848	11794
929.953	11843
930.058	11684
930.163	11425
930.267	11558
930.372	11634
930.477	11406
930.581	11642
930.685	11562
930.79	11349
930.894	11406
930.998	11395
931.103	11433
931.207	11147
931.311	11105
931.415	10927
931.519	10698
931.623	10782
