Data from test_V78500241_1586.txt Node
Date: Fri Mar 25 15:52:47 CST 2022
User: usil
Spectrometer: V785-0024
Trigger mode: 0
Integration Time (sec): 4.000000E-1
Scans to average: 1
Nonlinearity correction enabled: false
Boxcar width: 0
Storing dark spectrum: false
XAxis mode: Wavelengths
Number of Pixels in Spectrum: 1024
>>>>>Begin Spectral Data<<<<<
801.071	28139
801.214	27892
801.356	27789
801.499	27656
801.641	27644
801.783	27679
801.926	27690
802.068	27587
802.211	27553
802.353	27557
802.496	27245
802.638	27359
802.78	27340
802.923	27252
803.065	27313
803.208	27313
803.35	27424
803.492	27507
803.635	27507
803.777	27485
803.919	27477
804.061	27705
804.204	27679
804.346	27408
804.488	27260
804.63	27466
804.773	27450
804.915	27458
805.057	27739
805.199	27336
805.341	27591
805.483	27694
805.626	27663
805.768	27466
805.91	27759
806.052	27610
806.194	27648
806.336	27823
806.478	27770
806.62	27701
806.762	27831
806.904	27941
807.046	28230
807.188	28162
807.33	28059
807.472	28086
807.614	28086
807.756	28017
807.898	27960
808.04	27876
808.182	28044
808.324	27994
808.465	28032
808.607	28234
808.749	28428
808.891	28386
809.033	28447
809.174	28360
809.316	28265
809.458	28329
809.6	28333
809.741	28432
809.883	28535
810.025	28519
810.166	28675
810.308	28508
810.45	28687
810.591	28588
810.733	28401
810.875	28173
811.016	28257
811.158	28265
811.299	28421
811.441	28516
811.582	28519
811.724	28352
811.865	28295
812.007	28322
812.148	28242
812.29	28253
812.431	28519
812.573	28630
812.714	28862
812.855	28835
812.997	28892
813.138	28888
813.279	28953
813.421	28877
813.562	28725
813.703	28580
813.845	28573
813.986	28261
814.127	28090
814.268	28082
814.41	28086
814.551	27983
814.692	27998
814.833	27937
814.974	27991
815.115	27949
815.256	28048
815.397	27953
815.539	27865
815.68	27930
815.821	27743
815.962	27945
816.103	27766
816.244	27701
816.385	27511
816.526	27549
816.666	27378
816.807	27317
816.948	27355
817.089	27351
817.23	27203
817.371	27367
817.512	27230
817.653	27443
817.793	27264
817.934	27344
818.075	27237
818.216	27348
818.356	27268
818.497	27268
818.638	27089
818.778	27066
818.919	27116
819.06	26975
819.2	27317
819.341	27249
819.481	27325
819.622	27458
819.762	27660
819.903	27595
820.043	27496
820.184	27310
820.324	27408
820.465	27405
820.605	27332
820.746	27496
820.886	27252
821.026	27321
821.167	27466
821.307	27287
821.447	27370
821.588	27093
821.728	27104
821.868	26853
822.008	26849
822.149	26804
822.289	26781
822.429	26476
822.569	26305
822.709	26415
822.849	26256
822.99	26358
823.13	26115
823.27	26244
823.41	26122
823.55	25871
823.69	26138
823.83	26210
823.97	26058
824.11	25944
824.25	25947
824.389	25959
824.529	25955
824.669	25856
824.809	26065
824.949	26077
825.089	26050
825.228	25928
825.368	25803
825.508	25849
825.648	25826
825.787	25921
825.927	25875
826.067	25742
826.206	25738
826.346	25936
826.485	25811
826.625	25833
826.765	25902
826.904	25974
827.044	25575
827.183	25556
827.323	25556
827.462	25556
827.601	25594
827.741	25575
827.88	25647
828.02	25373
828.159	25411
828.298	25537
828.437	25594
828.577	25460
828.716	25544
828.855	25434
828.994	25266
829.134	25194
829.273	25198
829.412	25171
829.551	25206
829.69	25129
829.829	25289
829.968	25247
830.107	25362
830.246	25187
830.385	25301
830.524	25141
830.663	25088
830.802	25004
830.941	24833
831.08	24928
831.219	24932
831.357	24962
831.496	24981
831.635	24741
831.774	24635
831.913	24589
832.051	24623
832.19	24570
832.329	24635
832.467	24532
832.606	24502
832.744	24414
832.883	24623
833.022	24464
833.16	24551
833.299	24578
833.437	24547
833.576	24433
833.714	24426
833.852	24490
833.991	24521
834.129	24620
834.267	24601
834.406	24544
834.544	24711
834.682	24498
834.821	24532
834.959	24802
835.097	24544
835.235	24418
835.373	24479
835.511	24597
835.65	24460
835.788	24365
835.926	24209
836.064	24270
836.202	24239
836.34	24464
836.478	24422
836.615	24410
836.753	24384
836.891	24315
837.029	24483
837.167	24235
837.305	24361
837.443	24224
837.58	24251
837.718	24247
837.856	24178
837.993	24091
838.131	24194
838.269	24049
838.406	24232
838.544	24003
838.681	23786
838.819	23847
838.956	23646
839.094	23760
839.231	23615
839.369	23790
839.506	24171
839.643	23939
839.781	23630
839.918	23661
840.055	23722
840.193	23703
840.33	23608
840.467	23653
840.604	23539
840.742	23923
840.879	23391
841.016	23501
841.153	23459
841.29	23866
841.427	23642
841.564	23623
841.701	23566
841.838	23570
841.975	23398
842.112	23539
842.249	23391
842.385	23478
842.522	23467
842.659	23410
842.796	23376
842.933	23387
843.069	23455
843.206	23280
843.343	23376
843.479	23440
843.616	23387
843.752	23193
843.889	23147
844.025	23322
844.162	23128
844.298	23212
844.435	23174
844.571	22911
844.708	23060
844.844	23254
844.98	23269
845.117	23269
845.253	23003
845.389	23029
845.525	22999
845.661	22835
845.798	22771
845.934	22942
846.07	22805
846.206	22812
846.342	22942
846.478	22793
846.614	22615
846.75	22569
846.886	22615
847.022	22618
847.158	22603
847.294	22478
847.429	22561
847.565	22470
847.701	22831
847.837	22462
847.972	22394
848.108	22497
848.244	22306
848.379	22226
848.515	22284
848.65	22124
848.786	22128
848.921	22166
849.057	22242
849.192	22238
849.328	22226
849.463	22238
849.598	22169
849.734	22162
849.869	21945
850.004	22029
850.14	22048
850.275	21835
850.41	21888
850.545	21857
850.68	21899
850.815	21926
850.95	21915
851.085	22051
851.22	22032
851.355	22013
851.49	21968
851.625	21949
851.76	22002
851.895	21846
852.03	21956
852.165	21873
852.299	21964
852.434	22097
852.569	21915
852.703	21884
852.838	22021
852.973	22063
853.107	22036
853.242	21846
853.376	21766
853.511	21732
853.645	21842
853.78	21918
853.914	21762
854.048	21732
854.183	21778
854.317	21842
854.451	22013
854.585	21812
854.72	21667
854.854	21846
854.988	21690
855.122	21778
855.256	21701
855.39	21667
855.524	21835
855.658	21743
855.792	21835
855.926	21892
856.06	21876
856.194	21854
856.327	21747
856.461	21648
856.595	21755
856.729	21739
856.862	21819
856.996	21728
857.13	21800
857.263	21816
857.397	21785
857.53	21755
857.664	21759
857.797	21823
857.931	21888
858.064	21793
858.197	21949
858.331	21717
858.464	21804
858.597	21751
858.731	21800
858.864	21660
858.997	21747
859.13	21789
859.263	21762
859.396	21861
859.529	21861
859.662	21713
859.795	21781
859.928	21686
860.061	21937
860.194	21823
860.327	21880
860.46	21663
860.592	21930
860.725	21949
860.858	21865
860.99	21739
861.123	21595
861.256	21903
861.388	21835
861.521	22390
861.653	21637
861.786	21580
861.918	21549
862.05	21648
862.183	21656
862.315	21762
862.447	21751
862.58	21682
862.712	21428
862.844	21454
862.976	21580
863.108	21435
863.24	22010
863.372	21462
863.504	21424
863.636	21462
863.768	21420
863.9	21386
864.032	21519
864.164	21431
864.296	21595
864.428	21519
864.559	21614
864.691	21580
864.823	21431
864.954	21447
865.086	21462
865.217	21355
865.349	21416
865.48	21332
865.612	21310
865.743	21545
865.875	21374
866.006	21420
866.137	21393
866.269	21363
866.4	21287
866.531	21283
866.662	21378
866.793	21378
866.924	21237
867.055	21302
867.186	21351
867.317	21291
867.448	21203
867.579	21313
867.71	21184
867.841	21226
867.972	21214
868.103	21241
868.233	21313
868.364	21199
868.495	21431
868.625	21492
868.756	21553
868.886	21431
869.017	21485
869.147	21641
869.278	21603
869.408	21675
869.539	21564
869.669	21637
869.799	21591
869.929	21660
870.06	21694
870.19	21873
870.32	21865
870.45	21819
870.58	21812
870.71	22078
870.84	22040
870.97	21907
871.1	21979
871.23	22188
871.36	22147
871.489	22002
871.619	22150
871.749	22188
871.879	22105
872.008	22325
872.138	22185
872.267	22055
872.397	22032
872.526	21972
872.656	22139
872.785	21983
872.915	22082
873.044	22276
873.173	22135
873.303	22188
873.432	22211
873.561	22230
873.69	22215
873.819	22173
873.948	22177
874.077	22093
874.206	22162
874.335	22150
874.464	22303
874.593	22421
874.722	22356
874.851	22531
874.979	22447
875.108	22421
875.237	22379
875.365	22280
875.494	22413
875.623	22459
875.751	22344
875.88	22322
876.008	22519
876.136	22584
876.265	22812
876.393	22866
876.521	22949
876.65	22892
876.778	22736
876.906	22767
877.034	22588
877.162	22675
877.29	22717
877.418	22710
877.546	22683
877.674	22691
877.802	22569
877.93	22691
878.058	22615
878.185	22516
878.313	22630
878.441	22672
878.568	22599
878.696	22721
878.824	22790
878.951	22881
879.079	22866
879.206	22930
879.333	22847
879.461	22744
879.588	22858
879.715	22801
879.842	23006
879.97	22843
880.097	22478
880.224	22599
880.351	22580
880.478	22557
880.605	22588
880.732	22466
880.859	22828
880.986	22489
881.112	22679
881.239	22398
881.366	22295
881.493	22196
881.619	22097
881.746	22097
881.872	22044
881.999	22078
882.125	21968
882.252	22109
882.378	22166
882.505	22261
882.631	22040
882.757	21857
882.883	21895
883.01	21732
883.136	21717
883.262	21759
883.388	21641
883.514	21827
883.64	21781
883.766	21671
883.892	21564
884.018	21660
884.143	21717
884.269	21804
884.395	21408
884.52	21329
884.646	21466
884.772	21374
884.897	21321
885.023	21443
885.148	21542
885.274	21576
885.399	21454
885.524	21302
885.65	21504
885.775	21397
885.9	21329
886.025	21614
886.15	21481
886.275	21428
886.4	21389
886.525	21374
886.65	21344
886.775	21313
886.9	21576
887.025	21720
887.149	21382
887.274	21294
887.399	21157
887.523	21195
887.648	21150
887.773	21055
887.897	21351
888.021	21226
888.146	21093
888.27	21279
888.395	21245
888.519	21184
888.643	21272
888.767	21222
888.891	21085
889.015	20914
889.139	21020
889.263	20937
889.387	21123
889.511	21218
889.635	21074
889.759	20952
889.883	21039
890.006	21009
890.13	21138
890.254	20956
890.377	20960
890.501	20746
890.624	20883
890.748	20762
890.871	20648
890.995	20530
891.118	20587
891.241	20594
891.364	20518
891.488	20735
891.611	20606
891.734	20648
891.857	20693
891.98	20545
892.103	20674
892.226	20568
892.349	20469
892.471	20320
892.594	20511
892.717	20431
892.839	20537
892.962	20564
893.085	20530
893.207	20313
893.33	20423
893.452	20362
893.575	20556
893.697	20431
893.819	20545
893.941	20594
894.064	20621
894.186	20309
894.308	20290
894.43	20575
894.552	20609
894.674	20488
894.796	20336
894.918	20465
895.04	20385
895.161	20499
895.283	20415
895.405	20423
895.526	20381
895.648	20454
895.769	20469
895.891	20442
896.012	20514
896.134	20355
896.255	20408
896.376	20404
896.498	20347
896.619	20526
896.74	20374
896.861	20541
896.982	20754
897.103	20845
897.224	20750
897.345	20682
897.466	20663
897.587	20697
897.708	20762
897.828	20663
897.949	20564
898.07	20461
898.19	20526
898.311	20727
898.431	20625
898.552	20678
898.672	20765
898.792	20857
898.913	20670
899.033	20530
899.153	20492
899.273	20480
899.393	20465
899.513	20343
899.633	20298
899.753	20431
899.873	20358
899.993	20408
900.113	20332
900.232	20351
900.352	20301
900.472	20324
900.591	20206
900.711	20210
900.83	20115
900.95	20263
901.069	20187
901.189	20096
901.308	19887
901.427	19689
901.546	19898
901.665	19776
901.784	19841
901.904	19563
902.023	19552
902.141	19491
902.26	19301
902.379	19426
902.498	19373
902.617	19301
902.735	19403
902.854	19331
902.973	19240
903.091	18837
903.21	19012
903.328	18977
903.446	18859
903.565	18715
903.683	18772
903.801	18696
903.919	18764
904.038	18745
904.156	18486
904.274	18582
904.392	18597
904.51	18494
904.627	18563
904.745	18631
904.863	18452
904.981	18403
905.098	18270
905.216	18262
905.334	18178
905.451	18174
905.569	18186
905.686	18262
905.803	18243
905.921	17927
906.038	18121
906.155	18087
906.272	18079
906.389	17931
906.506	17809
906.623	17741
906.74	17798
906.857	17589
906.974	17627
907.091	17821
907.208	17889
907.324	17779
907.441	17604
907.557	17433
907.674	17516
907.79	17425
907.907	17455
908.023	17528
908.139	17429
908.256	17421
908.372	17383
908.488	17223
908.604	17216
908.72	17086
908.836	17246
908.952	17170
909.068	17280
909.184	17254
909.3	17102
909.415	17193
909.531	17128
909.647	16885
909.762	16991
909.878	16869
909.993	16908
910.108	16801
910.224	16771
910.339	16812
910.454	16759
910.57	16683
910.685	16558
910.8	16919
910.915	16843
911.03	16725
911.145	16478
911.259	16459
911.374	16394
911.489	16382
911.604	16386
911.718	16219
911.833	16211
911.947	16169
912.062	16101
912.176	16162
912.291	16211
912.405	16261
912.519	16276
912.633	16474
912.748	16211
912.862	16173
912.976	16021
913.09	15892
913.204	15884
913.318	16036
913.431	16131
913.545	16067
913.659	16177
913.772	15918
913.886	15835
914	15857
914.113	15937
914.226	15998
914.34	15861
914.453	15671
914.566	15892
914.68	15671
914.793	15576
914.906	15420
915.019	15477
915.132	15310
915.245	15389
915.358	15332
915.47	15466
915.583	15492
915.696	15378
915.809	15469
915.921	15492
916.034	15359
916.146	15351
916.259	15268
916.371	15408
916.483	15374
916.595	15184
916.708	15291
916.82	15245
916.932	15112
917.044	15173
917.156	15127
917.268	14956
917.38	15074
917.491	14971
917.603	15047
917.715	15100
917.826	15127
917.938	15047
918.049	14960
918.161	15036
918.272	15214
918.384	15169
918.495	14952
918.606	14849
918.717	14819
918.828	14785
918.939	14838
919.05	14678
919.161	14708
919.272	14617
919.383	14670
919.494	14880
919.604	15013
919.715	14785
919.826	14613
919.936	14845
920.047	14807
920.157	14724
920.267	15051
920.378	14880
920.488	14644
920.598	14842
920.708	15001
920.818	14830
920.928	14914
921.038	14990
921.148	15001
921.258	14754
921.368	14552
921.477	14434
921.587	14568
921.697	14324
921.806	14446
921.916	14450
922.025	14256
922.134	14138
922.244	14115
922.353	14199
922.462	13993
922.571	13989
922.68	13822
922.789	13769
922.898	13868
923.007	13704
923.116	13757
923.224	13761
923.333	13826
923.442	13658
923.55	13578
923.659	13636
923.767	13689
923.876	13453
923.984	13693
924.092	13510
924.201	13632
924.309	13365
924.417	13559
924.525	13426
924.633	13472
924.741	14370
924.849	13255
924.956	13327
925.064	13228
925.172	13145
925.279	13187
925.387	13187
925.494	13236
925.602	13331
925.709	13320
925.816	13133
925.924	13012
926.031	13266
926.138	13194
926.245	13152
926.352	13042
926.459	13095
926.566	13141
926.673	13004
926.779	13027
926.886	12886
926.993	12745
927.099	12738
927.206	12806
927.312	12658
927.419	12821
927.525	12715
927.631	12768
927.737	12631
927.843	12578
927.95	12582
928.056	12631
928.162	12601
928.267	12635
928.373	13133
928.479	12677
928.585	12315
928.69	12441
928.796	12452
928.901	12422
929.007	12201
929.112	12467
929.218	12296
929.323	12323
929.428	12251
929.533	12414
929.638	12258
929.743	12254
929.848	12277
929.953	12186
930.058	12140
930.163	11904
930.267	11992
930.372	12083
930.477	11935
930.581	12216
930.685	11977
930.79	11866
930.894	11855
930.998	11836
931.103	11935
931.207	11611
931.311	11501
931.415	11429
931.519	11322
931.623	11181
