Data from test_V78500241_2147.txt Node
Date: Fri Mar 25 15:56:40 CST 2022
User: usil
Spectrometer: V785-0024
Trigger mode: 0
Integration Time (sec): 4.000000E-1
Scans to average: 1
Nonlinearity correction enabled: false
Boxcar width: 0
Storing dark spectrum: false
XAxis mode: Wavelengths
Number of Pixels in Spectrum: 1024
>>>>>Begin Spectral Data<<<<<
801.071	28999
801.214	28980
801.356	28721
801.499	28599
801.641	28656
801.783	28523
801.926	28721
802.068	28512
802.211	28432
802.353	28417
802.496	28428
802.638	28257
802.78	28306
802.923	28166
803.065	28128
803.208	28185
803.35	28299
803.492	28413
803.635	28561
803.777	28371
803.919	28489
804.061	28820
804.204	28596
804.346	28550
804.488	28394
804.63	28641
804.773	28451
804.915	28691
805.057	28744
805.199	28489
805.341	28706
805.483	28706
805.626	28679
805.768	28584
805.91	28721
806.052	28713
806.194	28580
806.336	28858
806.478	28710
806.62	28698
806.762	28908
806.904	28938
807.046	29223
807.188	29189
807.33	29181
807.472	29265
807.614	29060
807.756	29136
807.898	29166
808.04	29048
808.182	29003
808.324	29052
808.465	29079
808.607	29227
808.749	29440
808.891	29554
809.033	29714
809.174	29379
809.316	29436
809.458	29414
809.6	29429
809.741	29448
809.883	29482
810.025	29615
810.166	29699
810.308	29783
810.45	29767
810.591	29691
810.733	29539
810.875	29387
811.016	29315
811.158	29334
811.299	29471
811.441	29509
811.582	29608
811.724	29448
811.865	29391
812.007	29379
812.148	29395
812.29	29471
812.431	29516
812.573	29813
812.714	29832
812.855	30011
812.997	30076
813.138	30049
813.279	29965
813.421	30068
813.562	30034
813.703	29843
813.845	29592
813.986	29345
814.127	29181
814.268	29086
814.41	29159
814.551	29033
814.692	29178
814.833	29060
814.974	29086
815.115	29140
815.256	28942
815.397	29117
815.539	29006
815.68	29003
815.821	28805
815.962	28869
816.103	28888
816.244	28877
816.385	28603
816.526	28736
816.666	28615
816.807	28424
816.948	28500
817.089	28561
817.23	28481
817.371	28527
817.512	28478
817.653	28371
817.793	28424
817.934	28462
818.075	28371
818.216	28459
818.356	28512
818.497	28382
818.638	28188
818.778	28154
818.919	28306
819.06	28249
819.2	28341
819.341	28497
819.481	28440
819.622	28664
819.762	28972
819.903	28839
820.043	28660
820.184	28607
820.324	28611
820.465	28748
820.605	28679
820.746	28599
820.886	28485
821.026	28516
821.167	28497
821.307	28630
821.447	28691
821.588	28436
821.728	28295
821.868	28223
822.008	27926
822.149	27934
822.289	27960
822.429	27686
822.569	27591
822.709	27656
822.849	27454
822.99	27485
823.13	27355
823.27	27241
823.41	27214
823.55	27085
823.69	27348
823.83	27416
823.97	27252
824.11	27176
824.25	27020
824.389	26918
824.529	27157
824.669	27161
824.809	27252
824.949	27230
825.089	27203
825.228	27214
825.368	27062
825.508	26887
825.648	26994
825.787	27013
825.927	27009
826.067	26975
826.206	26952
826.346	27032
826.485	27116
826.625	26963
826.765	27036
826.904	27096
827.044	26663
827.183	26689
827.323	26868
827.462	26796
827.601	26811
827.741	26781
827.88	26765
828.02	26419
828.159	26769
828.298	26659
828.437	26644
828.577	26693
828.716	26815
828.855	26682
828.994	26393
829.134	26514
829.273	26389
829.412	26415
829.551	26423
829.69	26442
829.829	26336
829.968	26549
830.107	26518
830.246	26434
830.385	26412
830.524	26187
830.663	26256
830.802	26187
830.941	25913
831.08	25982
831.219	26077
831.357	26046
831.496	26252
831.635	25936
831.774	25925
831.913	25830
832.051	25799
832.19	25852
832.329	25932
832.467	25723
832.606	25750
832.744	25544
832.883	25605
833.022	25674
833.16	25689
833.299	25651
833.437	25742
833.576	25700
833.714	25776
833.852	25784
833.991	25746
834.129	25940
834.267	25864
834.406	25799
834.544	25788
834.682	25719
834.821	25784
834.959	25833
835.097	25727
835.235	25719
835.373	25765
835.511	25788
835.65	25620
835.788	25647
835.926	25457
836.064	25384
836.202	25369
836.34	25556
836.478	25567
836.615	25491
836.753	25491
836.891	25635
837.029	25491
837.167	25510
837.305	25445
837.443	25217
837.58	25263
837.718	25358
837.856	25365
837.993	25384
838.131	25304
838.269	25244
838.406	25259
838.544	25217
838.681	25141
838.819	24909
838.956	24890
839.094	24875
839.231	24924
839.369	25084
839.506	25225
839.643	25168
839.781	24829
839.918	24673
840.055	24726
840.193	24852
840.33	24753
840.467	24779
840.604	24703
840.742	24928
840.879	24479
841.016	24673
841.153	24528
841.29	24852
841.427	24661
841.564	24684
841.701	24772
841.838	24738
841.975	24578
842.112	24521
842.249	24707
842.385	24578
842.522	24604
842.659	24544
842.796	24467
842.933	24422
843.069	24429
843.206	24464
843.343	24479
843.479	24475
843.616	24479
843.752	24273
843.889	24273
844.025	24505
844.162	24209
844.298	24418
844.435	24281
844.571	24281
844.708	24186
844.844	24372
844.98	24361
845.117	24300
845.253	24235
845.389	24136
845.525	24163
845.661	24053
845.798	24022
845.934	24140
846.07	24049
846.206	24018
846.342	24091
846.478	23999
846.614	23733
846.75	23653
846.886	23752
847.022	23722
847.158	23634
847.294	23646
847.429	23802
847.565	23615
847.701	23950
847.837	23444
847.972	23387
848.108	23509
848.244	23592
848.379	23429
848.515	23360
848.65	23235
848.786	23296
848.921	23181
849.057	23459
849.192	23318
849.328	23322
849.463	23277
849.598	23216
849.734	23185
849.869	23147
850.004	22991
850.14	23083
850.275	23117
850.41	22942
850.545	23025
850.68	22961
850.815	23162
850.95	22953
851.085	23250
851.22	23132
851.355	23166
851.49	23124
851.625	22942
851.76	23014
851.895	23022
852.03	22957
852.165	23200
852.299	23029
852.434	23216
852.569	23102
852.703	23025
852.838	23174
852.973	23239
853.107	23204
853.242	23025
853.376	22847
853.511	22710
853.645	22797
853.78	22953
853.914	22904
854.048	22831
854.183	22900
854.317	22968
854.451	23044
854.585	22877
854.72	22984
854.854	22915
854.988	22778
855.122	22866
855.256	22812
855.39	22873
855.524	22919
855.658	22968
855.792	22812
855.926	22923
856.06	22946
856.194	23010
856.327	22805
856.461	22881
856.595	22698
856.729	22873
856.862	22927
856.996	23006
857.13	22938
857.263	22949
857.397	22900
857.53	22850
857.664	22858
857.797	22881
857.931	22968
858.064	23006
858.197	23025
858.331	22892
858.464	22835
858.597	22736
858.731	22946
858.864	22911
858.997	22820
859.13	22942
859.263	22858
859.396	22942
859.529	22934
859.662	22873
859.795	22793
859.928	22927
860.061	23033
860.194	23052
860.327	22923
860.46	22850
860.592	23102
860.725	23075
860.858	22927
860.99	22828
861.123	22885
861.256	22835
861.388	22759
861.521	23554
861.653	22668
861.786	22660
861.918	22752
862.05	22725
862.183	22706
862.315	22812
862.447	22820
862.58	22717
862.712	22664
862.844	22512
862.976	22691
863.108	22649
863.24	23064
863.372	22580
863.504	22565
863.636	22603
863.768	22759
863.9	22546
864.032	22653
864.164	22538
864.296	22660
864.428	22744
864.559	22630
864.691	22649
864.823	22565
864.954	22599
865.086	22561
865.217	22489
865.349	22405
865.48	22428
865.612	22588
865.743	22531
865.875	22470
866.006	22462
866.137	22508
866.269	22508
866.4	22379
866.531	22424
866.662	22356
866.793	22409
866.924	22341
867.055	22470
867.186	22409
867.317	22367
867.448	22249
867.579	22424
867.71	22257
867.841	22219
867.972	22325
868.103	22318
868.233	22443
868.364	22318
868.495	22447
868.625	22462
868.756	22672
868.886	22542
869.017	22645
869.147	22645
869.278	22793
869.408	22637
869.539	22596
869.669	22679
869.799	22763
869.929	22801
870.06	22797
870.19	22976
870.32	22892
870.45	22995
870.58	22957
870.71	23071
870.84	23280
870.97	23033
871.1	23033
871.23	23197
871.36	23246
871.489	23162
871.619	23124
871.749	23166
871.879	23258
872.008	23216
872.138	23235
872.267	23231
872.397	23098
872.526	23048
872.656	23064
872.785	23022
872.915	23197
873.044	23356
873.173	23208
873.303	23326
873.432	23311
873.561	23425
873.69	23132
873.819	23273
873.948	23318
874.077	23189
874.206	23056
874.335	23235
874.464	23383
874.593	23467
874.722	23391
874.851	23429
874.979	23554
875.108	23402
875.237	23433
875.365	23311
875.494	23421
875.623	23459
875.751	23395
875.88	23410
876.008	23554
876.136	23577
876.265	23885
876.393	23999
876.521	23904
876.65	23802
876.778	23840
876.906	23745
877.034	23745
877.162	23710
877.29	23863
877.418	23779
877.546	23828
877.674	23687
877.802	23767
877.93	23775
878.058	23707
878.185	23661
878.313	23851
878.441	23798
878.568	23600
878.696	23748
878.824	23790
878.951	23805
879.079	23889
879.206	23931
879.333	23889
879.461	23809
879.588	23996
879.715	23889
879.842	24144
879.97	23882
880.097	23623
880.224	23608
880.351	23638
880.478	23619
880.605	23543
880.732	23585
880.859	23783
880.986	23699
881.112	23684
881.239	23493
881.366	23398
881.493	23406
881.619	23113
881.746	23170
881.872	23159
881.999	23159
882.125	23025
882.252	23181
882.378	23052
882.505	23299
882.631	22965
882.757	22942
882.883	22930
883.01	22790
883.136	22694
883.262	22733
883.388	22615
883.514	22854
883.64	22828
883.766	22801
883.892	22455
884.018	22596
884.143	22831
884.269	22771
884.395	22470
884.52	22398
884.646	22485
884.772	22432
884.897	22367
885.023	22462
885.148	22622
885.274	22546
885.399	22588
885.524	22432
885.65	22371
885.775	22493
885.9	22398
886.025	22523
886.15	22436
886.275	22478
886.4	22246
886.525	22249
886.65	22428
886.775	22348
886.9	22512
887.025	22637
887.149	22470
887.274	22188
887.399	22207
887.523	22215
887.648	22169
887.773	22139
887.897	22280
888.021	22215
888.146	22093
888.27	22303
888.395	22322
888.519	22128
888.643	22261
888.767	22211
888.891	21994
889.015	21983
889.139	22070
889.263	21998
889.387	21979
889.511	22196
889.635	22143
889.759	21956
889.883	21991
890.006	22059
890.13	22040
890.254	21930
890.377	21918
890.501	21766
890.624	21759
890.748	21812
890.871	21622
890.995	21595
891.118	21420
891.241	21648
891.364	21492
891.488	21523
891.611	21553
891.734	21496
891.857	21614
891.98	21549
892.103	21633
892.226	21454
892.349	21492
892.471	21272
892.594	21389
892.717	21511
892.839	21515
892.962	21412
893.085	21454
893.207	21416
893.33	21321
893.452	21382
893.575	21374
893.697	21492
893.819	21614
893.941	21526
894.064	21671
894.186	21348
894.308	21294
894.43	21412
894.552	21511
894.674	21488
894.796	21249
894.918	21287
895.04	21332
895.161	21420
895.283	21473
895.405	21340
895.526	21332
895.648	21428
895.769	21363
895.891	21443
896.012	21431
896.134	21306
896.255	21401
896.376	21298
896.498	21408
896.619	21439
896.74	21393
896.861	21466
896.982	21606
897.103	21774
897.224	21739
897.345	21637
897.466	21595
897.587	21580
897.708	21709
897.828	21720
897.949	21511
898.07	21507
898.19	21515
898.311	21603
898.431	21439
898.552	21443
898.672	21667
898.792	21572
898.913	21644
899.033	21420
899.153	21378
899.273	21222
899.393	21306
899.513	21450
899.633	21378
899.753	21268
899.873	21279
899.993	21310
900.113	21245
900.232	21222
900.352	21199
900.472	21093
900.591	21077
900.711	21058
900.83	21017
900.95	21176
901.069	21096
901.189	20994
901.308	20750
901.427	20579
901.546	20636
901.665	20670
901.784	20746
901.904	20507
902.023	20461
902.141	20202
902.26	20142
902.379	20206
902.498	20054
902.617	20035
902.735	20176
902.854	20035
902.973	19898
903.091	19765
903.21	19712
903.328	19731
903.446	19689
903.565	19563
903.683	19594
903.801	19502
903.919	19525
904.038	19544
904.156	19312
904.274	19411
904.392	19316
904.51	19240
904.627	19312
904.745	19308
904.863	19350
904.981	19164
905.098	19000
905.216	18928
905.334	18905
905.451	19012
905.569	18932
905.686	19012
905.803	19019
905.921	18749
906.038	18863
906.155	18760
906.272	18646
906.389	18726
906.506	18456
906.623	18525
906.74	18635
906.857	18517
906.974	18540
907.091	18452
907.208	18616
907.324	18433
907.441	18456
907.557	18327
907.674	18292
907.79	18209
907.907	18273
908.023	18235
908.139	18239
908.256	18163
908.372	18076
908.488	18007
908.604	17996
908.72	17946
908.836	17882
908.952	17904
909.068	17996
909.184	18041
909.3	17885
909.415	17946
909.531	17977
909.647	17710
909.762	17585
909.878	17543
909.993	17672
910.108	17661
910.224	17627
910.339	17596
910.454	17581
910.57	17452
910.685	17433
910.8	17703
910.915	17512
911.03	17486
911.145	17227
911.259	17227
911.374	17292
911.489	16999
911.604	17147
911.718	16919
911.833	16976
911.947	16930
912.062	16805
912.176	16908
912.291	16972
912.405	16915
912.519	17143
912.633	17060
912.748	16991
912.862	16911
912.976	16752
913.09	16641
913.204	16683
913.318	16744
913.431	16759
913.545	16809
913.659	16938
913.772	16771
913.886	16489
914	16485
914.113	16573
914.226	16679
914.34	16649
914.453	16314
914.566	16596
914.68	16390
914.793	16314
914.906	16230
915.019	16071
915.132	16071
915.245	16059
915.358	16185
915.47	16139
915.583	16139
915.696	16082
915.809	16223
915.921	16200
916.034	15998
916.146	15987
916.259	15956
916.371	16173
916.483	15873
916.595	15922
916.708	15884
916.82	15812
916.932	15865
917.044	15857
917.156	15846
917.268	15797
917.38	15831
917.491	15599
917.603	15800
917.715	15747
917.826	15709
917.938	15694
918.049	15641
918.161	15667
918.272	15819
918.384	15660
918.495	15694
918.606	15450
918.717	15443
918.828	15523
918.939	15477
919.05	15283
919.161	15447
919.272	15195
919.383	15317
919.494	15469
919.604	15644
919.715	15351
919.826	15397
919.936	15359
920.047	15374
920.157	15279
920.267	15622
920.378	15386
920.488	15386
920.598	15568
920.708	15743
920.818	15504
920.928	15595
921.038	15701
921.148	15614
921.258	15386
921.368	15233
921.477	15131
921.587	15127
921.697	15017
921.806	15108
921.916	15001
922.025	14845
922.134	14830
922.244	14720
922.353	14861
922.462	14686
922.571	14541
922.68	14412
922.789	14317
922.898	14396
923.007	14339
923.116	14408
923.224	14396
923.333	14419
923.442	14320
923.55	14267
923.659	14233
923.767	14339
923.876	14187
923.984	14286
924.092	14134
924.201	14164
924.309	14123
924.417	14221
924.525	14001
924.633	14096
924.741	14823
924.849	13871
924.956	13970
925.064	13814
925.172	13818
925.279	13791
925.387	13765
925.494	13826
925.602	13894
925.709	13803
925.816	13693
925.924	13795
926.031	13757
926.138	13772
926.245	13780
926.352	13590
926.459	13769
926.566	13845
926.673	13628
926.779	13525
926.886	13422
926.993	13384
927.099	13282
927.206	13255
927.312	13190
927.419	13362
927.525	13217
927.631	13285
927.737	13285
927.843	13145
927.95	12981
928.056	13110
928.162	13198
928.267	13118
928.373	13841
928.479	13251
928.585	12962
928.69	13031
928.796	13095
928.901	13110
929.007	12821
929.112	12981
929.218	12954
929.323	12973
929.428	12871
929.533	12981
929.638	12757
929.743	12757
929.848	12783
929.953	12757
930.058	12684
930.163	12464
930.267	12464
930.372	12692
930.477	12395
930.581	12692
930.685	12540
930.79	12391
930.894	12448
930.998	12376
931.103	12410
931.207	12178
931.311	12041
931.415	11984
931.519	11767
931.623	11798
