Data from test_V78500241_2183.txt Node
Date: Fri Mar 25 15:56:55 CST 2022
User: usil
Spectrometer: V785-0024
Trigger mode: 0
Integration Time (sec): 4.000000E-1
Scans to average: 1
Nonlinearity correction enabled: false
Boxcar width: 0
Storing dark spectrum: false
XAxis mode: Wavelengths
Number of Pixels in Spectrum: 1024
>>>>>Begin Spectral Data<<<<<
801.071	28923
801.214	28759
801.356	28710
801.499	28683
801.641	28546
801.783	28641
801.926	28668
802.068	28512
802.211	28588
802.353	28459
802.496	28314
802.638	28246
802.78	28158
802.923	28276
803.065	28150
803.208	28230
803.35	28215
803.492	28295
803.635	28512
803.777	28394
803.919	28664
804.061	28888
804.204	28599
804.346	28413
804.488	28436
804.63	28436
804.773	28428
804.915	28478
805.057	28679
805.199	28637
805.341	28653
805.483	28653
805.626	28675
805.768	28668
805.91	28626
806.052	28923
806.194	28679
806.336	28908
806.478	28656
806.62	28660
806.762	28923
806.904	29075
807.046	29079
807.188	29121
807.33	29094
807.472	29113
807.614	29071
807.756	29044
807.898	29041
808.04	28809
808.182	28984
808.324	29181
808.465	29121
808.607	29166
808.749	29379
808.891	29528
809.033	29474
809.174	29417
809.316	29330
809.458	29288
809.6	29341
809.741	29467
809.883	29501
810.025	29634
810.166	29726
810.308	29672
810.45	29592
810.591	29573
810.733	29490
810.875	29368
811.016	29299
811.158	29337
811.299	29379
811.441	29551
811.582	29604
811.724	29395
811.865	29406
812.007	29311
812.148	29436
812.29	29311
812.431	29608
812.573	29756
812.714	29904
812.855	29828
812.997	30038
813.138	30121
813.279	29977
813.421	29840
813.562	29832
813.703	29756
813.845	29589
813.986	29395
814.127	29204
814.268	29098
814.41	29075
814.551	29041
814.692	29197
814.833	28877
814.974	29060
815.115	29048
815.256	28965
815.397	29041
815.539	28976
815.68	28911
815.821	28877
815.962	29006
816.103	28995
816.244	28862
816.385	28656
816.526	28767
816.666	28436
816.807	28527
816.948	28527
817.089	28550
817.23	28542
817.371	28478
817.512	28405
817.653	28318
817.793	28440
817.934	28360
818.075	28257
818.216	28440
818.356	28398
818.497	28261
818.638	28284
818.778	28120
818.919	28242
819.06	28276
819.2	28356
819.341	28459
819.481	28375
819.622	28649
819.762	28630
819.903	28622
820.043	28717
820.184	28565
820.324	28584
820.465	28618
820.605	28550
820.746	28535
820.886	28367
821.026	28527
821.167	28516
821.307	28577
821.447	28390
821.588	28379
821.728	28211
821.868	28036
822.008	28013
822.149	28032
822.289	27934
822.429	27705
822.569	27477
822.709	27606
822.849	27447
822.99	27511
823.13	27481
823.27	27370
823.41	27226
823.55	27252
823.69	27245
823.83	27294
823.97	27112
824.11	27036
824.25	26914
824.389	26929
824.529	27108
824.669	27089
824.809	27108
824.949	27119
825.089	27169
825.228	27188
825.368	27039
825.508	27032
825.648	26979
825.787	26948
825.927	26994
826.067	26990
826.206	27077
826.346	27077
826.485	26944
826.625	26891
826.765	27058
826.904	26975
827.044	26788
827.183	26777
827.323	26636
827.462	26762
827.601	26785
827.741	26712
827.88	26796
828.02	26457
828.159	26621
828.298	26708
828.437	26686
828.577	26674
828.716	26579
828.855	26522
828.994	26461
829.134	26263
829.273	26495
829.412	26381
829.551	26313
829.69	26252
829.829	26469
829.968	26511
830.107	26309
830.246	26305
830.385	26214
830.524	26267
830.663	26263
830.802	26039
830.941	25932
831.08	26077
831.219	26001
831.357	26168
831.496	26324
831.635	25898
831.774	25830
831.913	25902
832.051	25746
832.19	25795
832.329	25791
832.467	25647
832.606	25689
832.744	25670
832.883	25514
833.022	25521
833.16	25567
833.299	25639
833.437	25556
833.576	25700
833.714	25590
833.852	25761
833.991	25738
834.129	25765
834.267	25750
834.406	25693
834.544	25757
834.682	25742
834.821	25632
834.959	25780
835.097	25460
835.235	25807
835.373	25594
835.511	25696
835.65	25601
835.788	25521
835.926	25422
836.064	25400
836.202	25384
836.34	25476
836.478	25491
836.615	25464
836.753	25521
836.891	25548
837.029	25544
837.167	25468
837.305	25449
837.443	25331
837.58	25324
837.718	25441
837.856	25343
837.993	25175
838.131	25430
838.269	25297
838.406	25129
838.544	25103
838.681	25027
838.819	24871
838.956	24791
839.094	24806
839.231	24924
839.369	25019
839.506	25202
839.643	25091
839.781	24833
839.918	24734
840.055	24856
840.193	24776
840.33	24681
840.467	24631
840.604	24654
840.742	24913
840.879	24479
841.016	24574
841.153	24566
841.29	24700
841.427	24772
841.564	24738
841.701	24814
841.838	24829
841.975	24658
842.112	24650
842.249	24525
842.385	24445
842.522	24715
842.659	24490
842.796	24407
842.933	24391
843.069	24357
843.206	24467
843.343	24528
843.479	24433
843.616	24464
843.752	24300
843.889	24239
844.025	24281
844.162	24209
844.298	24403
844.435	24300
844.571	24186
844.708	24334
844.844	24388
844.98	24399
845.117	24289
845.253	24148
845.389	24159
845.525	24148
845.661	24011
845.798	24026
845.934	24026
846.07	24018
846.206	23939
846.342	24140
846.478	23954
846.614	23691
846.75	23661
846.886	23676
847.022	23729
847.158	23737
847.294	23604
847.429	23695
847.565	23668
847.701	23927
847.837	23467
847.972	23311
848.108	23463
848.244	23452
848.379	23368
848.515	23296
848.65	23261
848.786	23318
848.921	23197
849.057	23269
849.192	23387
849.328	23200
849.463	23269
849.598	23341
849.734	23235
849.869	23060
850.004	23117
850.14	23132
850.275	23121
850.41	22938
850.545	23006
850.68	22866
850.815	23041
850.95	23037
851.085	23231
851.22	23132
851.355	23037
851.49	23041
851.625	22915
851.76	23079
851.895	22991
852.03	22980
852.165	23003
852.299	23174
852.434	23136
852.569	22976
852.703	23018
852.838	23033
852.973	23174
853.107	23155
853.242	22976
853.376	22896
853.511	22698
853.645	22797
853.78	22934
853.914	22786
854.048	22896
854.183	22759
854.317	22873
854.451	23113
854.585	22946
854.72	22797
854.854	22991
854.988	22672
855.122	22843
855.256	22725
855.39	22873
855.524	22828
855.658	22968
855.792	22927
855.926	22850
856.06	22866
856.194	22972
856.327	22771
856.461	22816
856.595	22869
856.729	22915
856.862	22953
856.996	22919
857.13	22908
857.263	23006
857.397	23041
857.53	22744
857.664	22949
857.797	22946
857.931	22869
858.064	22763
858.197	22961
858.331	22797
858.464	22812
858.597	22740
858.731	22774
858.864	22831
858.997	22824
859.13	22801
859.263	22949
859.396	23033
859.529	22710
859.662	22843
859.795	22759
859.928	22862
860.061	22995
860.194	23006
860.327	22923
860.46	22790
860.592	22930
860.725	22957
860.858	22976
860.99	22889
861.123	22778
861.256	22774
861.388	22831
861.521	23592
861.653	22615
861.786	22603
861.918	22683
862.05	22729
862.183	22793
862.315	22744
862.447	22752
862.58	22702
862.712	22577
862.844	22561
862.976	22573
863.108	22596
863.24	23056
863.372	22519
863.504	22523
863.636	22580
863.768	22561
863.9	22729
864.032	22432
864.164	22588
864.296	22428
864.428	22664
864.559	22493
864.691	22630
864.823	22611
864.954	22519
865.086	22557
865.217	22356
865.349	22287
865.48	22360
865.612	22493
865.743	22630
865.875	22402
866.006	22306
866.137	22409
866.269	22432
866.4	22443
866.531	22322
866.662	22409
866.793	22451
866.924	22432
867.055	22497
867.186	22363
867.317	22318
867.448	22249
867.579	22154
867.71	22333
867.841	22200
867.972	22382
868.103	22265
868.233	22246
868.364	22375
868.495	22371
868.625	22531
868.756	22645
868.886	22565
869.017	22637
869.147	22660
869.278	22733
869.408	22641
869.539	22649
869.669	22668
869.799	22542
869.929	22835
870.06	22672
870.19	22881
870.32	22869
870.45	22949
870.58	22968
870.71	23105
870.84	23037
870.97	22980
871.1	22984
871.23	23159
871.36	23258
871.489	23086
871.619	23086
871.749	23132
871.879	23334
872.008	23364
872.138	23086
872.267	23250
872.397	23098
872.526	23060
872.656	22934
872.785	23060
872.915	23185
873.044	23284
873.173	23212
873.303	23307
873.432	23235
873.561	23398
873.69	23250
873.819	23315
873.948	23307
874.077	23204
874.206	23124
874.335	23239
874.464	23406
874.593	23463
874.722	23292
874.851	23383
874.979	23410
875.108	23376
875.237	23353
875.365	23223
875.494	23463
875.623	23531
875.751	23406
875.88	23318
876.008	23524
876.136	23410
876.265	23836
876.393	23847
876.521	23889
876.65	23935
876.778	23828
876.906	23805
877.034	23592
877.162	23684
877.29	23714
877.418	23783
877.546	23832
877.674	23733
877.802	23600
877.93	23767
878.058	23668
878.185	23661
878.313	23630
878.441	23695
878.568	23543
878.696	23707
878.824	23676
878.951	23745
879.079	23786
879.206	23961
879.333	23817
879.461	23687
879.588	23870
879.715	23923
879.842	24091
879.97	23836
880.097	23558
880.224	23566
880.351	23630
880.478	23623
880.605	23520
880.732	23516
880.859	23741
880.986	23600
881.112	23611
881.239	23429
881.366	23341
881.493	23216
881.619	23128
881.746	23117
881.872	23071
881.999	23166
882.125	23128
882.252	23083
882.378	23166
882.505	23193
882.631	22961
882.757	22885
882.883	22900
883.01	22828
883.136	22831
883.262	22710
883.388	22603
883.514	22771
883.64	22736
883.766	22656
883.892	22531
884.018	22519
884.143	22759
884.269	22740
884.395	22519
884.52	22421
884.646	22573
884.772	22447
884.897	22310
885.023	22402
885.148	22470
885.274	22565
885.399	22451
885.524	22352
885.65	22497
885.775	22405
885.9	22219
886.025	22379
886.15	22531
886.275	22219
886.4	22303
886.525	22451
886.65	22265
886.775	22352
886.9	22577
887.025	22546
887.149	22318
887.274	22105
887.399	22192
887.523	22257
887.648	22207
887.773	22032
887.897	22291
888.021	22200
888.146	22192
888.27	22181
888.395	22204
888.519	22249
888.643	22196
888.767	22143
888.891	22036
889.015	22048
889.139	22017
889.263	21968
889.387	22074
889.511	22097
889.635	22055
889.759	21827
889.883	21991
890.006	21972
890.13	22017
890.254	21918
890.377	21903
890.501	21618
890.624	21557
890.748	21709
890.871	21504
890.995	21583
891.118	21447
891.241	21534
891.364	21553
891.488	21675
891.611	21504
891.734	21370
891.857	21622
891.98	21557
892.103	21450
892.226	21549
892.349	21397
892.471	21214
892.594	21416
892.717	21511
892.839	21393
892.962	21336
893.085	21477
893.207	21367
893.33	21230
893.452	21420
893.575	21428
893.697	21389
893.819	21496
893.941	21599
894.064	21416
894.186	21412
894.308	21420
894.43	21386
894.552	21462
894.674	21382
894.796	21370
894.918	21283
895.04	21397
895.161	21485
895.283	21469
895.405	21207
895.526	21340
895.648	21241
895.769	21340
895.891	21515
896.012	21568
896.134	21447
896.255	21393
896.376	21214
896.498	21397
896.619	21401
896.74	21466
896.861	21397
896.982	21610
897.103	21656
897.224	21694
897.345	21523
897.466	21625
897.587	21591
897.708	21701
897.828	21466
897.949	21538
898.07	21386
898.19	21572
898.311	21705
898.431	21386
898.552	21568
898.672	21523
898.792	21633
898.913	21462
899.033	21431
899.153	21340
899.273	21165
899.393	21211
899.513	21256
899.633	21268
899.753	21085
899.873	21283
899.993	21279
900.113	21302
900.232	21222
900.352	21188
900.472	21089
900.591	21062
900.711	21157
900.83	21020
900.95	21241
901.069	21142
901.189	20910
901.308	20632
901.427	20594
901.546	20651
901.665	20495
901.784	20640
901.904	20495
902.023	20324
902.141	20176
902.26	20103
902.379	20107
902.498	20062
902.617	20088
902.735	20176
902.854	20107
902.973	20043
903.091	19807
903.21	19849
903.328	19700
903.446	19635
903.565	19643
903.683	19578
903.801	19320
903.919	19499
904.038	19525
904.156	19251
904.274	19369
904.392	19263
904.51	19354
904.627	19259
904.745	19285
904.863	19434
904.981	19118
905.098	19042
905.216	19065
905.334	19023
905.451	19008
905.569	19034
905.686	19023
905.803	18981
905.921	18681
906.038	18844
906.155	18810
906.272	18601
906.389	18791
906.506	18506
906.623	18555
906.74	18509
906.857	18376
906.974	18536
907.091	18597
907.208	18566
907.324	18559
907.441	18315
907.557	18346
907.674	18266
907.79	18220
907.907	18083
908.023	18251
908.139	18083
908.256	18102
908.372	18098
908.488	18079
908.604	18038
908.72	17916
908.836	17942
908.952	17840
909.068	17916
909.184	18053
909.3	17885
909.415	17996
909.531	17923
909.647	17642
909.762	17589
909.878	17611
909.993	17615
910.108	17512
910.224	17604
910.339	17611
910.454	17516
910.57	17429
910.685	17414
910.8	17535
910.915	17638
911.03	17341
911.145	17197
911.259	17212
911.374	17170
911.489	17151
911.604	17060
911.718	16896
911.833	16991
911.947	16831
912.062	16694
912.176	16942
912.291	17048
912.405	16919
912.519	17113
912.633	17121
912.748	17052
912.862	16854
912.976	16744
913.09	16679
913.204	16626
913.318	16668
913.431	16725
913.545	16824
913.659	16805
913.772	16656
913.886	16512
914	16485
914.113	16641
914.226	16630
914.34	16508
914.453	16440
914.566	16531
914.68	16371
914.793	16322
914.906	16143
915.019	16086
915.132	16090
915.245	16048
915.358	16177
915.47	16090
915.583	16059
915.696	16082
915.809	16135
915.921	16150
916.034	15964
916.146	15930
916.259	16067
916.371	16029
916.483	15960
916.595	15888
916.708	15808
916.82	15884
916.932	15827
917.044	15831
917.156	15838
917.268	15755
917.38	15694
917.491	15584
917.603	15728
917.715	15812
917.826	15789
917.938	15595
918.049	15595
918.161	15701
918.272	15785
918.384	15892
918.495	15663
918.606	15568
918.717	15340
918.828	15408
918.939	15439
919.05	15363
919.161	15382
919.272	15256
919.383	15317
919.494	15549
919.604	15652
919.715	15431
919.826	15306
919.936	15336
920.047	15564
920.157	15367
920.267	15553
920.378	15420
920.488	15317
920.598	15568
920.708	15618
920.818	15469
920.928	15469
921.038	15660
921.148	15614
921.258	15336
921.368	15211
921.477	15028
921.587	15116
921.697	15009
921.806	15119
921.916	14845
922.025	14781
922.134	14765
922.244	14689
922.353	14762
922.462	14701
922.571	14560
922.68	14442
922.789	14400
922.898	14404
923.007	14442
923.116	14355
923.224	14267
923.333	14336
923.442	14225
923.55	14199
923.659	14278
923.767	14214
923.876	14138
923.984	14161
924.092	14096
924.201	14046
924.309	14043
924.417	14077
924.525	13967
924.633	14001
924.741	14807
924.849	13822
924.956	14054
925.064	13772
925.172	13685
925.279	13761
925.387	13738
925.494	13677
925.602	13780
925.709	13731
925.816	13540
925.924	13674
926.031	13734
926.138	13620
926.245	13757
926.352	13590
926.459	13757
926.566	13757
926.673	13480
926.779	13441
926.886	13480
926.993	13415
927.099	13293
927.206	13247
927.312	13251
927.419	13285
927.525	13183
927.631	13274
927.737	13209
927.843	13194
927.95	13004
928.056	13114
928.162	13209
928.267	13103
928.373	13712
928.479	13065
928.585	12905
928.69	13114
928.796	13091
928.901	12981
929.007	12886
929.112	12985
929.218	12890
929.323	12833
929.428	12833
929.533	12916
929.638	12719
929.743	12692
929.848	12867
929.953	12711
930.058	12658
930.163	12422
930.267	12460
930.372	12604
930.477	12517
930.581	12627
930.685	12483
930.79	12338
930.894	12346
930.998	12300
931.103	12380
931.207	12136
931.311	11988
931.415	11931
931.519	11623
931.623	11684
