Data from test_V78500241_19.txt Node
Date: Fri Mar 25 15:41:56 CST 2022
User: usil
Spectrometer: V785-0024
Trigger mode: 0
Integration Time (sec): 4.000000E-1
Scans to average: 1
Nonlinearity correction enabled: false
Boxcar width: 0
Storing dark spectrum: false
XAxis mode: Wavelengths
Number of Pixels in Spectrum: 1024
>>>>>Begin Spectral Data<<<<<
801.071	27074
801.214	27192
801.356	26705
801.499	26762
801.641	26438
801.783	26431
801.926	26377
802.068	26362
802.211	26453
802.353	26275
802.496	26081
802.638	26172
802.78	26069
802.923	25966
803.065	25913
803.208	25849
803.35	25963
803.492	26100
803.635	26221
803.777	26073
803.919	26084
804.061	26355
804.204	26012
804.346	25902
804.488	25803
804.63	25925
804.773	25879
804.915	25928
805.057	26107
805.199	25917
805.341	26050
805.483	26035
805.626	26142
805.768	25959
805.91	26096
806.052	26142
806.194	25890
806.336	26229
806.478	26016
806.62	26111
806.762	26005
806.904	26180
807.046	26381
807.188	26221
807.33	26362
807.472	26453
807.614	26145
807.756	26358
807.898	26145
808.04	25902
808.182	26016
808.324	26050
808.465	26248
808.607	26309
808.749	26495
808.891	26347
809.033	26556
809.174	26381
809.316	26374
809.458	26450
809.6	26282
809.741	26431
809.883	26419
810.025	26625
810.166	26636
810.308	26651
810.45	26648
810.591	26442
810.733	26259
810.875	26343
811.016	26233
811.158	26202
811.299	26301
811.441	26450
811.582	26450
811.724	26336
811.865	26187
812.007	26286
812.148	26267
812.29	26278
812.431	26412
812.573	26442
812.714	26613
812.855	26712
812.997	26895
813.138	26906
813.279	26925
813.421	26739
813.562	26804
813.703	26560
813.845	26400
813.986	26240
814.127	26012
814.268	25856
814.41	25856
814.551	25849
814.692	25925
814.833	25772
814.974	25784
815.115	25860
815.256	25753
815.397	25689
815.539	25597
815.68	25476
815.821	25540
815.962	25396
816.103	25483
816.244	25350
816.385	25232
816.526	25206
816.666	25099
816.807	24856
816.948	24897
817.089	25012
817.23	25027
817.371	24943
817.512	24920
817.653	24901
817.793	24840
817.934	24764
818.075	24863
818.216	24985
818.356	24650
818.497	24726
818.638	24494
818.778	24441
818.919	24467
819.06	24502
819.2	24635
819.341	24597
819.481	24688
819.622	24958
819.762	25065
819.903	24863
820.043	24916
820.184	24779
820.324	24783
820.465	24882
820.605	24700
820.746	24787
820.886	24650
821.026	24802
821.167	24635
821.307	24779
821.447	24791
821.588	24741
821.728	24395
821.868	24205
822.008	24308
822.149	24083
822.289	24106
822.429	23980
822.569	23783
822.709	23748
822.849	23619
822.99	23687
823.13	23608
823.27	23486
823.41	23444
823.55	23330
823.69	23345
823.83	23395
823.97	23258
824.11	23067
824.25	23071
824.389	23037
824.529	23159
824.669	22957
824.809	23193
824.949	23269
825.089	23143
825.228	23159
825.368	22961
825.508	22934
825.648	22987
825.787	22949
825.927	22957
826.067	22877
826.206	22831
826.346	22923
826.485	22968
826.625	22744
826.765	23083
826.904	22957
827.044	22637
827.183	22596
827.323	22542
827.462	22679
827.601	22607
827.741	22527
827.88	22500
828.02	22432
828.159	22535
828.298	22466
828.437	22653
828.577	22527
828.716	22744
828.855	22462
828.994	22200
829.134	22284
829.273	22333
829.412	22261
829.551	22158
829.69	22128
829.829	22261
829.968	22265
830.107	22280
830.246	22143
830.385	22181
830.524	22101
830.663	21964
830.802	21918
830.941	21732
831.08	21606
831.219	21835
831.357	21797
831.496	21941
831.635	21686
831.774	21671
831.913	21663
832.051	21534
832.19	21557
832.329	21603
832.467	21374
832.606	21287
832.744	21329
832.883	21447
833.022	21363
833.16	21321
833.299	21420
833.437	21348
833.576	21416
833.714	21367
833.852	21507
833.991	21397
834.129	21545
834.267	21454
834.406	21454
834.544	21332
834.682	21344
834.821	21218
834.959	21485
835.097	21260
835.235	21310
835.373	21367
835.511	21367
835.65	21272
835.788	21176
835.926	21131
836.064	21036
836.202	21017
836.34	21275
836.478	21355
836.615	21165
836.753	21211
836.891	21294
837.029	21207
837.167	21218
837.305	21173
837.443	21112
837.58	21096
837.718	21211
837.856	21096
837.993	20948
838.131	21020
838.269	20944
838.406	21005
838.544	20914
838.681	20765
838.819	20594
838.956	20526
839.094	20511
839.231	20651
839.369	20651
839.506	20743
839.643	20792
839.781	20461
839.918	20438
840.055	20457
840.193	20301
840.33	20305
840.467	20412
840.604	20320
840.742	20640
840.879	20298
841.016	20446
841.153	20286
841.29	20499
841.427	20469
841.564	20396
841.701	20400
841.838	20290
841.975	20290
842.112	20324
842.249	20229
842.385	20081
842.522	20225
842.659	20138
842.796	20073
842.933	20195
843.069	20012
843.206	20088
843.343	20218
843.479	20240
843.616	20248
843.752	19890
843.889	19860
844.025	19921
844.162	19887
844.298	19936
844.435	19909
844.571	19788
844.708	19887
844.844	20024
844.98	19944
845.117	19970
845.253	19715
845.389	19693
845.525	19719
845.661	19715
845.798	19521
845.934	19765
846.07	19495
846.206	19616
846.342	19784
846.478	19499
846.614	19392
846.75	19297
846.886	19293
847.022	19400
847.158	19304
847.294	19335
847.429	19247
847.565	19255
847.701	19422
847.837	19023
847.972	18985
848.108	19141
848.244	18985
848.379	18844
848.515	18776
848.65	18817
848.786	18833
848.921	18768
849.057	18859
849.192	18924
849.328	18844
849.463	18882
849.598	18745
849.734	18745
849.869	18669
850.004	18642
850.14	18616
850.275	18578
850.41	18544
850.545	18464
850.68	18513
850.815	18597
850.95	18483
851.085	18840
851.22	18563
851.355	18566
851.49	18570
851.625	18372
851.76	18555
851.895	18467
852.03	18460
852.165	18646
852.299	18513
852.434	18677
852.569	18578
852.703	18555
852.838	18544
852.973	18593
853.107	18738
853.242	18380
853.376	18338
853.511	18304
853.645	18365
853.78	18528
853.914	18471
854.048	18346
854.183	18422
854.317	18388
854.451	18570
854.585	18270
854.72	18426
854.854	18437
854.988	18327
855.122	18323
855.256	18121
855.39	18262
855.524	18483
855.658	18372
855.792	18418
855.926	18365
856.06	18452
856.194	18460
856.327	18270
856.461	18384
856.595	18342
856.729	18357
856.862	18467
856.996	18361
857.13	18334
857.263	18448
857.397	18528
857.53	18441
857.664	18327
857.797	18399
857.931	18498
858.064	18342
858.197	18422
858.331	18308
858.464	18273
858.597	18129
858.731	18300
858.864	18334
858.997	18251
859.13	18258
859.263	18220
859.396	18422
859.529	18365
859.662	18194
859.795	18258
859.928	18380
860.061	18334
860.194	18490
860.327	18228
860.46	18270
860.592	18429
860.725	18315
860.858	18338
860.99	18243
861.123	18114
861.256	18140
861.388	18270
861.521	18715
861.653	18163
861.786	18102
861.918	18125
862.05	18174
862.183	18353
862.315	18319
862.447	18471
862.58	18254
862.712	18079
862.844	17920
862.976	18087
863.108	18194
863.24	18441
863.372	17931
863.504	18015
863.636	17927
863.768	18019
863.9	17992
864.032	17939
864.164	17908
864.296	17950
864.428	17980
864.559	18087
864.691	18041
864.823	18019
864.954	18003
865.086	18007
865.217	17836
865.349	17904
865.48	17916
865.612	17916
865.743	18110
865.875	17973
866.006	17874
866.137	17939
866.269	17927
866.4	17920
866.531	17897
866.662	17745
866.793	17760
866.924	17893
867.055	17920
867.186	17946
867.317	17840
867.448	17733
867.579	17878
867.71	17832
867.841	17863
867.972	17942
868.103	17866
868.233	17958
868.364	17790
868.495	18022
868.625	18049
868.756	18045
868.886	17984
869.017	18034
869.147	18152
869.278	18285
869.408	18125
869.539	18159
869.669	18133
869.799	18239
869.929	18243
870.06	18209
870.19	18346
870.32	18384
870.45	18509
870.58	18589
870.71	18597
870.84	18597
870.97	18486
871.1	18547
871.23	18700
871.36	18669
871.489	18604
871.619	18681
871.749	18757
871.879	18730
872.008	18935
872.138	18726
872.267	18715
872.397	18635
872.526	18536
872.656	18426
872.785	18490
872.915	18650
873.044	18814
873.173	18681
873.303	18905
873.432	18757
873.561	18749
873.69	18688
873.819	18734
873.948	18856
874.077	18700
874.206	18798
874.335	18985
874.464	18954
874.593	19038
874.722	19080
874.851	19031
874.979	18993
875.108	19050
875.237	18981
875.365	18973
875.494	19031
875.623	19129
875.751	18973
875.88	19031
876.008	19118
876.136	19278
876.265	19457
876.393	19491
876.521	19460
876.65	19533
876.778	19453
876.906	19335
877.034	19400
877.162	19266
877.29	19339
877.418	19403
877.546	19403
877.674	19487
877.802	19415
877.93	19472
878.058	19263
878.185	19297
878.313	19426
878.441	19388
878.568	19301
878.696	19358
878.824	19400
878.951	19552
879.079	19544
879.206	19734
879.333	19563
879.461	19472
879.588	19434
879.715	19537
879.842	19601
879.97	19537
880.097	19316
880.224	19206
880.351	19381
880.478	19384
880.605	19247
880.732	19206
880.859	19472
880.986	19297
881.112	19339
881.239	19168
881.366	19027
881.493	18909
881.619	18901
881.746	18981
881.872	18875
881.999	18909
882.125	18916
882.252	18867
882.378	18897
882.505	19061
882.631	18783
882.757	18692
882.883	18783
883.01	18578
883.136	18574
883.262	18528
883.388	18494
883.514	18620
883.64	18661
883.766	18673
883.892	18544
884.018	18521
884.143	18555
884.269	18806
884.395	18475
884.52	18330
884.646	18292
884.772	18235
884.897	18133
885.023	18296
885.148	18471
885.274	18506
885.399	18311
885.524	18235
885.65	18292
885.775	18361
885.9	18251
886.025	18452
886.15	18350
886.275	18273
886.4	18194
886.525	18292
886.65	18224
886.775	18178
886.9	18311
887.025	18513
887.149	18285
887.274	18117
887.399	17992
887.523	17946
887.648	18019
887.773	18011
887.897	18129
888.021	18140
888.146	17980
888.27	18186
888.395	18224
888.519	18091
888.643	18064
888.767	18110
888.891	17977
889.015	17870
889.139	17942
889.263	17889
889.387	18068
889.511	18038
889.635	18019
889.759	17821
889.883	17817
890.006	17783
890.13	17958
890.254	17805
890.377	17866
890.501	17668
890.624	17627
890.748	17661
890.871	17619
890.995	17570
891.118	17463
891.241	17478
891.364	17497
891.488	17615
891.611	17528
891.734	17516
891.857	17581
891.98	17577
892.103	17619
892.226	17615
892.349	17463
892.471	17387
892.594	17368
892.717	17486
892.839	17532
892.962	17539
893.085	17554
893.207	17486
893.33	17368
893.452	17421
893.575	17402
893.697	17459
893.819	17630
893.941	17684
894.064	17512
894.186	17360
894.308	17532
894.43	17497
894.552	17680
894.674	17611
894.796	17444
894.918	17440
895.04	17539
895.161	17497
895.283	17364
895.405	17406
895.526	17334
895.648	17566
895.769	17512
895.891	17585
896.012	17566
896.134	17634
896.255	17615
896.376	17562
896.498	17577
896.619	17646
896.74	17627
896.861	17695
896.982	17901
897.103	18022
897.224	17958
897.345	17912
897.466	17813
897.587	17855
897.708	17939
897.828	17904
897.949	17760
898.07	17832
898.19	17623
898.311	17916
898.431	17843
898.552	17786
898.672	17996
898.792	17973
898.913	17748
899.033	17703
899.153	17589
899.273	17486
899.393	17539
899.513	17585
899.633	17524
899.753	17634
899.873	17596
899.993	17726
900.113	17543
900.232	17505
900.352	17528
900.472	17379
900.591	17322
900.711	17455
900.83	17345
900.95	17493
901.069	17528
901.189	17379
901.308	17212
901.427	16946
901.546	17029
901.665	17117
901.784	17143
901.904	16828
902.023	16790
902.141	16561
902.26	16565
902.379	16592
902.498	16558
902.617	16531
902.735	16504
902.854	16462
902.973	16455
903.091	16211
903.21	16287
903.328	16306
903.446	16147
903.565	16029
903.683	16063
903.801	16078
903.919	16078
904.038	16025
904.156	15892
904.274	15850
904.392	15846
904.51	15800
904.627	15846
904.745	15918
904.863	15903
904.981	15713
905.098	15557
905.216	15469
905.334	15545
905.451	15538
905.569	15420
905.686	15545
905.803	15519
905.921	15264
906.038	15408
906.155	15294
906.272	15146
906.389	15237
906.506	15074
906.623	15074
906.74	14982
906.857	14891
906.974	15001
907.091	15024
907.208	15207
907.324	15051
907.441	14929
907.557	14731
907.674	14708
907.79	14621
907.907	14697
908.023	14701
908.139	14636
908.256	14716
908.372	14617
908.488	14473
908.604	14530
908.72	14454
908.836	14549
908.952	14488
909.068	14541
909.184	14556
909.3	14431
909.415	14450
909.531	14381
909.647	14153
909.762	14119
909.878	14084
909.993	14199
910.108	14176
910.224	14103
910.339	14050
910.454	14043
910.57	14050
910.685	13898
910.8	14248
910.915	14161
911.03	13974
911.145	13776
911.259	13784
911.374	13765
911.489	13693
911.604	13704
911.718	13510
911.833	13597
911.947	13483
912.062	13358
912.176	13521
912.291	13636
912.405	13651
912.519	13776
912.633	13753
912.748	13624
912.862	13506
912.976	13419
913.09	13312
913.204	13308
913.318	13487
913.431	13518
913.545	13460
913.659	13499
913.772	13388
913.886	13331
914	13194
914.113	13304
914.226	13362
914.34	13388
914.453	13149
914.566	13244
914.68	13198
914.793	13251
914.906	12977
915.019	12966
915.132	12806
915.245	12859
915.358	12909
915.47	12966
915.583	12935
915.696	13080
915.809	13042
915.921	13046
916.034	12894
916.146	12871
916.259	12913
916.371	12920
916.483	12875
916.595	12806
916.708	12878
916.82	12806
916.932	12787
917.044	12795
917.156	12772
917.268	12623
917.38	12639
917.491	12662
917.603	12665
917.715	12673
917.826	12726
917.938	12547
918.049	12532
918.161	12719
918.272	12821
918.384	12745
918.495	12604
918.606	12559
918.717	12467
918.828	12540
918.939	12486
919.05	12403
919.161	12410
919.272	12289
919.383	12315
919.494	12506
919.604	12696
919.715	12490
919.826	12357
919.936	12467
920.047	12490
920.157	12464
920.267	12528
920.378	12365
920.488	12357
920.598	12601
920.708	12757
920.818	12494
920.928	12547
921.038	12772
921.148	12688
921.258	12471
921.368	12327
921.477	12152
921.587	12163
921.697	12095
921.806	12239
921.916	12178
922.025	11950
922.134	11885
922.244	11813
922.353	11878
922.462	11805
922.571	11688
922.68	11695
922.789	11532
922.898	11600
923.007	11505
923.116	11570
923.224	11433
923.333	11528
923.442	11391
923.55	11334
923.659	11364
923.767	11425
923.876	11315
923.984	11387
924.092	11277
924.201	11391
924.309	11315
924.417	11322
924.525	11239
924.633	11201
924.741	12209
924.849	11083
924.956	11136
925.064	11094
925.172	10968
925.279	11064
925.387	11140
925.494	11140
925.602	11227
925.709	11124
925.816	10987
925.924	11048
926.031	11083
926.138	11060
926.245	11098
926.352	10984
926.459	11143
926.566	11178
926.673	10892
926.779	10896
926.886	10885
926.993	10752
927.099	10675
927.206	10721
927.312	10668
927.419	10778
927.525	10702
927.631	10812
927.737	10565
927.843	10527
927.95	10504
928.056	10527
928.162	10535
928.267	10580
928.373	11235
928.479	10679
928.585	10447
928.69	10554
928.796	10599
928.901	10493
929.007	10325
929.112	10447
929.218	10402
929.323	10363
929.428	10295
929.533	10375
929.638	10227
929.743	10253
929.848	10299
929.953	10207
930.058	10162
930.163	10036
930.267	10109
930.372	10150
930.477	10010
930.581	10272
930.685	10078
930.79	9899
930.894	9991
930.998	9937
931.103	10032
931.207	9641
931.311	9618
931.415	9545
931.519	9275
931.623	9363
