Data from test_V78500241_3687.txt Node
Date: Fri Mar 25 16:07:20 CST 2022
User: usil
Spectrometer: V785-0024
Trigger mode: 0
Integration Time (sec): 4.000000E-1
Scans to average: 1
Nonlinearity correction enabled: false
Boxcar width: 0
Storing dark spectrum: false
XAxis mode: Wavelengths
Number of Pixels in Spectrum: 1024
>>>>>Begin Spectral Data<<<<<
801.071	28474
801.214	28363
801.356	28200
801.499	28120
801.641	27975
801.783	27949
801.926	28143
802.068	28097
802.211	28010
802.353	28097
802.496	27732
802.638	27766
802.78	27701
802.923	27671
803.065	27660
803.208	27679
803.35	27895
803.492	27873
803.635	27903
803.777	27899
803.919	28002
804.061	28325
804.204	27899
804.346	27934
804.488	27892
804.63	28002
804.773	27918
804.915	28044
805.057	28010
805.199	28006
805.341	27987
805.483	28192
805.626	28086
805.768	28017
805.91	28112
806.052	28234
806.194	28078
806.336	28314
806.478	28230
806.62	28078
806.762	28226
806.904	28394
807.046	28687
807.188	28588
807.33	28637
807.472	28535
807.614	28519
807.756	28447
807.898	28478
808.04	28382
808.182	28371
808.324	28516
808.465	28481
808.607	28672
808.749	28919
808.891	28847
809.033	28801
809.174	28995
809.316	28736
809.458	28759
809.6	28771
809.741	28862
809.883	28942
810.025	29041
810.166	29170
810.308	29220
810.45	29006
810.591	29025
810.733	28965
810.875	28835
811.016	28843
811.158	28885
811.299	28877
811.441	29178
811.582	28946
811.724	28835
811.865	28828
812.007	28801
812.148	28797
812.29	28881
812.431	29067
812.573	29288
812.714	29193
812.855	29345
812.997	29379
813.138	29619
813.279	29410
813.421	29303
813.562	29406
813.703	29178
813.845	29159
813.986	28744
814.127	28721
814.268	28500
814.41	28596
814.551	28561
814.692	28493
814.833	28443
814.974	28538
815.115	28679
815.256	28230
815.397	28325
815.539	28413
815.68	28295
815.821	28341
815.962	28333
816.103	28314
816.244	28257
816.385	28261
816.526	28070
816.666	27968
816.807	27907
816.948	27949
817.089	28017
817.23	27816
817.371	27914
817.512	27781
817.653	27907
817.793	27667
817.934	27842
818.075	27926
818.216	27846
818.356	27816
818.497	27568
818.638	27595
818.778	27625
818.919	27633
819.06	27739
819.2	27846
819.341	27991
819.481	27914
819.622	28040
819.762	28234
819.903	28166
820.043	27941
820.184	28048
820.324	27979
820.465	28112
820.605	27998
820.746	27979
820.886	27819
821.026	28010
821.167	27907
821.307	27873
821.447	27846
821.588	27869
821.728	27648
821.868	27534
822.008	27416
822.149	27389
822.289	27374
822.429	27116
822.569	26952
822.709	26952
822.849	26815
822.99	26811
823.13	27024
823.27	26731
823.41	26769
823.55	26617
823.69	26697
823.83	26686
823.97	26503
824.11	26351
824.25	26469
824.389	26568
824.529	26511
824.669	26412
824.809	26556
824.949	26556
825.089	26678
825.228	26568
825.368	26423
825.508	26393
825.648	26423
825.787	26332
825.927	26461
826.067	26362
826.206	26465
826.346	26526
826.485	26400
826.625	26415
826.765	26469
826.904	26427
827.044	26206
827.183	26183
827.323	25986
827.462	26180
827.601	26252
827.741	26100
827.88	26195
828.02	25875
828.159	25993
828.298	26164
828.437	26130
828.577	26077
828.716	26229
828.855	25974
828.994	25784
829.134	25780
829.273	25936
829.412	25742
829.551	25685
829.69	25723
829.829	25750
829.968	25898
830.107	25841
830.246	25693
830.385	25647
830.524	25727
830.663	25681
830.802	25499
830.941	25472
831.08	25301
831.219	25438
831.357	25472
831.496	25658
831.635	25331
831.774	25373
831.913	25168
832.051	25171
832.19	25213
832.329	25324
832.467	25171
832.606	25065
832.744	25023
832.883	24973
833.022	25012
833.16	25012
833.299	25107
833.437	25103
833.576	25084
833.714	25114
833.852	25137
833.991	25293
834.129	25236
834.267	25217
834.406	25145
834.544	25088
834.682	25225
834.821	24985
834.959	25259
835.097	25099
835.235	25137
835.373	25008
835.511	25122
835.65	25008
835.788	24958
835.926	24886
836.064	24715
836.202	24817
836.34	25038
836.478	25088
836.615	24939
836.753	25004
836.891	24977
837.029	25023
837.167	24966
837.305	24817
837.443	24954
837.58	24639
837.718	24810
837.856	24764
837.993	24776
838.131	24684
838.269	24627
838.406	24722
838.544	24612
838.681	24315
838.819	24486
838.956	24243
839.094	24190
839.231	24277
839.369	24479
839.506	24563
839.643	24327
839.781	24319
839.918	24213
840.055	24178
840.193	24182
840.33	24095
840.467	24235
840.604	24163
840.742	24441
840.879	24034
841.016	24136
841.153	24022
841.29	24266
841.427	24136
841.564	24152
841.701	24038
841.838	24083
841.975	24106
842.112	24114
842.249	24034
842.385	23935
842.522	24152
842.659	24045
842.796	23843
842.933	23965
843.069	23859
843.206	23851
843.343	24057
843.479	23923
843.616	23885
843.752	23790
843.889	23786
844.025	23851
844.162	23684
844.298	23699
844.435	23691
844.571	23600
844.708	23821
844.844	23843
844.98	23859
845.117	23783
845.253	23661
845.389	23486
845.525	23512
845.661	23520
845.798	23402
845.934	23425
846.07	23383
846.206	23535
846.342	23676
846.478	23406
846.614	23166
846.75	23235
846.886	23162
847.022	23132
847.158	23162
847.294	23048
847.429	23197
847.565	23094
847.701	23433
847.837	22965
847.972	22828
848.108	22991
848.244	22938
848.379	22812
848.515	22630
848.65	22656
848.786	22744
848.921	22710
849.057	22839
849.192	22752
849.328	22759
849.463	22713
849.598	22603
849.734	22618
849.869	22546
850.004	22592
850.14	22516
850.275	22451
850.41	22451
850.545	22516
850.68	22493
850.815	22447
850.95	22436
851.085	22672
851.22	22641
851.355	22497
851.49	22371
851.625	22485
851.76	22440
851.895	22493
852.03	22405
852.165	22497
852.299	22508
852.434	22573
852.569	22599
852.703	22584
852.838	22535
852.973	22691
853.107	22535
853.242	22367
853.376	22322
853.511	22268
853.645	22230
853.78	22287
853.914	22268
854.048	22394
854.183	22303
854.317	22230
854.451	22500
854.585	22379
854.72	22261
854.854	22470
854.988	22223
855.122	22360
855.256	22093
855.39	22360
855.524	22375
855.658	22375
855.792	22333
855.926	22352
856.06	22421
856.194	22443
856.327	22238
856.461	22280
856.595	22287
856.729	22234
856.862	22363
856.996	22352
857.13	22455
857.263	22470
857.397	22421
857.53	22268
857.664	22261
857.797	22451
857.931	22436
858.064	22348
858.197	22417
858.331	22310
858.464	22284
858.597	22299
858.731	22318
858.864	22306
858.997	22303
859.13	22173
859.263	22303
859.396	22363
859.529	22386
859.662	22341
859.795	22310
859.928	22348
860.061	22550
860.194	22538
860.327	22352
860.46	22382
860.592	22497
860.725	22557
860.858	22398
860.99	22432
861.123	22337
861.256	22253
861.388	22280
861.521	23185
861.653	22162
861.786	22074
861.918	22128
862.05	22158
862.183	22325
862.315	22287
862.447	22173
862.58	22276
862.712	22059
862.844	22200
862.976	22120
863.108	22055
863.24	22413
863.372	22013
863.504	22196
863.636	22059
863.768	21911
863.9	22078
864.032	22147
864.164	21888
864.296	21994
864.428	22082
864.559	22124
864.691	22211
864.823	22112
864.954	22044
865.086	22067
865.217	21937
865.349	21861
865.48	21998
865.612	21930
865.743	22070
865.875	21987
866.006	21888
866.137	21759
866.269	21956
866.4	21884
866.531	21884
866.662	21861
866.793	21911
866.924	21812
867.055	21888
867.186	21861
867.317	21785
867.448	21728
867.579	21842
867.71	21800
867.841	21797
867.972	21835
868.103	21937
868.233	21804
868.364	21888
868.495	21911
868.625	22116
868.756	22128
868.886	22162
869.017	22025
869.147	22188
869.278	22272
869.408	22055
869.539	22055
869.669	22185
869.799	22188
869.929	22272
870.06	22215
870.19	22459
870.32	22402
870.45	22432
870.58	22341
870.71	22592
870.84	22508
870.97	22531
871.1	22386
871.23	22630
871.36	22679
871.489	22630
871.619	22561
871.749	22649
871.879	22752
872.008	22843
872.138	22672
872.267	22660
872.397	22481
872.526	22455
872.656	22451
872.785	22523
872.915	22687
873.044	22828
873.173	22816
873.303	22793
873.432	22858
873.561	22835
873.69	22691
873.819	22713
873.948	22843
874.077	22630
874.206	22519
874.335	22736
874.464	22831
874.593	22881
874.722	22900
874.851	23037
874.979	23010
875.108	23018
875.237	22824
875.365	22892
875.494	22911
875.623	22915
875.751	22889
875.88	22904
876.008	23094
876.136	23064
876.265	23318
876.393	23433
876.521	23448
876.65	23337
876.778	23185
876.906	23277
877.034	23117
877.162	23261
877.29	23204
877.418	23318
877.546	23303
877.674	23322
877.802	23303
877.93	23235
878.058	23261
878.185	23113
878.313	23147
878.441	23235
878.568	23025
878.696	23258
878.824	23220
878.951	23307
879.079	23478
879.206	23493
879.333	23452
879.461	23360
879.588	23299
879.715	23414
879.842	23562
879.97	23315
880.097	23037
880.224	23147
880.351	22984
880.478	23105
880.605	23185
880.732	23060
880.859	23330
880.986	23086
881.112	23147
881.239	23052
881.366	22915
881.493	22805
881.619	22748
881.746	22592
881.872	22634
881.999	22588
882.125	22493
882.252	22801
882.378	22596
882.505	22672
882.631	22478
882.757	22253
882.883	22618
883.01	22375
883.136	22360
883.262	22249
883.388	22234
883.514	22295
883.64	22249
883.766	22196
883.892	22166
884.018	22223
884.143	22284
884.269	22356
884.395	21979
884.52	22070
884.646	22002
884.772	21941
884.897	21793
885.023	21945
885.148	22082
885.274	22188
885.399	22109
885.524	21911
885.65	21945
885.775	21949
885.9	21861
886.025	22070
886.15	21915
886.275	21823
886.4	21819
886.525	21869
886.65	21819
886.775	21854
886.9	22036
887.025	22154
887.149	21854
887.274	21819
887.399	21682
887.523	21785
887.648	21629
887.773	21530
887.897	21808
888.021	21705
888.146	21755
888.27	21728
888.395	21774
888.519	21816
888.643	21739
888.767	21831
888.891	21652
889.015	21530
889.139	21675
889.263	21504
889.387	21675
889.511	21709
889.635	21701
889.759	21549
889.883	21458
890.006	21538
890.13	21568
890.254	21458
890.377	21492
890.501	21393
890.624	21378
890.748	21256
890.871	21127
890.995	20975
891.118	21024
891.241	21165
891.364	21017
891.488	21188
891.611	21123
891.734	21001
891.857	21138
891.98	21047
892.103	21085
892.226	20956
892.349	20979
892.471	20921
892.594	20952
892.717	21058
892.839	20967
892.962	20925
893.085	21032
893.207	20963
893.33	20708
893.452	20887
893.575	20963
893.697	20963
893.819	21116
893.941	21051
894.064	21142
894.186	20960
894.308	20834
894.43	20990
894.552	21218
894.674	21055
894.796	20765
894.918	20921
895.04	20933
895.161	20982
895.283	21005
895.405	20921
895.526	20952
895.648	20960
895.769	20887
895.891	20948
896.012	21062
896.134	20994
896.255	21024
896.376	20842
896.498	20902
896.619	20967
896.74	20963
896.861	20956
896.982	21218
897.103	21359
897.224	21138
897.345	21112
897.466	21165
897.587	21237
897.708	21249
897.828	21195
897.949	21081
898.07	20960
898.19	21127
898.311	21302
898.431	21104
898.552	21127
898.672	21233
898.792	21108
898.913	21169
899.033	20986
899.153	20960
899.273	20880
899.393	20804
899.513	20990
899.633	20944
899.753	20887
899.873	20781
899.993	20864
900.113	20838
900.232	20807
900.352	20804
900.472	20712
900.591	20560
900.711	20697
900.83	20503
900.95	20659
901.069	20613
901.189	20442
901.308	20377
901.427	20214
901.546	20278
901.665	20210
901.784	20130
901.904	20081
902.023	19955
902.141	19784
902.26	19742
902.379	19845
902.498	19677
902.617	19731
902.735	19765
902.854	19776
902.973	19700
903.091	19346
903.21	19430
903.328	19388
903.446	19297
903.565	19312
903.683	19274
903.801	19099
903.919	19198
904.038	19156
904.156	18875
904.274	19050
904.392	18886
904.51	18943
904.627	18837
904.745	18939
904.863	18985
904.981	18760
905.098	18646
905.216	18616
905.334	18601
905.451	18608
905.569	18582
905.686	18700
905.803	18540
905.921	18369
906.038	18464
906.155	18448
906.272	18350
906.389	18388
906.506	18209
906.623	18174
906.74	18110
906.857	18057
906.974	18121
907.091	18281
907.208	18167
907.324	18057
907.441	18003
907.557	17843
907.674	17882
907.79	17863
907.907	17707
908.023	17878
908.139	17737
908.256	17863
908.372	17649
908.488	17649
908.604	17707
908.72	17501
908.836	17551
908.952	17486
909.068	17611
909.184	17653
909.3	17585
909.415	17539
909.531	17653
909.647	17261
909.762	17296
909.878	17094
909.993	17261
910.108	17296
910.224	17136
910.339	17174
910.454	17041
910.57	17064
910.685	16987
910.8	17235
910.915	17155
911.03	17174
911.145	16915
911.259	16858
911.374	16790
911.489	16847
911.604	16721
911.718	16550
911.833	16611
911.947	16386
912.062	16394
912.176	16626
912.291	16599
912.405	16656
912.519	16767
912.633	16603
912.748	16554
912.862	16577
912.976	16421
913.09	16287
913.204	16409
913.318	16413
913.431	16516
913.545	16447
913.659	16417
913.772	16348
913.886	16177
914	16143
914.113	16291
914.226	16318
914.34	16295
914.453	15945
914.566	16162
914.68	16090
914.793	16101
914.906	15949
915.019	15816
915.132	15747
915.245	15709
915.358	15800
915.47	15800
915.583	15705
915.696	15679
915.809	15895
915.921	15964
916.034	15690
916.146	15584
916.259	15713
916.371	15709
916.483	15762
916.595	15580
916.708	15595
916.82	15523
916.932	15526
917.044	15477
917.156	15450
917.268	15389
917.38	15420
917.491	15302
917.603	15443
917.715	15447
917.826	15469
917.938	15211
918.049	15199
918.161	15355
918.272	15481
918.384	15428
918.495	15351
918.606	15169
918.717	15154
918.828	15055
918.939	15081
919.05	15119
919.161	15028
919.272	14941
919.383	14899
919.494	15123
919.604	15207
919.715	15135
919.826	15001
919.936	15127
920.047	15199
920.157	15089
920.267	15264
920.378	15074
920.488	14990
920.598	15249
920.708	15370
920.818	15199
920.928	15249
921.038	15374
921.148	15268
921.258	15081
921.368	14853
921.477	14800
921.587	14796
921.697	14716
921.806	14807
921.916	14689
922.025	14457
922.134	14389
922.244	14431
922.353	14492
922.462	14404
922.571	14195
922.68	14073
922.789	14077
922.898	14134
923.007	14126
923.116	14107
923.224	14092
923.333	14027
923.442	13944
923.55	13909
923.659	13978
923.767	13989
923.876	13936
923.984	13955
924.092	13833
924.201	13928
924.309	13879
924.417	13799
924.525	13715
924.633	13734
924.741	14606
924.849	13518
924.956	13689
925.064	13556
925.172	13403
925.279	13502
925.387	13620
925.494	13491
925.602	13597
925.709	13556
925.816	13464
925.924	13384
926.031	13480
926.138	13396
926.245	13540
926.352	13343
926.459	13472
926.566	13525
926.673	13384
926.779	13263
926.886	13266
926.993	13080
927.099	13129
927.206	13019
927.312	13034
927.419	13034
927.525	12954
927.631	13019
927.737	12970
927.843	12932
927.95	12772
928.056	12970
928.162	12875
928.267	12920
928.373	13613
928.479	12928
928.585	12783
928.69	12867
928.796	12806
928.901	12688
929.007	12612
929.112	12662
929.218	12719
929.323	12540
929.428	12578
929.533	12681
929.638	12604
929.743	12547
929.848	12684
929.953	12589
930.058	12460
930.163	12270
930.267	12258
930.372	12372
930.477	12232
930.581	12483
930.685	12292
930.79	12167
930.894	12201
930.998	12140
931.103	12292
931.207	11893
931.311	11851
931.415	11729
931.519	11554
931.623	11566
