Data from test_V78500241_1036.txt Node
Date: Fri Mar 25 15:48:58 CST 2022
User: usil
Spectrometer: V785-0024
Trigger mode: 0
Integration Time (sec): 4.000000E-1
Scans to average: 1
Nonlinearity correction enabled: false
Boxcar width: 0
Storing dark spectrum: false
XAxis mode: Wavelengths
Number of Pixels in Spectrum: 1024
>>>>>Begin Spectral Data<<<<<
801.071	27485
801.214	27374
801.356	27047
801.499	27032
801.641	26785
801.783	26906
801.926	26948
802.068	26845
802.211	26929
802.353	26674
802.496	26648
802.638	26632
802.78	26469
802.923	26396
803.065	26328
803.208	26446
803.35	26457
803.492	26590
803.635	26731
803.777	26648
803.919	26792
804.061	27024
804.204	26693
804.346	26629
804.488	26545
804.63	26670
804.773	26511
804.915	26636
805.057	26807
805.199	26716
805.341	26838
805.483	26956
805.626	26834
805.768	26781
805.91	26826
806.052	26883
806.194	26754
806.336	26921
806.478	26815
806.62	26826
806.762	27077
806.904	27165
807.046	27401
807.188	27351
807.33	27119
807.472	27142
807.614	27135
807.756	27173
807.898	27264
808.04	27024
808.182	27138
808.324	27013
808.465	27127
808.607	27252
808.749	27389
808.891	27416
809.033	27682
809.174	27496
809.316	27264
809.458	27477
809.6	27325
809.741	27698
809.883	27599
810.025	27854
810.166	27762
810.308	27660
810.45	27614
810.591	27545
810.733	27523
810.875	27515
811.016	27306
811.158	27283
811.299	27485
811.441	27667
811.582	27663
811.724	27572
811.865	27397
812.007	27450
812.148	27450
812.29	27519
812.431	27424
812.573	27819
812.714	27876
812.855	27960
812.997	27987
813.138	28139
813.279	27968
813.421	27880
813.562	27918
813.703	27766
813.845	27606
813.986	27454
814.127	27332
814.268	27150
814.41	27180
814.551	27180
814.692	27112
814.833	27146
814.974	27039
815.115	27051
815.256	26929
815.397	26925
815.539	27005
815.68	26754
815.821	26727
815.962	26849
816.103	26880
816.244	26659
816.385	26621
816.526	26511
816.666	26549
816.807	26530
816.948	26469
817.089	26590
817.23	26351
817.371	26351
817.512	26381
817.653	26229
817.793	26332
817.934	26313
818.075	26415
818.216	26400
818.356	26377
818.497	26396
818.638	26115
818.778	26157
818.919	26161
819.06	26248
819.2	26339
819.341	26465
819.481	26290
819.622	26499
819.762	26655
819.903	26640
820.043	26678
820.184	26442
820.324	26453
820.465	26423
820.605	26541
820.746	26488
820.886	26282
821.026	26590
821.167	26461
821.307	26518
821.447	26355
821.588	26248
821.728	26263
821.868	26145
822.008	25894
822.149	25932
822.289	25852
822.429	25594
822.569	25521
822.709	25510
822.849	25411
822.99	25396
823.13	25365
823.27	25472
823.41	25202
823.55	25126
823.69	25240
823.83	25072
823.97	25236
824.11	25023
824.25	24924
824.389	24970
824.529	25118
824.669	25046
824.809	25148
824.949	25012
825.089	25023
825.228	24939
825.368	24992
825.508	24795
825.648	24814
825.787	25008
825.927	24920
826.067	24764
826.206	24825
826.346	24913
826.485	24848
826.625	24840
826.765	24970
826.904	24905
827.044	24604
827.183	24688
827.323	24563
827.462	24684
827.601	24692
827.741	24448
827.88	24696
828.02	24429
828.159	24528
828.298	24479
828.437	24608
828.577	24502
828.716	24536
828.855	24509
828.994	24330
829.134	24277
829.273	24292
829.412	24266
829.551	24254
829.69	24216
829.829	24357
829.968	24456
830.107	24258
830.246	24247
830.385	24140
830.524	24182
830.663	24121
830.802	24083
830.941	23874
831.08	23802
831.219	23927
831.357	24030
831.496	24121
831.635	23874
831.774	23733
831.913	23729
832.051	23592
832.19	23623
832.329	23642
832.467	23627
832.606	23455
832.744	23539
832.883	23524
833.022	23589
833.16	23562
833.299	23551
833.437	23604
833.576	23604
833.714	23672
833.852	23634
833.991	23589
834.129	23687
834.267	23634
834.406	23493
834.544	23573
834.682	23653
834.821	23520
834.959	23767
835.097	23459
835.235	23672
835.373	23539
835.511	23395
835.65	23429
835.788	23501
835.926	23417
836.064	23181
836.202	23200
836.34	23486
836.478	23467
836.615	23360
836.753	23455
836.891	23585
837.029	23482
837.167	23307
837.305	23311
837.443	23242
837.58	23166
837.718	23258
837.856	23269
837.993	23277
838.131	23246
838.269	23025
838.406	23273
838.544	23083
838.681	22782
838.819	22957
838.956	22729
839.094	22725
839.231	22767
839.369	22908
839.506	23029
839.643	22930
839.781	22733
839.918	22573
840.055	22744
840.193	22713
840.33	22763
840.467	22740
840.604	22771
840.742	22957
840.879	22565
841.016	22546
841.153	22565
841.29	22790
841.427	22767
841.564	22668
841.701	22596
841.838	22653
841.975	22527
842.112	22637
842.249	22394
842.385	22535
842.522	22615
842.659	22519
842.796	22443
842.933	22402
843.069	22306
843.206	22265
843.343	22516
843.479	22440
843.616	22569
843.752	22318
843.889	22268
844.025	22253
844.162	22131
844.298	22215
844.435	22162
844.571	22192
844.708	22207
844.844	22337
844.98	22322
845.117	22211
845.253	22215
845.389	22032
845.525	22097
845.661	22078
845.798	21899
845.934	21960
846.07	22029
846.206	21998
846.342	22040
846.478	21956
846.614	21644
846.75	21580
846.886	21728
847.022	21743
847.158	21656
847.294	21709
847.429	21770
847.565	21591
847.701	21816
847.837	21450
847.972	21412
848.108	21492
848.244	21500
848.379	21287
848.515	21142
848.65	21233
848.786	21275
848.921	21325
849.057	21336
849.192	21348
849.328	21222
849.463	21127
849.598	21188
849.734	21135
849.869	20982
850.004	20986
850.14	21123
850.275	21024
850.41	20994
850.545	20952
850.68	20944
850.815	21005
850.95	20921
851.085	21226
851.22	21237
851.355	21017
851.49	20883
851.625	21005
851.76	21058
851.895	21039
852.03	20918
852.165	21039
852.299	21131
852.434	21154
852.569	21058
852.703	21036
852.838	21096
852.973	21096
853.107	21074
853.242	20952
853.376	20853
853.511	20678
853.645	20758
853.78	20952
853.914	20998
854.048	20800
854.183	20861
854.317	20811
854.451	21089
854.585	20758
854.72	20895
854.854	20910
854.988	20857
855.122	20883
855.256	20708
855.39	20838
855.524	20971
855.658	20868
855.792	20826
855.926	20906
856.06	20849
856.194	20929
856.327	20830
856.461	20811
856.595	20781
856.729	20708
856.862	20956
856.996	20918
857.13	20849
857.263	20948
857.397	20944
857.53	20933
857.664	20944
857.797	20948
857.931	20960
858.064	20857
858.197	21055
858.331	20834
858.464	20765
858.597	20785
858.731	20902
858.864	20872
858.997	20929
859.13	20872
859.263	20895
859.396	20891
859.529	20861
859.662	20868
859.795	20823
859.928	20941
860.061	21036
860.194	21085
860.327	20948
860.46	20849
860.592	20963
860.725	20982
860.858	21017
860.99	20910
861.123	20880
861.256	20708
861.388	20830
861.521	21545
861.653	20758
861.786	20697
861.918	20743
862.05	20746
862.183	20834
862.315	20826
862.447	20834
862.58	20815
862.712	20488
862.844	20454
862.976	20667
863.108	20541
863.24	21005
863.372	20636
863.504	20629
863.636	20636
863.768	20621
863.9	20518
864.032	20446
864.164	20549
864.296	20495
864.428	20609
864.559	20648
864.691	20659
864.823	20606
864.954	20617
865.086	20594
865.217	20476
865.349	20347
865.48	20454
865.612	20499
865.743	20549
865.875	20507
866.006	20434
866.137	20492
866.269	20530
866.4	20461
866.531	20351
866.662	20377
866.793	20377
866.924	20427
867.055	20423
867.186	20495
867.317	20347
867.448	20389
867.579	20374
867.71	20362
867.841	20343
867.972	20377
868.103	20434
868.233	20434
868.364	20427
868.495	20503
868.625	20697
868.756	20743
868.886	20545
869.017	20640
869.147	20670
869.278	20807
869.408	20644
869.539	20655
869.669	20716
869.799	20640
869.929	20739
870.06	20811
870.19	21017
870.32	20925
870.45	21039
870.58	20952
870.71	21062
870.84	21173
870.97	20998
871.1	20952
871.23	21184
871.36	21214
871.489	21180
871.619	21332
871.749	21233
871.879	21222
872.008	21401
872.138	21279
872.267	21325
872.397	21051
872.526	21180
872.656	21020
872.785	21081
872.915	21188
873.044	21302
873.173	21222
873.303	21393
873.432	21340
873.561	21526
873.69	21283
873.819	21249
873.948	21367
874.077	21355
874.206	21287
874.335	21161
874.464	21382
874.593	21485
874.722	21542
874.851	21450
874.979	21530
875.108	21481
875.237	21557
875.365	21367
875.494	21526
875.623	21595
875.751	21424
875.88	21477
876.008	21564
876.136	21625
876.265	21800
876.393	21983
876.521	21937
876.65	21979
876.778	21945
876.906	21800
877.034	21880
877.162	21857
877.29	21724
877.418	21876
877.546	21937
877.674	21816
877.802	21857
877.93	21869
878.058	21743
878.185	21736
878.313	21728
878.441	21865
878.568	21603
878.696	21842
878.824	21854
878.951	21895
879.079	22070
879.206	22185
879.333	21979
879.461	21876
879.588	22006
879.715	21953
879.842	22238
879.97	21972
880.097	21759
880.224	21545
880.351	21728
880.478	21682
880.605	21591
880.732	21717
880.859	21724
880.986	21599
881.112	21682
881.239	21583
881.366	21450
881.493	21405
881.619	21264
881.746	21378
881.872	21180
881.999	21222
882.125	21123
882.252	21294
882.378	21207
882.505	21374
882.631	21077
882.757	20902
882.883	21085
883.01	20925
883.136	20887
883.262	20891
883.388	20788
883.514	20944
883.64	20941
883.766	20902
883.892	20735
884.018	20705
884.143	20727
884.269	20857
884.395	20724
884.52	20522
884.646	20632
884.772	20492
884.897	20537
885.023	20606
885.148	20720
885.274	20788
885.399	20724
885.524	20552
885.65	20632
885.775	20530
885.9	20473
886.025	20792
886.15	20659
886.275	20617
886.4	20522
886.525	20587
886.65	20590
886.775	20480
886.9	20735
887.025	20826
887.149	20507
887.274	20507
887.399	20332
887.523	20450
887.648	20252
887.773	20240
887.897	20480
888.021	20640
888.146	20298
888.27	20438
888.395	20473
888.519	20434
888.643	20286
888.767	20324
888.891	20317
889.015	20111
889.139	20298
889.263	20180
889.387	20408
889.511	20492
889.635	20320
889.759	20187
889.883	20248
890.006	20168
890.13	20149
890.254	20016
890.377	20138
890.501	19978
890.624	19887
890.748	19963
890.871	19852
890.995	19837
891.118	19696
891.241	19731
891.364	19696
891.488	19849
891.611	19727
891.734	19670
891.857	19898
891.98	19909
892.103	19791
892.226	19734
892.349	19723
892.471	19582
892.594	19643
892.717	19712
892.839	19643
892.962	19624
893.085	19666
893.207	19727
893.33	19483
893.452	19670
893.575	19814
893.697	19689
893.819	19883
893.941	19811
894.064	19791
894.186	19677
894.308	19578
894.43	19784
894.552	19826
894.674	19674
894.796	19502
894.918	19658
895.04	19681
895.161	19738
895.283	19590
895.405	19533
895.526	19643
895.648	19647
895.769	19772
895.891	19791
896.012	19822
896.134	19864
896.255	19666
896.376	19677
896.498	19708
896.619	19651
896.74	19704
896.861	19727
896.982	20005
897.103	20187
897.224	19913
897.345	19845
897.466	19936
897.587	19860
897.708	19989
897.828	20031
897.949	19795
898.07	19814
898.19	19932
898.311	20016
898.431	19951
898.552	20027
898.672	19974
898.792	20020
898.913	19894
899.033	19871
899.153	19696
899.273	19651
899.393	19677
899.513	19670
899.633	19639
899.753	19757
899.873	19693
899.993	19746
900.113	19620
900.232	19647
900.352	19666
900.472	19495
900.591	19324
900.711	19457
900.83	19293
900.95	19563
901.069	19597
901.189	19343
901.308	19171
901.427	19034
901.546	19110
901.665	19107
901.784	19023
901.904	18886
902.023	18852
902.141	18673
902.26	18563
902.379	18658
902.498	18612
902.617	18597
902.735	18677
902.854	18498
902.973	18441
903.091	18292
903.21	18285
903.328	18251
903.446	18140
903.565	18007
903.683	18178
903.801	17916
903.919	17958
904.038	18068
904.156	17786
904.274	17809
904.392	17817
904.51	17821
904.627	17843
904.745	17847
904.863	17786
904.981	17627
905.098	17535
905.216	17528
905.334	17524
905.451	17615
905.569	17486
905.686	17554
905.803	17486
905.921	17185
906.038	17356
906.155	17318
906.272	17204
906.389	17235
906.506	17018
906.623	17086
906.74	17022
906.857	16885
906.974	16877
907.091	17117
907.208	17174
907.324	16938
907.441	16892
907.557	16759
907.674	16797
907.79	16672
907.907	16721
908.023	16771
908.139	16752
908.256	16675
908.372	16592
908.488	16599
908.604	16466
908.72	16432
908.836	16500
908.952	16421
909.068	16550
909.184	16561
909.3	16504
909.415	16485
909.531	16470
909.647	16284
909.762	16215
909.878	16166
909.993	16200
910.108	16124
910.224	16059
910.339	16204
910.454	16044
910.57	15922
910.685	15956
910.8	16135
910.915	16154
911.03	15991
911.145	15808
911.259	15694
911.374	15717
911.489	15793
911.604	15622
911.718	15496
911.833	15603
911.947	15412
912.062	15401
912.176	15435
912.291	15519
912.405	15507
912.519	15766
912.633	15690
912.748	15515
912.862	15488
912.976	15428
913.09	15329
913.204	15336
913.318	15386
913.431	15386
913.545	15363
913.659	15534
913.772	15348
913.886	15218
914	15173
914.113	15256
914.226	15188
914.34	15340
914.453	15001
914.566	15142
914.68	15089
914.793	15047
914.906	14853
915.019	14826
915.132	14727
915.245	14800
915.358	14796
915.47	14868
915.583	14758
915.696	14811
915.809	14990
915.921	14960
916.034	14686
916.146	14682
916.259	14678
916.371	14731
916.483	14773
916.595	14632
916.708	14678
916.82	14644
916.932	14541
917.044	14606
917.156	14568
917.268	14488
917.38	14454
917.491	14412
917.603	14457
917.715	14552
917.826	14522
917.938	14450
918.049	14218
918.161	14400
918.272	14461
918.384	14415
918.495	14351
918.606	14259
918.717	14138
918.828	14244
918.939	14290
919.05	14149
919.161	14103
919.272	13921
919.383	14024
919.494	14180
919.604	14412
919.715	14176
919.826	14119
919.936	14172
920.047	14206
920.157	14206
920.267	14362
920.378	14214
920.488	14168
920.598	14317
920.708	14465
920.818	14320
920.928	14362
921.038	14476
921.148	14389
921.258	14111
921.368	14069
921.477	13970
921.587	13837
921.697	13803
921.806	13921
921.916	13738
922.025	13613
922.134	13719
922.244	13525
922.353	13655
922.462	13445
922.571	13388
922.68	13251
922.789	13190
922.898	13259
923.007	13160
923.116	13282
923.224	13076
923.333	13171
923.442	13042
923.55	12989
923.659	13084
923.767	13080
923.876	13027
923.984	13107
924.092	12977
924.201	12939
924.309	13008
924.417	13000
924.525	12886
924.633	12962
924.741	13662
924.849	12662
924.956	12897
925.064	12753
925.172	12665
925.279	12631
925.387	12707
925.494	12665
925.602	12696
925.709	12745
925.816	12574
925.924	12642
926.031	12726
926.138	12593
926.245	12677
926.352	12544
926.459	12741
926.566	12536
926.673	12544
926.779	12395
926.886	12357
926.993	12273
927.099	12292
927.206	12140
927.312	12194
927.419	12273
927.525	12186
927.631	12300
927.737	12106
927.843	12091
927.95	12015
928.056	12091
928.162	12091
928.267	12098
928.373	12593
928.479	12121
928.585	11859
928.69	11980
928.796	12148
928.901	11882
929.007	11771
929.112	11939
929.218	11946
929.323	11836
929.428	11756
929.533	11878
929.638	11707
929.743	11718
929.848	11767
929.953	11703
930.058	11665
930.163	11478
930.267	11425
930.372	11615
930.477	11501
930.581	11699
930.685	11516
930.79	11372
930.894	11433
930.998	11337
931.103	11535
931.207	11090
931.311	11094
931.415	10972
931.519	10774
931.623	10729
