Data from test_V78500241_3043.txt Node
Date: Fri Mar 25 16:02:52 CST 2022
User: usil
Spectrometer: V785-0024
Trigger mode: 0
Integration Time (sec): 4.000000E-1
Scans to average: 1
Nonlinearity correction enabled: false
Boxcar width: 0
Storing dark spectrum: false
XAxis mode: Wavelengths
Number of Pixels in Spectrum: 1024
>>>>>Begin Spectral Data<<<<<
801.071	28090
801.214	28086
801.356	27998
801.499	27793
801.641	27656
801.783	27759
801.926	27778
802.068	27561
802.211	27549
802.353	27660
802.496	27462
802.638	27412
802.78	27332
802.923	27291
803.065	27214
803.208	27241
803.35	27469
803.492	27492
803.635	27667
803.777	27549
803.919	27671
804.061	27949
804.204	27694
804.346	27542
804.488	27538
804.63	27648
804.773	27534
804.915	27720
805.057	27679
805.199	27694
805.341	27812
805.483	27857
805.626	27690
805.768	27759
805.91	27709
806.052	27880
806.194	27694
806.336	27842
806.478	27701
806.62	27717
806.762	27831
806.904	28032
807.046	28238
807.188	28223
807.33	28124
807.472	28306
807.614	28166
807.756	28257
807.898	28013
808.04	27869
808.182	28029
808.324	27918
808.465	28101
808.607	28185
808.749	28344
808.891	28508
809.033	28523
809.174	28344
809.316	28295
809.458	28390
809.6	28356
809.741	28421
809.883	28588
810.025	28626
810.166	28656
810.308	28755
810.45	28713
810.591	28622
810.733	28333
810.875	28371
811.016	28390
811.158	28261
811.299	28481
811.441	28656
811.582	28337
811.724	28322
811.865	28352
812.007	28287
812.148	28325
812.29	28409
812.431	28607
812.573	28782
812.714	28843
812.855	28896
812.997	29025
813.138	29079
813.279	28968
813.421	28919
813.562	28847
813.703	28573
813.845	28615
813.986	28341
814.127	28192
814.268	28139
814.41	28082
814.551	28013
814.692	28055
814.833	28090
814.974	28010
815.115	28215
815.256	27972
815.397	28040
815.539	27934
815.68	27854
815.821	27713
815.962	27914
816.103	27930
816.244	27842
816.385	27732
816.526	27648
816.666	27553
816.807	27287
816.948	27469
817.089	27511
817.23	27439
817.371	27355
817.512	27393
817.653	27348
817.793	27405
817.934	27416
818.075	27291
818.216	27367
818.356	27378
818.497	27279
818.638	27051
818.778	27119
818.919	27142
819.06	27173
819.2	27310
819.341	27393
819.481	27294
819.622	27679
819.762	27827
819.903	27637
820.043	27485
820.184	27583
820.324	27488
820.465	27545
820.605	27511
820.746	27389
820.886	27538
821.026	27538
821.167	27287
821.307	27595
821.447	27435
821.588	27408
821.728	27146
821.868	26998
822.008	26906
822.149	26891
822.289	26826
822.429	26621
822.569	26499
822.709	26640
822.849	26396
822.99	26313
823.13	26317
823.27	26294
823.41	26157
823.55	26100
823.69	26252
823.83	26210
823.97	26058
824.11	25936
824.25	25875
824.389	25944
824.529	26119
824.669	26001
824.809	26301
824.949	26065
825.089	26134
825.228	26027
825.368	25780
825.508	25822
825.648	25963
825.787	25940
825.927	25849
826.067	25776
826.206	25791
826.346	25890
826.485	25894
826.625	25909
826.765	25997
826.904	25894
827.044	25620
827.183	25552
827.323	25605
827.462	25616
827.601	25445
827.741	25616
827.88	25632
828.02	25700
828.159	25510
828.298	25651
828.437	25559
828.577	25521
828.716	25784
828.855	25628
828.994	25297
829.134	25236
829.273	25422
829.412	25175
829.551	25282
829.69	25160
829.829	25289
829.968	25301
830.107	25270
830.246	25335
830.385	25240
830.524	25202
830.663	25053
830.802	25027
830.941	24913
831.08	24939
831.219	24958
831.357	25019
831.496	25141
831.635	24977
831.774	24776
831.913	24730
832.051	24730
832.19	24722
832.329	24741
832.467	24551
832.606	24528
832.744	24475
832.883	24555
833.022	24369
833.16	24540
833.299	24604
833.437	24578
833.576	24779
833.714	24585
833.852	24787
833.991	24707
834.129	24734
834.267	24563
834.406	24620
834.544	24681
834.682	24490
834.821	24650
834.959	24700
835.097	24665
835.235	24582
835.373	24574
835.511	24585
835.65	24532
835.788	24467
835.926	24399
836.064	24148
836.202	24270
836.34	24464
836.478	24620
836.615	24418
836.753	24441
836.891	24555
837.029	24513
837.167	24422
837.305	24327
837.443	24289
837.58	24148
837.718	24384
837.856	24197
837.993	24152
838.131	24300
838.269	24171
838.406	24163
838.544	24201
838.681	23965
838.819	23893
838.956	23824
839.094	23661
839.231	23794
839.369	23809
839.506	24171
839.643	24091
839.781	23821
839.918	23703
840.055	23737
840.193	23722
840.33	23699
840.467	23691
840.604	23676
840.742	23889
840.879	23509
841.016	23592
841.153	23608
841.29	23885
841.427	23543
841.564	23649
841.701	23657
841.838	23668
841.975	23493
842.112	23531
842.249	23589
842.385	23414
842.522	23809
842.659	23547
842.796	23455
842.933	23398
843.069	23368
843.206	23326
843.343	23520
843.479	23414
843.616	23341
843.752	23200
843.889	23128
844.025	23372
844.162	23307
844.298	23231
844.435	23178
844.571	23132
844.708	23246
844.844	23372
844.98	23353
845.117	23242
845.253	23273
845.389	22972
845.525	23048
845.661	22968
845.798	22923
845.934	22930
846.07	22968
846.206	22873
846.342	23048
846.478	22869
846.614	22656
846.75	22535
846.886	22748
847.022	22797
847.158	22812
847.294	22721
847.429	22786
847.565	22569
847.701	22968
847.837	22451
847.972	22310
848.108	22557
848.244	22417
848.379	22169
848.515	22295
848.65	22109
848.786	22303
848.921	22143
849.057	22394
849.192	22291
849.328	22303
849.463	22196
849.598	22173
849.734	22234
849.869	22177
850.004	22128
850.14	22063
850.275	22021
850.41	21979
850.545	22036
850.68	22067
850.815	22051
850.95	22090
851.085	22188
851.22	22124
851.355	22059
851.49	21972
851.625	21865
851.76	22093
851.895	21945
852.03	21979
852.165	21972
852.299	22048
852.434	22105
852.569	22063
852.703	21998
852.838	22120
852.973	22128
853.107	22162
853.242	22078
853.376	21945
853.511	21739
853.645	21747
853.78	21994
853.914	21880
854.048	21800
854.183	21835
854.317	21816
854.451	21926
854.585	21937
854.72	21895
854.854	21983
854.988	21743
855.122	21800
855.256	21789
855.39	21781
855.524	21861
855.658	21876
855.792	21819
855.926	21895
856.06	21915
856.194	22086
856.327	21778
856.461	21808
856.595	21743
856.729	21838
856.862	22017
856.996	21911
857.13	21838
857.263	21972
857.397	21983
857.53	21774
857.664	21903
857.797	21846
857.931	21892
858.064	21766
858.197	21865
858.331	21842
858.464	21778
858.597	21747
858.731	21755
858.864	21781
858.997	21850
859.13	21778
859.263	21823
859.396	21854
859.529	21713
859.662	21793
859.795	21743
859.928	21823
860.061	21956
860.194	21956
860.327	22017
860.46	21892
860.592	21812
860.725	22044
860.858	21941
860.99	21907
861.123	21675
861.256	21857
861.388	21823
861.521	22462
861.653	21660
861.786	21667
861.918	21641
862.05	21705
862.183	21732
862.315	21720
862.447	21656
862.58	21705
862.712	21496
862.844	21599
862.976	21660
863.108	21553
863.24	21892
863.372	21507
863.504	21507
863.636	21545
863.768	21576
863.9	21530
864.032	21477
864.164	21523
864.296	21507
864.428	21686
864.559	21622
864.691	21717
864.823	21504
864.954	21469
865.086	21488
865.217	21523
865.349	21275
865.48	21504
865.612	21473
865.743	21633
865.875	21485
866.006	21469
866.137	21378
866.269	21500
866.4	21431
866.531	21252
866.662	21363
866.793	21226
866.924	21435
867.055	21405
867.186	21416
867.317	21336
867.448	21264
867.579	21348
867.71	21344
867.841	21249
867.972	21439
868.103	21374
868.233	21393
868.364	21416
868.495	21564
868.625	21656
868.756	21679
868.886	21561
869.017	21682
869.147	21762
869.278	21808
869.408	21705
869.539	21606
869.669	21682
869.799	21747
869.929	21759
870.06	21671
870.19	21842
870.32	21895
870.45	21972
870.58	22029
870.71	22070
870.84	22101
870.97	21941
871.1	22063
871.23	22173
871.36	22325
871.489	22204
871.619	22150
871.749	22211
871.879	22226
872.008	22268
872.138	22257
872.267	22204
872.397	22074
872.526	22021
872.656	21964
872.785	21975
872.915	22200
873.044	22333
873.173	22303
873.303	22280
873.432	22413
873.561	22318
873.69	22272
873.819	22128
873.948	22318
874.077	22249
874.206	22196
874.335	22223
874.464	22436
874.593	22508
874.722	22462
874.851	22504
874.979	22489
875.108	22497
875.237	22382
875.365	22424
875.494	22246
875.623	22542
875.751	22402
875.88	22417
876.008	22577
876.136	22557
876.265	22866
876.393	22911
876.521	22946
876.65	22949
876.778	22942
876.906	22923
877.034	22706
877.162	22854
877.29	22828
877.418	22790
877.546	22877
877.674	22812
877.802	22771
877.93	22862
878.058	22698
878.185	22672
878.313	22736
878.441	22725
878.568	22694
878.696	22660
878.824	22771
878.951	22801
879.079	22991
879.206	23033
879.333	22908
879.461	22771
879.588	23014
879.715	22866
879.842	23109
879.97	22923
880.097	22542
880.224	22740
880.351	22816
880.478	22660
880.605	22531
880.732	22702
880.859	22915
880.986	22755
881.112	22687
881.239	22455
881.366	22371
881.493	22207
881.619	22238
881.746	22303
881.872	22211
881.999	22249
882.125	22067
882.252	22246
882.378	22181
882.505	22219
882.631	22002
882.757	21972
882.883	21979
883.01	21850
883.136	21854
883.262	21739
883.388	21603
883.514	21979
883.64	21876
883.766	21873
883.892	21698
884.018	21633
884.143	21861
884.269	21880
884.395	21671
884.52	21572
884.646	21595
884.772	21367
884.897	21492
885.023	21454
885.148	21644
885.274	21770
885.399	21610
885.524	21591
885.65	21496
885.775	21606
885.9	21576
886.025	21591
886.15	21447
886.275	21477
886.4	21447
886.525	21507
886.65	21405
886.775	21454
886.9	21561
887.025	21770
887.149	21439
887.274	21359
887.399	21291
887.523	21291
887.648	21291
887.773	21214
887.897	21405
888.021	21325
888.146	21173
888.27	21344
888.395	21386
888.519	21249
888.643	21310
888.767	21306
888.891	21188
889.015	21039
889.139	21108
889.263	21009
889.387	21169
889.511	21302
889.635	21199
889.759	21036
889.883	21039
890.006	21138
890.13	21112
890.254	20895
890.377	21074
890.501	20682
890.624	20735
890.748	20857
890.871	20743
890.995	20659
891.118	20735
891.241	20594
891.364	20632
891.488	20727
891.611	20526
891.734	20609
891.857	20773
891.98	20568
892.103	20629
892.226	20621
892.349	20663
892.471	20480
892.594	20640
892.717	20609
892.839	20484
892.962	20651
893.085	20636
893.207	20571
893.33	20457
893.452	20492
893.575	20625
893.697	20461
893.819	20606
893.941	20731
894.064	20651
894.186	20408
894.308	20412
894.43	20636
894.552	20629
894.674	20636
894.796	20476
894.918	20476
895.04	20598
895.161	20545
895.283	20480
895.405	20560
895.526	20473
895.648	20461
895.769	20686
895.891	20492
896.012	20598
896.134	20552
896.255	20552
896.376	20488
896.498	20400
896.619	20609
896.74	20434
896.861	20598
896.982	20758
897.103	20994
897.224	20838
897.345	20792
897.466	20674
897.587	20777
897.708	20864
897.828	20792
897.949	20613
898.07	20533
898.19	20663
898.311	20720
898.431	20644
898.552	20663
898.672	20792
898.792	20777
898.913	20686
899.033	20492
899.153	20655
899.273	20488
899.393	20522
899.513	20602
899.633	20393
899.753	20492
899.873	20396
899.993	20488
900.113	20370
900.232	20503
900.352	20476
900.472	20381
900.591	20248
900.711	20362
900.83	20244
900.95	20271
901.069	20396
901.189	20164
901.308	19894
901.427	19788
901.546	19860
901.665	19890
901.784	19898
901.904	19712
902.023	19594
902.141	19415
902.26	19369
902.379	19506
902.498	19510
902.617	19441
902.735	19362
902.854	19480
902.973	19301
903.091	19000
903.21	19034
903.328	19004
903.446	18958
903.565	18848
903.683	18833
903.801	18764
903.919	18749
904.038	18764
904.156	18681
904.274	18768
904.392	18547
904.51	18601
904.627	18502
904.745	18601
904.863	18700
904.981	18380
905.098	18266
905.216	18270
905.334	18285
905.451	18254
905.569	18327
905.686	18239
905.803	18155
905.921	18121
906.038	18235
906.155	18159
906.272	18003
906.389	18102
906.506	17863
906.623	17882
906.74	17802
906.857	17752
906.974	17726
907.091	17764
907.208	17935
907.324	17821
907.441	17824
907.557	17554
907.674	17520
907.79	17448
907.907	17524
908.023	17497
908.139	17341
908.256	17406
908.372	17372
908.488	17376
908.604	17349
908.72	17303
908.836	17231
908.952	17284
909.068	17318
909.184	17299
909.3	17193
909.415	17280
909.531	17197
909.647	17041
909.762	16889
909.878	16896
909.993	16850
910.108	16911
910.224	16915
910.339	16896
910.454	16850
910.57	16797
910.685	16698
910.8	16908
910.915	16900
911.03	16839
911.145	16672
911.259	16603
911.374	16573
911.489	16455
911.604	16329
911.718	16166
911.833	16276
911.947	16219
912.062	16143
912.176	16333
912.291	16367
912.405	16325
912.519	16382
912.633	16504
912.748	16299
912.862	16314
912.976	16055
913.09	16048
913.204	16006
913.318	16131
913.431	16211
913.545	16105
913.659	16223
913.772	16150
913.886	15949
914	15972
914.113	15915
914.226	16036
914.34	15968
914.453	15747
914.566	15926
914.68	15739
914.793	15770
914.906	15580
915.019	15420
915.132	15450
915.245	15389
915.358	15500
915.47	15526
915.583	15500
915.696	15526
915.809	15572
915.921	15587
916.034	15435
916.146	15363
916.259	15454
916.371	15488
916.483	15439
916.595	15359
916.708	15321
916.82	15275
916.932	15230
917.044	15291
917.156	15195
917.268	15142
917.38	15127
917.491	15100
917.603	14986
917.715	15226
917.826	15173
917.938	14994
918.049	14979
918.161	15077
918.272	15226
918.384	15176
918.495	15017
918.606	14891
918.717	14758
918.828	14895
918.939	14933
919.05	14819
919.161	14853
919.272	14670
919.383	14667
919.494	14830
919.604	14990
919.715	14754
919.826	14682
919.936	14819
920.047	14910
920.157	14758
920.267	14941
920.378	14929
920.488	14769
920.598	14937
920.708	15138
920.818	15020
920.928	14982
921.038	15100
921.148	15047
921.258	14834
921.368	14667
921.477	14575
921.587	14545
921.697	14431
921.806	14541
921.916	14480
922.025	14210
922.134	14195
922.244	14100
922.353	14168
922.462	14103
922.571	13978
922.68	13852
922.789	13818
922.898	13830
923.007	13750
923.116	13898
923.224	13731
923.333	13761
923.442	13757
923.55	13708
923.659	13609
923.767	13833
923.876	13590
923.984	13658
924.092	13578
924.201	13571
924.309	13578
924.417	13533
924.525	13480
924.633	13533
924.741	14252
924.849	13297
924.956	13441
925.064	13316
925.172	13209
925.279	13240
925.387	13289
925.494	13270
925.602	13388
925.709	13308
925.816	13084
925.924	13141
926.031	13301
926.138	13187
926.245	13202
926.352	13042
926.459	13209
926.566	13278
926.673	13095
926.779	12981
926.886	12920
926.993	12814
927.099	12859
927.206	12730
927.312	12673
927.419	12757
927.525	12833
927.631	12863
927.737	12681
927.843	12662
927.95	12536
928.056	12536
928.162	12650
928.267	12696
928.373	13301
928.479	12627
928.585	12460
928.69	12646
928.796	12486
928.901	12399
929.007	12403
929.112	12460
929.218	12369
929.323	12300
929.428	12338
929.533	12433
929.638	12247
929.743	12213
929.848	12376
929.953	12285
930.058	12155
930.163	11988
930.267	12083
930.372	12144
930.477	11977
930.581	12201
930.685	12087
930.79	11935
930.894	11961
930.998	11942
931.103	11996
931.207	11703
931.311	11551
931.415	11493
931.519	11341
931.623	11231
