Data from test_V78500241_258.txt Node
Date: Fri Mar 25 15:43:35 CST 2022
User: usil
Spectrometer: V785-0024
Trigger mode: 0
Integration Time (sec): 4.000000E-1
Scans to average: 1
Nonlinearity correction enabled: false
Boxcar width: 0
Storing dark spectrum: false
XAxis mode: Wavelengths
Number of Pixels in Spectrum: 1024
>>>>>Begin Spectral Data<<<<<
801.071	29680
801.214	29490
801.356	29524
801.499	29341
801.641	29398
801.783	29178
801.926	29375
802.068	29235
802.211	29086
802.353	29044
802.496	28908
802.638	28801
802.78	28888
802.923	28847
803.065	28786
803.208	28702
803.35	29025
803.492	28946
803.635	29143
803.777	29006
803.919	29212
804.061	29265
804.204	29109
804.346	28957
804.488	28995
804.63	29151
804.773	28987
804.915	28968
805.057	29029
805.199	29029
805.341	29056
805.483	29079
805.626	29018
805.768	28934
805.91	29075
806.052	29048
806.194	29197
806.336	29292
806.478	29315
806.62	29124
806.762	29277
806.904	29387
807.046	29691
807.188	29543
807.33	29554
807.472	29653
807.614	29497
807.756	29490
807.898	29356
808.04	29318
808.182	29406
808.324	29452
808.465	29299
808.607	29642
808.749	29634
808.891	29764
809.033	29969
809.174	29794
809.316	29680
809.458	29745
809.6	29630
809.741	29923
809.883	29996
810.025	29980
810.166	30064
810.308	29961
810.45	30026
810.591	29893
810.733	29783
810.875	29733
811.016	29501
811.158	29638
811.299	29870
811.441	29920
811.582	29859
811.724	29722
811.865	29722
812.007	29623
812.148	29783
812.29	29722
812.431	29901
812.573	30083
812.714	30194
812.855	30300
812.997	30388
813.138	30471
813.279	30346
813.421	30376
813.562	30194
813.703	30072
813.845	29927
813.986	29539
814.127	29459
814.268	29387
814.41	29391
814.551	29375
814.692	29345
814.833	29288
814.974	29223
815.115	29375
815.256	29292
815.397	29113
815.539	29334
815.68	29185
815.821	29181
815.962	29166
816.103	29083
816.244	28987
816.385	28976
816.526	28843
816.666	28782
816.807	28497
816.948	28584
817.089	28748
817.23	28561
817.371	28767
817.512	28645
817.653	28641
817.793	28588
817.934	28596
818.075	28569
818.216	28577
818.356	28398
818.497	28554
818.638	28207
818.778	28257
818.919	28337
819.06	28398
819.2	28398
819.341	28542
819.481	28508
819.622	28599
819.762	28767
819.903	28812
820.043	28691
820.184	28653
820.324	28675
820.465	28782
820.605	28721
820.746	28550
820.886	28500
821.026	28672
821.167	28466
821.307	28607
821.447	28428
821.588	28447
821.728	28352
821.868	28124
822.008	27884
822.149	27842
822.289	27994
822.429	27686
822.569	27736
822.709	27595
822.849	27583
822.99	27454
823.13	27530
823.27	27435
823.41	27173
823.55	27226
823.69	27370
823.83	27332
823.97	27146
824.11	27093
824.25	26918
824.389	26971
824.529	27096
824.669	26971
824.809	27154
824.949	27089
825.089	27188
825.228	27047
825.368	26948
825.508	26868
825.648	26883
825.787	26918
825.927	27070
826.067	26861
826.206	26979
826.346	26937
826.485	26861
826.625	26899
826.765	27017
826.904	26979
827.044	26682
827.183	26632
827.323	26522
827.462	26613
827.601	26670
827.741	26587
827.88	26594
828.02	26503
828.159	26541
828.298	26560
828.437	26655
828.577	26568
828.716	26655
828.855	26556
828.994	26176
829.134	26221
829.273	26240
829.412	26328
829.551	26176
829.69	26180
829.829	26328
829.968	26294
830.107	26298
830.246	26221
830.385	26149
830.524	26157
830.663	25997
830.802	25936
830.941	25753
831.08	25784
831.219	25898
831.357	25970
831.496	26107
831.635	25826
831.774	25670
831.913	25674
832.051	25708
832.19	25483
832.329	25567
832.467	25502
832.606	25362
832.744	25358
832.883	25521
833.022	25468
833.16	25502
833.299	25594
833.437	25495
833.576	25479
833.714	25483
833.852	25491
833.991	25400
834.129	25559
834.267	25510
834.406	25434
834.544	25525
834.682	25567
834.821	25453
834.959	25529
835.097	25343
835.235	25377
835.373	25422
835.511	25381
835.65	25308
835.788	25362
835.926	25221
836.064	25133
836.202	25270
836.34	25312
836.478	25453
836.615	25194
836.753	25255
836.891	25304
837.029	25362
837.167	25110
837.305	25312
837.443	25194
837.58	24992
837.718	25221
837.856	25099
837.993	25031
838.131	25027
838.269	24985
838.406	25069
838.544	25038
838.681	24802
838.819	24631
838.956	24578
839.094	24612
839.231	24544
839.369	24475
839.506	24913
839.643	24757
839.781	24422
839.918	24460
840.055	24597
840.193	24505
840.33	24544
840.467	24517
840.604	24395
840.742	24730
840.879	24186
841.016	24399
841.153	24418
841.29	24475
841.427	24292
841.564	24479
841.701	24220
841.838	24418
841.975	24281
842.112	24410
842.249	24148
842.385	24148
842.522	24422
842.659	24163
842.796	24110
842.933	24121
843.069	24053
843.206	24114
843.343	24007
843.479	24125
843.616	24060
843.752	23958
843.889	23889
844.025	23882
844.162	23798
844.298	23969
844.435	23958
844.571	23729
844.708	23950
844.844	23992
844.98	23847
845.117	23836
845.253	23710
845.389	23828
845.525	23695
845.661	23581
845.798	23539
845.934	23668
846.07	23528
846.206	23600
846.342	23779
846.478	23573
846.614	23337
846.75	23254
846.886	23269
847.022	23303
847.158	23277
847.294	23334
847.429	23254
847.565	23258
847.701	23558
847.837	23124
847.972	23071
848.108	23109
848.244	23098
848.379	22957
848.515	22923
848.65	22786
848.786	23010
848.921	22900
849.057	22972
849.192	22828
849.328	22995
849.463	22786
849.598	22748
849.734	22698
849.869	22634
850.004	22527
850.14	22588
850.275	22637
850.41	22459
850.545	22481
850.68	22462
850.815	22588
850.95	22527
851.085	22778
851.22	22573
851.355	22561
851.49	22527
851.625	22470
851.76	22577
851.895	22459
852.03	22504
852.165	22694
852.299	22542
852.434	22626
852.569	22550
852.703	22413
852.838	22596
852.973	22721
853.107	22668
853.242	22596
853.376	22306
853.511	22329
853.645	22226
853.78	22481
853.914	22344
854.048	22234
854.183	22432
854.317	22333
854.451	22569
854.585	22261
854.72	22485
854.854	22436
854.988	22226
855.122	22379
855.256	22344
855.39	22348
855.524	22428
855.658	22322
855.792	22318
855.926	22363
856.06	22413
856.194	22352
856.327	22284
856.461	22325
856.595	22181
856.729	22299
856.862	22379
856.996	22352
857.13	22421
857.263	22360
857.397	22470
857.53	22310
857.664	22314
857.797	22276
857.931	22478
858.064	22318
858.197	22436
858.331	22234
858.464	22181
858.597	22200
858.731	22280
858.864	22268
858.997	22310
859.13	22356
859.263	22318
859.396	22356
859.529	22314
859.662	22181
859.795	22246
859.928	22272
860.061	22405
860.194	22569
860.327	22352
860.46	22394
860.592	22337
860.725	22398
860.858	22333
860.99	22363
861.123	22303
861.256	22169
861.388	22443
861.521	22900
861.653	22124
861.786	22128
861.918	22162
862.05	22219
862.183	22238
862.315	22280
862.447	22394
862.58	22341
862.712	22040
862.844	21983
862.976	22059
863.108	22006
863.24	22436
863.372	21937
863.504	22048
863.636	21979
863.768	21892
863.9	22006
864.032	21835
864.164	21789
864.296	21998
864.428	22063
864.559	22051
864.691	21968
864.823	21972
864.954	21857
865.086	22063
865.217	21857
865.349	21785
865.48	21899
865.612	21953
865.743	21899
865.875	21823
866.006	21739
866.137	21873
866.269	21812
866.4	21888
866.531	21816
866.662	21759
866.793	21835
866.924	21899
867.055	21755
867.186	21895
867.317	21739
867.448	21819
867.579	21785
867.71	21675
867.841	21732
867.972	21907
868.103	21827
868.233	21789
868.364	21671
868.495	21907
868.625	22044
868.756	22124
868.886	21934
869.017	22048
869.147	22112
869.278	21987
869.408	22131
869.539	21979
869.669	22059
869.799	22082
869.929	22257
870.06	22055
870.19	22276
870.32	22417
870.45	22390
870.58	22478
870.71	22535
870.84	22580
870.97	22481
871.1	22512
871.23	22626
871.36	22577
871.489	22485
871.619	22596
871.749	22588
871.879	22592
872.008	22622
872.138	22569
872.267	22710
872.397	22459
872.526	22481
872.656	22440
872.785	22440
872.915	22660
873.044	22698
873.173	22660
873.303	22656
873.432	22835
873.561	22645
873.69	22672
873.819	22656
873.948	22736
874.077	22573
874.206	22500
874.335	22675
874.464	22713
874.593	22809
874.722	22847
874.851	22942
874.979	22809
875.108	22915
875.237	22854
875.365	22687
875.494	22908
875.623	22896
875.751	22843
875.88	22831
876.008	23003
876.136	23071
876.265	23235
876.393	23395
876.521	23387
876.65	23376
876.778	23368
876.906	23189
877.034	23136
877.162	23166
877.29	23128
877.418	23208
877.546	23254
877.674	23185
877.802	23155
877.93	23292
878.058	23189
878.185	23041
878.313	23052
878.441	23242
878.568	23003
878.696	23162
878.824	23223
878.951	23250
879.079	23455
879.206	23379
879.333	23326
879.461	23311
879.588	23360
879.715	23482
879.842	23505
879.97	23208
880.097	22999
880.224	22965
880.351	23044
880.478	23098
880.605	23079
880.732	23086
880.859	23254
880.986	23056
881.112	23018
881.239	22908
881.366	22713
881.493	22767
881.619	22535
881.746	22656
881.872	22523
881.999	22538
882.125	22542
882.252	22554
882.378	22500
882.505	22679
882.631	22417
882.757	22303
882.883	22424
883.01	22246
883.136	22154
883.262	22333
883.388	22112
883.514	22306
883.64	22344
883.766	22173
883.892	22017
884.018	22109
884.143	22329
884.269	22341
884.395	21972
884.52	21907
884.646	21888
884.772	21766
884.897	21797
885.023	21945
885.148	22097
885.274	22063
885.399	21941
885.524	21941
885.65	21918
885.775	21922
885.9	21747
886.025	22112
886.15	22067
886.275	21941
886.4	21835
886.525	21888
886.65	21819
886.775	21789
886.9	21968
887.025	22116
887.149	21850
887.274	21797
887.399	21648
887.523	21583
887.648	21690
887.773	21625
887.897	21816
888.021	21732
888.146	21622
888.27	21743
888.395	21759
888.519	21838
888.643	21701
888.767	21705
888.891	21614
889.015	21397
889.139	21477
889.263	21420
889.387	21580
889.511	21705
889.635	21572
889.759	21416
889.883	21428
890.006	21504
890.13	21431
890.254	21382
890.377	21336
890.501	21264
890.624	21146
890.748	21230
890.871	21028
890.995	21066
891.118	20876
891.241	20971
891.364	20895
891.488	21028
891.611	20921
891.734	20971
891.857	21146
891.98	20899
892.103	21074
892.226	20944
892.349	20998
892.471	20807
892.594	20979
892.717	20842
892.839	20857
892.962	20899
893.085	20887
893.207	20857
893.33	20807
893.452	20857
893.575	20880
893.697	21005
893.819	21036
893.941	21043
894.064	21047
894.186	20781
894.308	20849
894.43	21001
894.552	21001
894.674	20929
894.796	20792
894.918	20929
895.04	20899
895.161	20921
895.283	21009
895.405	20773
895.526	20876
895.648	20792
895.769	20887
895.891	20963
896.012	20925
896.134	20883
896.255	20880
896.376	20785
896.498	20864
896.619	20826
896.74	20826
896.861	20891
896.982	21249
897.103	21428
897.224	21093
897.345	21028
897.466	21138
897.587	21089
897.708	21150
897.828	20990
897.949	21074
898.07	20910
898.19	21093
898.311	21154
898.431	21055
898.552	21055
898.672	21116
898.792	21108
898.913	21047
899.033	20781
899.153	20861
899.273	20712
899.393	20800
899.513	20667
899.633	20750
899.753	20758
899.873	20777
899.993	20899
900.113	20716
900.232	20712
900.352	20674
900.472	20579
900.591	20552
900.711	20651
900.83	20484
900.95	20617
901.069	20693
901.189	20431
901.308	20233
901.427	20225
901.546	20294
901.665	20134
901.784	20103
901.904	19906
902.023	19898
902.141	19769
902.26	19597
902.379	19780
902.498	19582
902.617	19544
902.735	19632
902.854	19594
902.973	19594
903.091	19320
903.21	19259
903.328	19206
903.446	19255
903.565	19137
903.683	19053
903.801	18943
903.919	19034
904.038	18989
904.156	18734
904.274	18939
904.392	18837
904.51	18795
904.627	18741
904.745	18829
904.863	18806
904.981	18494
905.098	18559
905.216	18410
905.334	18460
905.451	18509
905.569	18426
905.686	18479
905.803	18429
905.921	18323
906.038	18319
906.155	18334
906.272	18353
906.389	18163
906.506	18087
906.623	18102
906.74	18007
906.857	17889
906.974	17996
907.091	18045
907.208	18133
907.324	17912
907.441	17874
907.557	17798
907.674	17684
907.79	17649
907.907	17611
908.023	17653
908.139	17630
908.256	17581
908.372	17547
908.488	17615
908.604	17398
908.72	17299
908.836	17421
908.952	17406
909.068	17421
909.184	17436
909.3	17391
909.415	17406
909.531	17280
909.647	17067
909.762	16934
909.878	17155
909.993	17075
910.108	17052
910.224	16976
910.339	17140
910.454	16961
910.57	16797
910.685	16793
910.8	17052
910.915	16938
911.03	16790
911.145	16618
911.259	16679
911.374	16584
911.489	16535
911.604	16478
911.718	16386
911.833	16371
911.947	16318
912.062	16295
912.176	16443
912.291	16428
912.405	16402
912.519	16516
912.633	16626
912.748	16363
912.862	16291
912.976	16181
913.09	16173
913.204	16128
913.318	16147
913.431	16249
913.545	16295
913.659	16325
913.772	16234
913.886	15991
914	15945
914.113	16040
914.226	16128
914.34	16017
914.453	15895
914.566	16002
914.68	15800
914.793	15892
914.906	15660
915.019	15610
915.132	15477
915.245	15428
915.358	15637
915.47	15553
915.583	15526
915.696	15690
915.809	15747
915.921	15755
916.034	15591
916.146	15408
916.259	15507
916.371	15511
916.483	15412
916.595	15355
916.708	15378
916.82	15249
916.932	15298
917.044	15401
917.156	15317
917.268	15317
917.38	15195
917.491	15188
917.603	15207
917.715	15237
917.826	15279
917.938	15226
918.049	15047
918.161	15165
918.272	15329
918.384	15203
918.495	15055
918.606	14933
918.717	14861
918.828	14979
918.939	15009
919.05	14823
919.161	14826
919.272	14667
919.383	14781
919.494	14906
919.604	15081
919.715	14914
919.826	14769
919.936	14811
920.047	14990
920.157	14785
920.267	15112
920.378	14788
920.488	14796
920.598	15013
920.708	15135
920.818	14967
920.928	15032
921.038	15165
921.148	15039
921.258	14781
921.368	14651
921.477	14659
921.587	14587
921.697	14438
921.806	14503
921.916	14454
922.025	14221
922.134	14229
922.244	14206
922.353	14347
922.462	14100
922.571	14035
922.68	13852
922.789	13871
922.898	13791
923.007	13795
923.116	13902
923.224	13761
923.333	13761
923.442	13757
923.55	13685
923.659	13696
923.767	13666
923.876	13575
923.984	13700
924.092	13521
924.201	13616
924.309	13613
924.417	13506
924.525	13510
924.633	13510
924.741	14263
924.849	13285
924.956	13441
925.064	13278
925.172	13232
925.279	13236
925.387	13331
925.494	13240
925.602	13419
925.709	13240
925.816	13213
925.924	13194
926.031	13289
926.138	13187
926.245	13282
926.352	13072
926.459	13228
926.566	13289
926.673	13103
926.779	13008
926.886	13050
926.993	12924
927.099	12802
927.206	12783
927.312	12753
927.419	12779
927.525	12738
927.631	12802
927.737	12620
927.843	12563
927.95	12502
928.056	12601
928.162	12677
928.267	12662
928.373	13194
928.479	12646
928.585	12410
928.69	12513
928.796	12601
928.901	12452
929.007	12365
929.112	12490
929.218	12353
929.323	12353
929.428	12273
929.533	12445
929.638	12285
929.743	12330
929.848	12311
929.953	12277
930.058	12148
930.163	11992
930.267	12003
930.372	12136
930.477	11946
930.581	12155
930.685	12030
930.79	11756
930.894	11847
930.998	11809
931.103	12022
931.207	11596
931.311	11520
931.415	11414
931.519	11280
931.623	11235
