Data from test_V78500241_220.txt Node
Date: Fri Mar 25 15:43:19 CST 2022
User: usil
Spectrometer: V785-0024
Trigger mode: 0
Integration Time (sec): 4.000000E-1
Scans to average: 1
Nonlinearity correction enabled: false
Boxcar width: 0
Storing dark spectrum: false
XAxis mode: Wavelengths
Number of Pixels in Spectrum: 1024
>>>>>Begin Spectral Data<<<<<
801.071	28786
801.214	28869
801.356	28440
801.499	28504
801.641	28348
801.783	28455
801.926	28462
802.068	28322
802.211	28128
802.353	28196
802.496	28025
802.638	27998
802.78	28093
802.923	27964
803.065	27873
803.208	27865
803.35	27937
803.492	27987
803.635	28128
803.777	27854
803.919	28143
804.061	28500
804.204	28109
804.346	27842
804.488	27781
804.63	27888
804.773	27861
804.915	28017
805.057	28135
805.199	27964
805.341	27979
805.483	27991
805.626	28253
805.768	28029
805.91	28048
806.052	28105
806.194	27899
806.336	28382
806.478	28101
806.62	28177
806.762	28192
806.904	28386
807.046	28508
807.188	28508
807.33	28508
807.472	28649
807.614	28295
807.756	28478
807.898	28352
808.04	28223
808.182	28188
808.324	28238
808.465	28169
808.607	28550
808.749	28535
808.891	28729
809.033	28862
809.174	28656
809.316	28706
809.458	28713
809.6	28493
809.741	28717
809.883	28759
810.025	28915
810.166	28949
810.308	28774
810.45	28957
810.591	28816
810.733	28694
810.875	28683
811.016	28474
811.158	28481
811.299	28721
811.441	28790
811.582	28847
811.724	28729
811.865	28599
812.007	28557
812.148	28371
812.29	28489
812.431	28771
812.573	28839
812.714	28919
812.855	29018
812.997	29250
813.138	29216
813.279	29269
813.421	29181
813.562	29014
813.703	28991
813.845	28820
813.986	28485
814.127	28329
814.268	28257
814.41	28226
814.551	28032
814.692	28188
814.833	28051
814.974	28207
815.115	28021
815.256	27823
815.397	28048
815.539	28044
815.68	27854
815.821	27869
815.962	28006
816.103	27956
816.244	27739
816.385	27644
816.526	27819
816.666	27435
816.807	27214
816.948	27443
817.089	27507
817.23	27302
817.371	27393
817.512	27374
817.653	27317
817.793	27310
817.934	27302
818.075	27397
818.216	27344
818.356	27336
818.497	27165
818.638	26994
818.778	27039
818.919	27062
819.06	27157
819.2	27081
819.341	27131
819.481	27245
819.622	27272
819.762	27595
819.903	27488
820.043	27450
820.184	27523
820.324	27313
820.465	27401
820.605	27435
820.746	27336
820.886	27161
821.026	27222
821.167	27241
821.307	27412
821.447	27154
821.588	27131
821.728	27009
821.868	26902
822.008	26689
822.149	26712
822.289	26602
822.429	26355
822.569	26393
822.709	26294
822.849	26286
822.99	26233
823.13	26100
823.27	26008
823.41	26039
823.55	25947
823.69	26115
823.83	25932
823.97	25811
824.11	25822
824.25	25788
824.389	25731
824.529	25871
824.669	25788
824.809	25856
824.949	25765
825.089	25860
825.228	25731
825.368	25639
825.508	25567
825.648	25620
825.787	25491
825.927	25609
826.067	25635
826.206	25483
826.346	25449
826.485	25658
826.625	25472
826.765	25681
826.904	25544
827.044	25396
827.183	25354
827.323	25168
827.462	25274
827.601	25285
827.741	25065
827.88	25400
828.02	25103
828.159	25114
828.298	25343
828.437	25312
828.577	25038
828.716	25289
828.855	25110
828.994	25000
829.134	25034
829.273	25000
829.412	24848
829.551	24783
829.69	24833
829.829	24901
829.968	25004
830.107	25034
830.246	24909
830.385	24772
830.524	24688
830.663	24726
830.802	24608
830.941	24418
831.08	24483
831.219	24513
831.357	24498
831.496	24772
831.635	24414
831.774	24323
831.913	24228
832.051	24308
832.19	24163
832.329	24262
832.467	24121
832.606	24152
832.744	24068
832.883	24228
833.022	24110
833.16	24148
833.299	24171
833.437	24129
833.576	24163
833.714	24144
833.852	24194
833.991	24224
834.129	24152
834.267	24163
834.406	24102
834.544	24152
834.682	24034
834.821	24136
834.959	24224
835.097	23996
835.235	24171
835.373	24117
835.511	24114
835.65	23961
835.788	23996
835.926	23836
836.064	23767
836.202	23878
836.34	23980
836.478	23996
836.615	23855
836.753	23965
836.891	24155
837.029	24018
837.167	23809
837.305	23999
837.443	23855
837.58	23672
837.718	23859
837.856	23889
837.993	23821
838.131	23832
838.269	23748
838.406	23630
838.544	23619
838.681	23356
838.819	23356
838.956	23200
839.094	23159
839.231	23166
839.369	23459
839.506	23642
839.643	23467
839.781	23250
839.918	23223
840.055	23124
840.193	23155
840.33	23060
840.467	23136
840.604	23178
840.742	23459
840.879	22980
841.016	22972
841.153	22919
841.29	23147
841.427	23037
841.564	23166
841.701	23022
841.838	23071
841.975	22889
842.112	23010
842.249	22953
842.385	22809
842.522	22953
842.659	22805
842.796	22831
842.933	22733
843.069	22679
843.206	22713
843.343	22831
843.479	22805
843.616	22687
843.752	22607
843.889	22554
844.025	22580
844.162	22542
844.298	22637
844.435	22394
844.571	22390
844.708	22538
844.844	22679
844.98	22561
845.117	22474
845.253	22413
845.389	22306
845.525	22474
845.661	22436
845.798	22196
845.934	22287
846.07	22234
846.206	22291
846.342	22428
846.478	22200
846.614	21972
846.75	21808
846.886	22017
847.022	21930
847.158	21979
847.294	21857
847.429	21930
847.565	21850
847.701	22211
847.837	21679
847.972	21717
848.108	21690
848.244	21785
848.379	21561
848.515	21492
848.65	21534
848.786	21431
848.921	21515
849.057	21595
849.192	21568
849.328	21481
849.463	21545
849.598	21564
849.734	21386
849.869	21393
850.004	21184
850.14	21317
850.275	21272
850.41	21207
850.545	21237
850.68	21150
850.815	21313
850.95	21161
851.085	21443
851.22	21332
851.355	21222
851.49	21249
851.625	21195
851.76	21077
851.895	21058
852.03	21207
852.165	21245
852.299	21268
852.434	21344
852.569	21154
852.703	21245
852.838	21321
852.973	21313
853.107	21332
853.242	21108
853.376	21093
853.511	20921
853.645	20944
853.78	21131
853.914	21176
854.048	21043
854.183	21017
854.317	21100
854.451	21294
854.585	21100
854.72	21123
854.854	21058
854.988	21047
855.122	21047
855.256	20788
855.39	21077
855.524	21108
855.658	21142
855.792	21024
855.926	20948
856.06	21074
856.194	21150
856.327	21074
856.461	21009
856.595	20998
856.729	21032
856.862	21077
856.996	20887
857.13	21043
857.263	21138
857.397	21108
857.53	21028
857.664	21085
857.797	21119
857.931	21116
858.064	21039
858.197	21116
858.331	20994
858.464	20891
858.597	20975
858.731	20982
858.864	20948
858.997	20910
859.13	20895
859.263	21058
859.396	21142
859.529	20929
859.662	20853
859.795	21055
859.928	21070
860.061	21138
860.194	21116
860.327	21077
860.46	21051
860.592	21074
860.725	21180
860.858	21085
860.99	21058
861.123	20785
861.256	20910
861.388	20956
861.521	21568
861.653	20804
861.786	20796
861.918	20834
862.05	21009
862.183	20952
862.315	21043
862.447	21001
862.58	21051
862.712	20701
862.844	20640
862.976	20727
863.108	20807
863.24	20975
863.372	20724
863.504	20773
863.636	20644
863.768	20708
863.9	20651
864.032	20594
864.164	20480
864.296	20575
864.428	20811
864.559	20693
864.691	20743
864.823	20648
864.954	20549
865.086	20667
865.217	20545
865.349	20461
865.48	20625
865.612	20549
865.743	20568
865.875	20621
866.006	20594
866.137	20571
866.269	20594
866.4	20530
866.531	20549
866.662	20537
866.793	20473
866.924	20571
867.055	20488
867.186	20518
867.317	20385
867.448	20507
867.579	20465
867.71	20537
867.841	20362
867.972	20568
868.103	20370
868.233	20484
868.364	20442
868.495	20602
868.625	20636
868.756	20826
868.886	20762
869.017	20705
869.147	20861
869.278	20826
869.408	20739
869.539	20724
869.669	20929
869.799	20701
869.929	20891
870.06	20750
870.19	21135
870.32	21066
870.45	21055
870.58	21173
870.71	21283
870.84	21306
870.97	21104
871.1	21028
871.23	21310
871.36	21245
871.489	21116
871.619	21237
871.749	21386
871.879	21359
872.008	21420
872.138	21420
872.267	21287
872.397	21192
872.526	21180
872.656	21173
872.785	21154
872.915	21313
873.044	21424
873.173	21195
873.303	21416
873.432	21306
873.561	21447
873.69	21424
873.819	21298
873.948	21561
874.077	21431
874.206	21344
874.335	21416
874.464	21405
874.593	21599
874.722	21481
874.851	21690
874.979	21538
875.108	21564
875.237	21580
875.365	21443
875.494	21458
875.623	21751
875.751	21515
875.88	21595
876.008	21736
876.136	21755
876.265	22067
876.393	22112
876.521	22086
876.65	22002
876.778	22059
876.906	21934
877.034	21873
877.162	22063
877.29	21911
877.418	21926
877.546	21865
877.674	22017
877.802	21937
877.93	21888
878.058	21930
878.185	21854
878.313	21827
878.441	21964
878.568	21808
878.696	21812
878.824	21953
878.951	22158
879.079	22093
879.206	22348
879.333	22143
879.461	22131
879.588	22105
879.715	22078
879.842	22147
879.97	22070
880.097	21652
880.224	21652
880.351	21797
880.478	21694
880.605	21728
880.732	21800
880.859	21983
880.986	21770
881.112	21816
881.239	21675
881.366	21458
881.493	21469
881.619	21428
881.746	21340
881.872	21325
881.999	21435
882.125	21378
882.252	21511
882.378	21226
882.505	21511
882.631	21241
882.757	21154
882.883	21256
883.01	21005
883.136	21020
883.262	20998
883.388	21009
883.514	21131
883.64	21188
883.766	20921
883.892	20921
884.018	20906
884.143	21043
884.269	21184
884.395	20735
884.52	20659
884.646	20651
884.772	20693
884.897	20571
885.023	20724
885.148	20754
885.274	20811
885.399	20845
885.524	20781
885.65	20739
885.775	20693
885.9	20606
886.025	20792
886.15	20746
886.275	20587
886.4	20495
886.525	20613
886.65	20632
886.775	20644
886.9	20750
887.025	20864
887.149	20674
887.274	20450
887.399	20514
887.523	20503
887.648	20347
887.773	20393
887.897	20473
888.021	20484
888.146	20499
888.27	20492
888.395	20495
888.519	20461
888.643	20396
888.767	20488
888.891	20389
889.015	20271
889.139	20370
889.263	20336
889.387	20271
889.511	20541
889.635	20476
889.759	20282
889.883	20259
890.006	20237
890.13	20313
890.254	20119
890.377	20172
890.501	19967
890.624	20069
890.748	20195
890.871	19921
890.995	19856
891.118	19811
891.241	19784
891.364	19807
891.488	19970
891.611	19875
891.734	19917
891.857	19856
891.98	19906
892.103	19864
892.226	19959
892.349	19769
892.471	19666
892.594	19757
892.717	19803
892.839	19719
892.962	19780
893.085	19784
893.207	19803
893.33	19571
893.452	19677
893.575	19803
893.697	19696
893.819	19890
893.941	19864
894.064	19852
894.186	19613
894.308	19616
894.43	19898
894.552	19974
894.674	19906
894.796	19632
894.918	19734
895.04	19712
895.161	19845
895.283	19913
895.405	19772
895.526	19868
895.648	19826
895.769	19811
895.891	19826
896.012	19906
896.134	19871
896.255	19833
896.376	19750
896.498	19761
896.619	19860
896.74	19906
896.861	19955
896.982	20237
897.103	20298
897.224	20259
897.345	20092
897.466	19986
897.587	20024
897.708	20130
897.828	20043
897.949	19947
898.07	19864
898.19	19925
898.311	20134
898.431	20039
898.552	20050
898.672	20187
898.792	20050
898.913	19997
899.033	19894
899.153	19826
899.273	19658
899.393	19693
899.513	19753
899.633	19689
899.753	19624
899.873	19723
899.993	19677
900.113	19681
900.232	19700
900.352	19753
900.472	19594
900.591	19457
900.711	19407
900.83	19502
900.95	19616
901.069	19575
901.189	19460
901.308	19190
901.427	19053
901.546	19198
901.665	19141
901.784	19202
901.904	18981
902.023	18924
902.141	18726
902.26	18639
902.379	18661
902.498	18639
902.617	18464
902.735	18719
902.854	18544
902.973	18566
903.091	18342
903.21	18182
903.328	18277
903.446	18163
903.565	17999
903.683	18125
903.801	18011
903.919	18060
904.038	18102
904.156	17859
904.274	17901
904.392	17897
904.51	17817
904.627	17847
904.745	17855
904.863	17870
904.981	17680
905.098	17516
905.216	17474
905.334	17532
905.451	17551
905.569	17554
905.686	17524
905.803	17436
905.921	17368
906.038	17452
906.155	17334
906.272	17242
906.389	17151
906.506	16991
906.623	17033
906.74	16999
906.857	16927
906.974	16972
907.091	17037
907.208	17242
907.324	17083
907.441	17025
907.557	16710
907.674	16771
907.79	16645
907.907	16653
908.023	16725
908.139	16729
908.256	16725
908.372	16535
908.488	16622
908.604	16508
908.72	16337
908.836	16436
908.952	16470
909.068	16554
909.184	16580
909.3	16474
909.415	16417
909.531	16470
909.647	16192
909.762	16192
909.878	16166
909.993	16185
910.108	16139
910.224	16051
910.339	16071
910.454	15930
910.57	15983
910.685	15956
910.8	16124
910.915	16040
911.03	15930
911.145	15679
911.259	15739
911.374	15667
911.489	15663
911.604	15561
911.718	15466
911.833	15542
911.947	15454
912.062	15401
912.176	15477
912.291	15454
912.405	15492
912.519	15766
912.633	15717
912.748	15424
912.862	15416
912.976	15211
913.09	15116
913.204	15165
913.318	15195
913.431	15386
913.545	15313
913.659	15329
913.772	15264
913.886	15127
914	15131
914.113	15184
914.226	15252
914.34	15157
914.453	14891
914.566	15097
914.68	14956
914.793	14891
914.906	14777
915.019	14670
915.132	14781
915.245	14636
915.358	14754
915.47	14674
915.583	14739
915.696	14792
915.809	14845
915.921	14857
916.034	14644
916.146	14575
916.259	14602
916.371	14651
916.483	14716
916.595	14488
916.708	14568
916.82	14610
916.932	14476
917.044	14484
917.156	14374
917.268	14366
917.38	14431
917.491	14328
917.603	14412
917.715	14503
917.826	14461
917.938	14320
918.049	14206
918.161	14374
918.272	14503
918.384	14457
918.495	14229
918.606	14153
918.717	14157
918.828	14202
918.939	14107
919.05	13978
919.161	14092
919.272	13909
919.383	13940
919.494	14202
919.604	14275
919.715	14130
919.826	14024
919.936	13967
920.047	14103
920.157	14107
920.267	14248
920.378	14088
920.488	13970
920.598	14294
920.708	14320
920.818	14221
920.928	14172
921.038	14282
921.148	14199
921.258	14046
921.368	13986
921.477	13845
921.587	13738
921.697	13632
921.806	13746
921.916	13677
922.025	13449
922.134	13483
922.244	13422
922.353	13449
922.462	13320
922.571	13289
922.68	13149
922.789	13118
922.898	13133
923.007	13053
923.116	13088
923.224	13065
923.333	13027
923.442	12993
923.55	12863
923.659	12954
923.767	12932
923.876	12867
923.984	12966
924.092	12878
924.201	12776
924.309	12833
924.417	12871
924.525	12734
924.633	12886
924.741	13609
924.849	12513
924.956	12662
925.064	12578
925.172	12517
925.279	12422
925.387	12563
925.494	12498
925.602	12730
925.709	12585
925.816	12388
925.924	12490
926.031	12608
926.138	12521
926.245	12532
926.352	12388
926.459	12486
926.566	12582
926.673	12380
926.779	12281
926.886	12266
926.993	12140
927.099	12110
927.206	12076
927.312	12129
927.419	12110
927.525	12076
927.631	12133
927.737	12003
927.843	11942
927.95	11840
928.056	11912
928.162	11969
928.267	11916
928.373	12684
928.479	12117
928.585	11760
928.69	11855
928.796	11828
928.901	11748
929.007	11653
929.112	11847
929.218	11741
929.323	11733
929.428	11627
929.533	11817
929.638	11676
929.743	11691
929.848	11642
929.953	11653
930.058	11455
930.163	11334
930.267	11326
930.372	11486
930.477	11258
930.581	11562
930.685	11341
930.79	11223
930.894	11235
930.998	11204
931.103	11398
931.207	10984
931.311	10847
931.415	10843
931.519	10607
931.623	10611
