Data from test_V78500241_2353.txt Node
Date: Fri Mar 25 15:58:06 CST 2022
User: usil
Spectrometer: V785-0024
Trigger mode: 0
Integration Time (sec): 4.000000E-1
Scans to average: 1
Nonlinearity correction enabled: false
Boxcar width: 0
Storing dark spectrum: false
XAxis mode: Wavelengths
Number of Pixels in Spectrum: 1024
>>>>>Begin Spectral Data<<<<<
801.071	28725
801.214	28774
801.356	28542
801.499	28394
801.641	28493
801.783	28527
801.926	28436
802.068	28417
802.211	28314
802.353	28272
802.496	28135
802.638	28105
802.78	28116
802.923	28128
803.065	28059
803.208	28120
803.35	28169
803.492	28310
803.635	28329
803.777	28200
803.919	28382
804.061	28649
804.204	28306
804.346	28265
804.488	28192
804.63	28360
804.773	28200
804.915	28390
805.057	28527
805.199	28398
805.341	28424
805.483	28497
805.626	28516
805.768	28413
805.91	28424
806.052	28516
806.194	28276
806.336	28752
806.478	28542
806.62	28596
806.762	28618
806.904	28717
807.046	28946
807.188	28892
807.33	28976
807.472	29113
807.614	28831
807.756	28835
807.898	28748
808.04	28721
808.182	28793
808.324	28854
808.465	28786
808.607	29128
808.749	29075
808.891	29261
809.033	29303
809.174	29124
809.316	29124
809.458	29200
809.6	29216
809.741	29280
809.883	29391
810.025	29501
810.166	29524
810.308	29672
810.45	29417
810.591	29486
810.733	29113
810.875	29235
811.016	29159
811.158	29102
811.299	29235
811.441	29334
811.582	29326
811.724	29170
811.865	29128
812.007	29197
812.148	29303
812.29	29242
812.431	29341
812.573	29615
812.714	29543
812.855	29764
812.997	29752
813.138	29866
813.279	29889
813.421	29760
813.562	29684
813.703	29497
813.845	29562
813.986	29121
814.127	29178
814.268	29052
814.41	28908
814.551	28896
814.692	29079
814.833	28888
814.974	28835
815.115	28949
815.256	28831
815.397	28786
815.539	28854
815.68	28778
815.821	28550
815.962	28660
816.103	28725
816.244	28565
816.385	28455
816.526	28527
816.666	28322
816.807	28314
816.948	28310
817.089	28401
817.23	28177
817.371	28382
817.512	28265
817.653	28421
817.793	28124
817.934	28086
818.075	28291
818.216	28211
818.356	28109
818.497	28097
818.638	27960
818.778	27949
818.919	27930
819.06	28055
819.2	28135
819.341	28314
819.481	28306
819.622	28466
819.762	28569
819.903	28569
820.043	28455
820.184	28333
820.324	28409
820.465	28459
820.605	28542
820.746	28356
820.886	28295
821.026	28409
821.167	28398
821.307	28577
821.447	28192
821.588	28177
821.728	28097
821.868	27945
822.008	27884
822.149	27895
822.289	27557
822.429	27504
822.569	27370
822.709	27481
822.849	27218
822.99	27336
823.13	27336
823.27	27184
823.41	26990
823.55	26960
823.69	27100
823.83	26986
823.97	27051
824.11	26918
824.25	26906
824.389	26891
824.529	26891
824.669	26826
824.809	27127
824.949	26929
825.089	26906
825.228	27043
825.368	26796
825.508	26845
825.648	26830
825.787	26804
825.927	26781
826.067	26739
826.206	26644
826.346	26948
826.485	26792
826.625	26716
826.765	26998
826.904	26785
827.044	26590
827.183	26560
827.323	26594
827.462	26545
827.601	26431
827.741	26476
827.88	26526
828.02	26259
828.159	26415
828.298	26473
828.437	26606
828.577	26514
828.716	26530
828.855	26358
828.994	26073
829.134	26153
829.273	26183
829.412	26317
829.551	26191
829.69	26191
829.829	26195
829.968	26199
830.107	26320
830.246	26195
830.385	26134
830.524	26062
830.663	26035
830.802	25830
830.941	25856
831.08	25670
831.219	26016
831.357	25951
831.496	26031
831.635	25845
831.774	25715
831.913	25670
832.051	25586
832.19	25537
832.329	25639
832.467	25556
832.606	25457
832.744	25354
832.883	25445
833.022	25415
833.16	25506
833.299	25594
833.437	25430
833.576	25544
833.714	25472
833.852	25495
833.991	25597
834.129	25582
834.267	25464
834.406	25472
834.544	25548
834.682	25643
834.821	25403
834.959	25670
835.097	25400
835.235	25609
835.373	25601
835.511	25472
835.65	25343
835.788	25434
835.926	25217
836.064	25084
836.202	25171
836.34	25240
836.478	25392
836.615	25259
836.753	25377
836.891	25499
837.029	25221
837.167	25297
837.305	25198
837.443	25148
837.58	25183
837.718	25221
837.856	25316
837.993	25065
838.131	25240
838.269	25061
838.406	25183
838.544	25095
838.681	24814
838.819	24722
838.956	24642
839.094	24673
839.231	24730
839.369	24863
839.506	25012
839.643	24833
839.781	24585
839.918	24403
840.055	24555
840.193	24563
840.33	24467
840.467	24528
840.604	24627
840.742	24833
840.879	24437
841.016	24452
841.153	24456
841.29	24559
841.427	24407
841.564	24475
841.701	24433
841.838	24441
841.975	24509
842.112	24494
842.249	24346
842.385	24251
842.522	24494
842.659	24273
842.796	24315
842.933	24281
843.069	24330
843.206	24159
843.343	24399
843.479	24289
843.616	24270
843.752	24102
843.889	24053
844.025	24174
844.162	24098
844.298	24167
844.435	24015
844.571	24007
844.708	24091
844.844	24311
844.98	24129
845.117	24133
845.253	23942
845.389	23855
845.525	23916
845.661	23855
845.798	23809
845.934	23885
846.07	23649
846.206	23851
846.342	23893
846.478	23672
846.614	23524
846.75	23478
846.886	23471
847.022	23592
847.158	23543
847.294	23562
847.429	23570
847.565	23505
847.701	23821
847.837	23151
847.972	23337
848.108	23368
848.244	23216
848.379	23033
848.515	23094
848.65	23075
848.786	23189
848.921	23060
849.057	23307
849.192	23254
849.328	23128
849.463	23185
849.598	22965
849.734	22942
849.869	22949
850.004	22927
850.14	22949
850.275	22965
850.41	22786
850.545	22908
850.68	22835
850.815	22869
850.95	22923
851.085	22984
851.22	23018
851.355	22843
851.49	22790
851.625	22812
851.76	22847
851.895	22831
852.03	22675
852.165	22816
852.299	22812
852.434	22976
852.569	22835
852.703	22816
852.838	22778
852.973	22942
853.107	22873
853.242	22835
853.376	22691
853.511	22565
853.645	22713
853.78	22744
853.914	22736
854.048	22706
854.183	22599
854.317	22759
854.451	22927
854.585	22725
854.72	22630
854.854	22687
854.988	22584
855.122	22793
855.256	22508
855.39	22599
855.524	22717
855.658	22687
855.792	22653
855.926	22729
856.06	22725
856.194	22854
856.327	22679
856.461	22538
856.595	22634
856.729	22622
856.862	22793
856.996	22790
857.13	22748
857.263	22755
857.397	22675
857.53	22679
857.664	22748
857.797	22755
857.931	22831
858.064	22645
858.197	22820
858.331	22759
858.464	22599
858.597	22512
858.731	22588
858.864	22615
858.997	22565
859.13	22687
859.263	22717
859.396	22793
859.529	22744
859.662	22664
859.795	22580
859.928	22660
860.061	22793
860.194	22904
860.327	22736
860.46	22588
860.592	22801
860.725	22839
860.858	22767
860.99	22603
861.123	22702
861.256	22538
861.388	22691
861.521	23452
861.653	22519
861.786	22428
861.918	22428
862.05	22592
862.183	22596
862.315	22679
862.447	22786
862.58	22569
862.712	22523
862.844	22363
862.976	22489
863.108	22523
863.24	22972
863.372	22287
863.504	22367
863.636	22363
863.768	22478
863.9	22466
864.032	22352
864.164	22352
864.296	22459
864.428	22379
864.559	22417
864.691	22580
864.823	22519
864.954	22478
865.086	22367
865.217	22348
865.349	22223
865.48	22158
865.612	22413
865.743	22394
865.875	22367
866.006	22173
866.137	22196
866.269	22261
866.4	22246
866.531	22166
866.662	22074
866.793	22124
866.924	22242
867.055	22246
867.186	22325
867.317	22150
867.448	22124
867.579	22090
867.71	22017
867.841	22147
867.972	22154
868.103	22284
868.233	22093
868.364	22299
868.495	22432
868.625	22599
868.756	22504
868.886	22382
869.017	22337
869.147	22523
869.278	22500
869.408	22421
869.539	22462
869.669	22462
869.799	22432
869.929	22607
870.06	22588
870.19	22660
870.32	22759
870.45	22805
870.58	22805
870.71	23014
870.84	22923
870.97	22805
871.1	22839
871.23	22961
871.36	23075
871.489	22873
871.619	23056
871.749	22995
871.879	23155
872.008	23124
872.138	23098
872.267	23010
872.397	22987
872.526	22934
872.656	22824
872.785	22858
872.915	23079
873.044	23174
873.173	23090
873.303	23147
873.432	23178
873.561	23147
873.69	23098
873.819	23151
873.948	23178
874.077	23022
874.206	23003
874.335	23010
874.464	23151
874.593	23265
874.722	23239
874.851	23265
874.979	23334
875.108	23216
875.237	23109
875.365	23170
875.494	23315
875.623	23303
875.751	23204
875.88	23197
876.008	23387
876.136	23531
876.265	23687
876.393	23627
876.521	23684
876.65	23805
876.778	23528
876.906	23493
877.034	23646
877.162	23547
877.29	23512
877.418	23562
877.546	23649
877.674	23619
877.802	23520
877.93	23551
878.058	23452
878.185	23459
878.313	23535
878.441	23619
878.568	23444
878.696	23493
878.824	23657
878.951	23615
879.079	23741
879.206	23802
879.333	23760
879.461	23562
879.588	23745
879.715	23649
879.842	23828
879.97	23653
880.097	23493
880.224	23311
880.351	23455
880.478	23433
880.605	23387
880.732	23421
880.859	23684
880.986	23505
881.112	23402
881.239	23227
881.366	23151
881.493	23178
881.619	22904
881.746	22991
881.872	23037
881.999	22873
882.125	22843
882.252	22896
882.378	23033
882.505	22995
882.631	22736
882.757	22763
882.883	22831
883.01	22538
883.136	22470
883.262	22466
883.388	22421
883.514	22656
883.64	22683
883.766	22618
883.892	22413
884.018	22470
884.143	22497
884.269	22706
884.395	22367
884.52	22272
884.646	22291
884.772	22188
884.897	22150
885.023	22295
885.148	22329
885.274	22417
885.399	22413
885.524	22246
885.65	22215
885.775	22287
885.9	22223
886.025	22398
886.15	22329
886.275	22287
886.4	22135
886.525	22276
886.65	22249
886.775	22082
886.9	22367
887.025	22413
887.149	22093
887.274	22188
887.399	22010
887.523	22055
887.648	21953
887.773	21812
887.897	22109
888.021	22070
888.146	21994
888.27	22010
888.395	22051
888.519	22025
888.643	21994
888.767	22006
888.891	21922
889.015	21682
889.139	21865
889.263	21785
889.387	21865
889.511	21983
889.635	21979
889.759	21903
889.883	21603
890.006	21865
890.13	21972
890.254	21739
890.377	21724
890.501	21610
890.624	21519
890.748	21690
890.871	21496
890.995	21420
891.118	21439
891.241	21408
891.364	21492
891.488	21580
891.611	21336
891.734	21382
891.857	21424
891.98	21256
892.103	21294
892.226	21382
892.349	21416
892.471	21249
892.594	21245
892.717	21386
892.839	21230
892.962	21245
893.085	21306
893.207	21233
893.33	21062
893.452	21123
893.575	21310
893.697	21226
893.819	21393
893.941	21294
894.064	21340
894.186	21252
894.308	21222
894.43	21469
894.552	21424
894.674	21317
894.796	21161
894.918	21214
895.04	21138
895.161	21252
895.283	21222
895.405	21150
895.526	21233
895.648	21211
895.769	21272
895.891	21249
896.012	21077
896.134	21317
896.255	21150
896.376	21123
896.498	21214
896.619	21108
896.74	21150
896.861	21233
896.982	21386
897.103	21713
897.224	21420
897.345	21370
897.466	21340
897.587	21447
897.708	21485
897.828	21336
897.949	21382
898.07	21287
898.19	21378
898.311	21435
898.431	21408
898.552	21439
898.672	21336
898.792	21496
898.913	21431
899.033	21272
899.153	21195
899.273	21112
899.393	21066
899.513	21260
899.633	21112
899.753	21195
899.873	21039
899.993	21131
900.113	21119
900.232	21116
900.352	20971
900.472	20948
900.591	20910
900.711	20883
900.83	20872
900.95	21017
901.069	20941
901.189	20880
901.308	20606
901.427	20419
901.546	20514
901.665	20469
901.784	20552
901.904	20415
902.023	20195
902.141	20027
902.26	20043
902.379	20172
902.498	19913
902.617	19978
902.735	20005
902.854	19974
902.973	19887
903.091	19670
903.21	19563
903.328	19635
903.446	19632
903.565	19441
903.683	19464
903.801	19297
903.919	19373
904.038	19350
904.156	19194
904.274	19164
904.392	19187
904.51	19228
904.627	19213
904.745	19213
904.863	19240
904.981	19061
905.098	18878
905.216	18947
905.334	18977
905.451	18962
905.569	18753
905.686	18871
905.803	18954
905.921	18692
906.038	18745
906.155	18673
906.272	18464
906.389	18547
906.506	18388
906.623	18369
906.74	18429
906.857	18243
906.974	18281
907.091	18509
907.208	18528
907.324	18391
907.441	18228
907.557	18232
907.674	18114
907.79	18102
907.907	18057
908.023	18152
908.139	17992
908.256	18034
908.372	17988
908.488	17996
908.604	17904
908.72	17813
908.836	17733
908.952	17783
909.068	17828
909.184	17904
909.3	17805
909.415	17821
909.531	17775
909.647	17467
909.762	17493
909.878	17372
909.993	17463
910.108	17444
910.224	17459
910.339	17486
910.454	17387
910.57	17315
910.685	17208
910.8	17573
910.915	17448
911.03	17288
911.145	17143
911.259	17086
911.374	17067
911.489	17014
911.604	16980
911.718	16801
911.833	16786
911.947	16656
912.062	16649
912.176	16866
912.291	16831
912.405	16828
912.519	17090
912.633	16965
912.748	16797
912.862	16786
912.976	16580
913.09	16394
913.204	16634
913.318	16653
913.431	16679
913.545	16725
913.659	16622
913.772	16588
913.886	16497
914	16428
914.113	16565
914.226	16451
914.34	16409
914.453	16371
914.566	16478
914.68	16223
914.793	16242
914.906	16010
915.019	16036
915.132	15922
915.245	15869
915.358	15953
915.47	15987
915.583	15934
915.696	15987
915.809	16010
915.921	16078
916.034	15876
916.146	15911
916.259	15846
916.371	15880
916.483	15835
916.595	15835
916.708	15743
916.82	15816
916.932	15675
917.044	15717
917.156	15637
917.268	15603
917.38	15701
917.491	15568
917.603	15557
917.715	15660
917.826	15595
917.938	15622
918.049	15458
918.161	15477
918.272	15534
918.384	15660
918.495	15549
918.606	15412
918.717	15207
918.828	15386
918.939	15363
919.05	15214
919.161	15382
919.272	15093
919.383	15207
919.494	15272
919.604	15549
919.715	15298
919.826	15233
919.936	15279
920.047	15325
920.157	15310
920.267	15439
920.378	15287
920.488	15332
920.598	15428
920.708	15561
920.818	15462
920.928	15473
921.038	15587
921.148	15549
921.258	15176
921.368	15154
921.477	15005
921.587	15039
921.697	14887
921.806	15032
921.916	14838
922.025	14667
922.134	14659
922.244	14602
922.353	14720
922.462	14606
922.571	14488
922.68	14332
922.789	14301
922.898	14313
923.007	14229
923.116	14351
923.224	14172
923.333	14237
923.442	14092
923.55	14020
923.659	14176
923.767	14142
923.876	14027
923.984	14062
924.092	13963
924.201	14058
924.309	13986
924.417	13932
924.525	13925
924.633	13925
924.741	14925
924.849	13696
924.956	13947
925.064	13658
925.172	13605
925.279	13616
925.387	13674
925.494	13658
925.602	13811
925.709	13696
925.816	13529
925.924	13586
926.031	13681
926.138	13578
926.245	13693
926.352	13586
926.459	13662
926.566	13643
926.673	13426
926.779	13373
926.886	13327
926.993	13343
927.099	13187
927.206	13251
927.312	13122
927.419	13228
927.525	13206
927.631	13156
927.737	13088
927.843	12939
927.95	12928
928.056	12928
928.162	13012
928.267	12989
928.373	13704
928.479	13065
928.585	12844
928.69	12920
928.796	13004
928.901	12905
929.007	12700
929.112	12909
929.218	12764
929.323	12757
929.428	12703
929.533	12837
929.638	12654
929.743	12688
929.848	12703
929.953	12597
930.058	12559
930.163	12369
930.267	12486
930.372	12532
930.477	12384
930.581	12532
930.685	12350
930.79	12243
930.894	12270
930.998	12277
931.103	12319
931.207	11984
931.311	11939
931.415	11866
931.519	11646
931.623	11657
