Data from test_V78500241_3518.txt Node
Date: Fri Mar 25 16:06:10 CST 2022
User: usil
Spectrometer: V785-0024
Trigger mode: 0
Integration Time (sec): 4.000000E-1
Scans to average: 1
Nonlinearity correction enabled: false
Boxcar width: 0
Storing dark spectrum: false
XAxis mode: Wavelengths
Number of Pixels in Spectrum: 1024
>>>>>Begin Spectral Data<<<<<
801.071	28675
801.214	28721
801.356	28344
801.499	28382
801.641	28226
801.783	28295
801.926	28306
802.068	28341
802.211	28211
802.353	28162
802.496	27972
802.638	28070
802.78	28040
802.923	27907
803.065	27960
803.208	28021
803.35	28029
803.492	28112
803.635	28143
803.777	28109
803.919	28181
804.061	28634
804.204	28215
804.346	28223
804.488	28192
804.63	28230
804.773	28230
804.915	28295
805.057	28394
805.199	28280
805.341	28230
805.483	28398
805.626	28455
805.768	28257
805.91	28516
806.052	28519
806.194	28299
806.336	28508
806.478	28386
806.62	28398
806.762	28527
806.904	28771
807.046	28972
807.188	28869
807.33	28828
807.472	29083
807.614	28740
807.756	28835
807.898	28759
808.04	28733
808.182	28687
808.324	28774
808.465	28740
808.607	28946
808.749	29216
808.891	29288
809.033	29284
809.174	29151
809.316	29052
809.458	29029
809.6	29006
809.741	29140
809.883	29307
810.025	29497
810.166	29307
810.308	29467
810.45	29379
810.591	29406
810.733	29128
810.875	29128
811.016	29094
811.158	29105
811.299	29242
811.441	29303
811.582	29140
811.724	29117
811.865	28995
812.007	29105
812.148	29174
812.29	29128
812.431	29315
812.573	29421
812.714	29505
812.855	29589
812.997	29805
813.138	29802
813.279	29672
813.421	29589
813.562	29570
813.703	29524
813.845	29448
813.986	29147
814.127	29060
814.268	28736
814.41	28816
814.551	28991
814.692	28961
814.833	28850
814.974	28824
815.115	28824
815.256	28611
815.397	28706
815.539	28649
815.68	28763
815.821	28653
815.962	28679
816.103	28611
816.244	28428
816.385	28428
816.526	28417
816.666	28169
816.807	28166
816.948	28268
817.089	28238
817.23	28215
817.371	28223
817.512	28196
817.653	28188
817.793	28002
817.934	28249
818.075	28135
818.216	28109
818.356	28150
818.497	27968
818.638	27895
818.778	27937
818.919	27770
819.06	27827
819.2	28021
819.341	28150
819.481	28154
819.622	28303
819.762	28478
819.903	28344
820.043	28287
820.184	28280
820.324	28246
820.465	28253
820.605	28329
820.746	28196
820.886	28246
821.026	28219
821.167	28162
821.307	28238
821.447	28029
821.588	28139
821.728	28017
821.868	27816
822.008	27656
822.149	27682
822.289	27549
822.429	27332
822.569	27302
822.709	27245
822.849	27291
822.99	27203
823.13	27062
823.27	27055
823.41	26998
823.55	26902
823.69	26914
823.83	26979
823.97	26842
824.11	26849
824.25	26659
824.389	26735
824.529	26914
824.669	26678
824.809	27039
824.949	26933
825.089	26937
825.228	26765
825.368	26697
825.508	26815
825.648	26705
825.787	26758
825.927	26750
826.067	26556
826.206	26541
826.346	26857
826.485	26826
826.625	26739
826.765	26823
826.904	26686
827.044	26575
827.183	26511
827.323	26290
827.462	26545
827.601	26419
827.741	26233
827.88	26317
828.02	26358
828.159	26457
828.298	26427
828.437	26434
828.577	26332
828.716	26533
828.855	26412
828.994	26043
829.134	26039
829.273	26122
829.412	25966
829.551	26065
829.69	25989
829.829	26126
829.968	26122
830.107	26126
830.246	26187
830.385	26073
830.524	25921
830.663	25902
830.802	25765
830.941	25750
831.08	25647
831.219	25769
831.357	25624
831.496	26054
831.635	25662
831.774	25533
831.913	25605
832.051	25422
832.19	25582
832.329	25434
832.467	25392
832.606	25297
832.744	25259
832.883	25301
833.022	25335
833.16	25468
833.299	25445
833.437	25453
833.576	25468
833.714	25403
833.852	25419
833.991	25639
834.129	25582
834.267	25510
834.406	25434
834.544	25460
834.682	25419
834.821	25502
834.959	25510
835.097	25388
835.235	25479
835.373	25293
835.511	25453
835.65	25206
835.788	25381
835.926	25339
836.064	25122
836.202	25202
836.34	25236
836.478	25270
836.615	25244
836.753	25183
836.891	25343
837.029	25148
837.167	25072
837.305	25095
837.443	25065
837.58	25141
837.718	25183
837.856	25175
837.993	25061
838.131	25168
838.269	25008
838.406	24932
838.544	24996
838.681	24719
838.819	24787
838.956	24597
839.094	24555
839.231	24486
839.369	24745
839.506	24996
839.643	24749
839.781	24544
839.918	24467
840.055	24513
840.193	24612
840.33	24483
840.467	24525
840.604	24467
840.742	24726
840.879	24346
841.016	24410
841.153	24338
841.29	24540
841.427	24517
841.564	24536
841.701	24437
841.838	24521
841.975	24342
842.112	24277
842.249	24209
842.385	24243
842.522	24471
842.659	24254
842.796	24243
842.933	24350
843.069	24163
843.206	24155
843.343	24213
843.479	24369
843.616	24243
843.752	24068
843.889	24045
844.025	24076
844.162	23996
844.298	24076
844.435	23950
844.571	23874
844.708	23916
844.844	24053
844.98	23988
845.117	24114
845.253	24018
845.389	23870
845.525	23745
845.661	23798
845.798	23729
845.934	23840
846.07	23775
846.206	23794
846.342	23790
846.478	23676
846.614	23501
846.75	23482
846.886	23311
847.022	23570
847.158	23433
847.294	23433
847.429	23570
847.565	23292
847.701	23657
847.837	23227
847.972	23140
848.108	23223
848.244	23208
848.379	23136
848.515	23052
848.65	23022
848.786	22854
848.921	23071
849.057	23162
849.192	23025
849.328	22976
849.463	22999
849.598	22957
849.734	22949
849.869	22976
850.004	22706
850.14	22839
850.275	22816
850.41	22828
850.545	22809
850.68	22759
850.815	22755
850.95	22710
851.085	22911
851.22	22843
851.355	22801
851.49	22862
851.625	22637
851.76	22767
851.895	22668
852.03	22771
852.165	22721
852.299	22763
852.434	22835
852.569	22774
852.703	22767
852.838	22885
852.973	22942
853.107	22759
853.242	22729
853.376	22577
853.511	22516
853.645	22577
853.78	22702
853.914	22588
854.048	22634
854.183	22580
854.317	22634
854.451	22919
854.585	22554
854.72	22630
854.854	22653
854.988	22550
855.122	22634
855.256	22634
855.39	22603
855.524	22656
855.658	22668
855.792	22573
855.926	22668
856.06	22603
856.194	22645
856.327	22649
856.461	22577
856.595	22656
856.729	22519
856.862	22668
856.996	22592
857.13	22637
857.263	22729
857.397	22725
857.53	22725
857.664	22573
857.797	22679
857.931	22687
858.064	22592
858.197	22672
858.331	22565
858.464	22497
858.597	22611
858.731	22489
858.864	22664
858.997	22573
859.13	22565
859.263	22580
859.396	22607
859.529	22561
859.662	22504
859.795	22634
859.928	22535
860.061	22797
860.194	22934
860.327	22565
860.46	22497
860.592	22797
860.725	22683
860.858	22721
860.99	22535
861.123	22481
861.256	22580
861.388	22740
861.521	23311
861.653	22485
861.786	22348
861.918	22402
862.05	22459
862.183	22660
862.315	22577
862.447	22474
862.58	22485
862.712	22344
862.844	22402
862.976	22421
863.108	22466
863.24	22782
863.372	22242
863.504	22371
863.636	22333
863.768	22234
863.9	22356
864.032	22310
864.164	22291
864.296	22287
864.428	22341
864.559	22436
864.691	22409
864.823	22363
864.954	22219
865.086	22215
865.217	22257
865.349	22002
865.48	22185
865.612	22166
865.743	22226
865.875	22196
866.006	22196
866.137	22177
866.269	22219
866.4	22101
866.531	22268
866.662	22025
866.793	22070
866.924	22017
867.055	22223
867.186	22238
867.317	22051
867.448	21934
867.579	22025
867.71	22036
867.841	22059
867.972	22090
868.103	22017
868.233	22105
868.364	22188
868.495	22242
868.625	22436
868.756	22535
868.886	22200
869.017	22432
869.147	22466
869.278	22413
869.408	22436
869.539	22204
869.669	22592
869.799	22375
869.929	22516
870.06	22504
870.19	22733
870.32	22554
870.45	22713
870.58	22717
870.71	22873
870.84	22835
870.97	22828
871.1	22637
871.23	22968
871.36	23048
871.489	22904
871.619	22923
871.749	23006
871.879	23079
872.008	23003
872.138	22976
872.267	23044
872.397	22736
872.526	22763
872.656	22759
872.785	22748
872.915	22915
873.044	23071
873.173	22980
873.303	22999
873.432	23041
873.561	23189
873.69	22987
873.819	22858
873.948	22927
874.077	22923
874.206	22885
874.335	22900
874.464	23132
874.593	23185
874.722	23151
874.851	23296
874.979	23197
875.108	23299
875.237	23159
875.365	23044
875.494	23204
875.623	23235
875.751	23044
875.88	23166
876.008	23410
876.136	23429
876.265	23646
876.393	23817
876.521	23592
876.65	23634
876.778	23661
876.906	23463
877.034	23505
877.162	23543
877.29	23490
877.418	23615
877.546	23535
877.674	23524
877.802	23512
877.93	23497
878.058	23490
878.185	23436
878.313	23604
878.441	23467
878.568	23353
878.696	23398
878.824	23589
878.951	23630
879.079	23653
879.206	23912
879.333	23756
879.461	23535
879.588	23657
879.715	23570
879.842	23809
879.97	23608
880.097	23433
880.224	23379
880.351	23364
880.478	23391
880.605	23311
880.732	23307
880.859	23634
880.986	23337
881.112	23349
881.239	23208
881.366	23132
881.493	22953
881.619	23041
881.746	22892
881.872	22968
881.999	22858
882.125	22805
882.252	22923
882.378	22843
882.505	22984
882.631	22771
882.757	22733
882.883	22622
883.01	22637
883.136	22542
883.262	22577
883.388	22371
883.514	22740
883.64	22687
883.766	22481
883.892	22394
884.018	22348
884.143	22500
884.269	22710
884.395	22295
884.52	22253
884.646	22173
884.772	22154
884.897	22211
885.023	22215
885.148	22261
885.274	22409
885.399	22352
885.524	22242
885.65	22325
885.775	22242
885.9	22120
886.025	22344
886.15	22249
886.275	22135
886.4	22128
886.525	22097
886.65	22158
886.775	22223
886.9	22272
887.025	22318
887.149	22128
887.274	21979
887.399	21903
887.523	21972
887.648	21838
887.773	21934
887.897	21945
888.021	22070
888.146	21975
888.27	22048
888.395	22120
888.519	21991
888.643	22135
888.767	22048
888.891	21873
889.015	21842
889.139	21709
889.263	21785
889.387	21899
889.511	21945
889.635	21934
889.759	21743
889.883	21671
890.006	21759
890.13	21720
890.254	21663
890.377	21713
890.501	21572
890.624	21564
890.748	21553
890.871	21412
890.995	21416
891.118	21241
891.241	21275
891.364	21310
891.488	21378
891.611	21458
891.734	21260
891.857	21298
891.98	21298
892.103	21374
892.226	21241
892.349	21233
892.471	21123
892.594	21169
892.717	21146
892.839	21260
892.962	21336
893.085	21272
893.207	21218
893.33	21096
893.452	21093
893.575	21230
893.697	21180
893.819	21401
893.941	21363
894.064	21298
894.186	21226
894.308	21047
894.43	21291
894.552	21268
894.674	21268
894.796	21138
894.918	21222
895.04	21112
895.161	21252
895.283	21176
895.405	21199
895.526	21241
895.648	21150
895.769	21154
895.891	21165
896.012	21329
896.134	21306
896.255	21150
896.376	21154
896.498	21127
896.619	21237
896.74	21123
896.861	21180
896.982	21462
897.103	21583
897.224	21454
897.345	21408
897.466	21374
897.587	21488
897.708	21538
897.828	21424
897.949	21275
898.07	21325
898.19	21367
898.311	21454
898.431	21199
898.552	21348
898.672	21252
898.792	21458
898.913	21340
899.033	21150
899.153	21203
899.273	21043
899.393	21100
899.513	20998
899.633	21230
899.753	21070
899.873	21039
899.993	21123
900.113	20982
900.232	21051
900.352	20982
900.472	20815
900.591	20895
900.711	20929
900.83	20853
900.95	20948
901.069	20902
901.189	20575
901.308	20530
901.427	20450
901.546	20381
901.665	20385
901.784	20446
901.904	20355
902.023	20237
902.141	19993
902.26	19947
902.379	20005
902.498	19856
902.617	19917
902.735	19959
902.854	19879
902.973	19902
903.091	19632
903.21	19563
903.328	19693
903.446	19438
903.565	19422
903.683	19377
903.801	19285
903.919	19213
904.038	19419
904.156	19129
904.274	19179
904.392	19263
904.51	19141
904.627	19088
904.745	19202
904.863	19148
904.981	19027
905.098	18798
905.216	18730
905.334	18810
905.451	18840
905.569	18795
905.686	18916
905.803	18814
905.921	18525
906.038	18654
906.155	18798
906.272	18506
906.389	18471
906.506	18372
906.623	18361
906.74	18270
906.857	18155
906.974	18235
907.091	18464
907.208	18350
907.324	18372
907.441	18205
907.557	18060
907.674	18079
907.79	17969
907.907	18034
908.023	17965
908.139	18079
908.256	17958
908.372	17931
908.488	17840
908.604	17836
908.72	17737
908.836	17821
908.952	17798
909.068	17726
909.184	17885
909.3	17748
909.415	17813
909.531	17752
909.647	17524
909.762	17395
909.878	17425
909.993	17482
910.108	17429
910.224	17417
910.339	17448
910.454	17231
910.57	17311
910.685	17140
910.8	17467
910.915	17459
911.03	17227
911.145	17045
911.259	17094
911.374	17064
911.489	16972
911.604	16946
911.718	16786
911.833	16694
911.947	16736
912.062	16664
912.176	16656
912.291	16908
912.405	16752
912.519	16915
912.633	16930
912.748	16778
912.862	16706
912.976	16611
913.09	16512
913.204	16500
913.318	16588
913.431	16622
913.545	16717
913.659	16694
913.772	16504
913.886	16318
914	16341
914.113	16443
914.226	16516
914.34	16421
914.453	16287
914.566	16405
914.68	16299
914.793	16291
914.906	15964
915.019	16013
915.132	15911
915.245	15899
915.358	15968
915.47	15892
915.583	15827
915.696	15941
915.809	16097
915.921	16036
916.034	15835
916.146	15892
916.259	15888
916.371	15876
916.483	15838
916.595	15800
916.708	15713
916.82	15789
916.932	15743
917.044	15717
917.156	15606
917.268	15481
917.38	15488
917.491	15625
917.603	15686
917.715	15682
917.826	15614
917.938	15564
918.049	15382
918.161	15519
918.272	15648
918.384	15614
918.495	15557
918.606	15435
918.717	15230
918.828	15287
918.939	15313
919.05	15195
919.161	15222
919.272	15047
919.383	15138
919.494	15252
919.604	15466
919.715	15226
919.826	15245
919.936	15192
920.047	15378
920.157	15283
920.267	15405
920.378	15363
920.488	15260
920.598	15481
920.708	15606
920.818	15408
920.928	15325
921.038	15462
921.148	15515
921.258	15192
921.368	14986
921.477	14880
921.587	14967
921.697	14861
921.806	14948
921.916	14746
922.025	14667
922.134	14590
922.244	14545
922.353	14678
922.462	14446
922.571	14438
922.68	14317
922.789	14320
922.898	14191
923.007	14164
923.116	14263
923.224	14252
923.333	14180
923.442	14069
923.55	14054
923.659	14221
923.767	14119
923.876	13993
923.984	14031
924.092	13902
924.201	13932
924.309	13978
924.417	13902
924.525	13871
924.633	13906
924.741	14880
924.849	13655
924.956	13814
925.064	13708
925.172	13590
925.279	13601
925.387	13594
925.494	13636
925.602	13662
925.709	13731
925.816	13487
925.924	13601
926.031	13693
926.138	13628
926.245	13643
926.352	13392
926.459	13544
926.566	13632
926.673	13510
926.779	13403
926.886	13324
926.993	13213
927.099	13198
927.206	13137
927.312	13171
927.419	13084
927.525	13088
927.631	13171
927.737	13015
927.843	12989
927.95	12905
928.056	13034
928.162	12966
928.267	13050
928.373	13704
928.479	13046
928.585	12787
928.69	12867
928.796	12966
928.901	12821
929.007	12745
929.112	12829
929.218	12760
929.323	12715
929.428	12635
929.533	12871
929.638	12585
929.743	12616
929.848	12646
929.953	12677
930.058	12464
930.163	12323
930.267	12308
930.372	12536
930.477	12281
930.581	12494
930.685	12353
930.79	12311
930.894	12247
930.998	12159
931.103	12346
931.207	11950
931.311	11878
931.415	11870
931.519	11649
931.623	11516
