Data from test_V78500241_1338.txt Node
Date: Fri Mar 25 15:51:04 CST 2022
User: usil
Spectrometer: V785-0024
Trigger mode: 0
Integration Time (sec): 4.000000E-1
Scans to average: 1
Nonlinearity correction enabled: false
Boxcar width: 0
Storing dark spectrum: false
XAxis mode: Wavelengths
Number of Pixels in Spectrum: 1024
>>>>>Begin Spectral Data<<<<<
801.071	28078
801.214	27907
801.356	27751
801.499	27564
801.641	27492
801.783	27648
801.926	27759
802.068	27667
802.211	27595
802.353	27367
802.496	27367
802.638	27218
802.78	27195
802.923	27146
803.065	27180
803.208	27127
803.35	27127
803.492	27317
803.635	27450
803.777	27389
803.919	27420
804.061	27701
804.204	27462
804.346	27439
804.488	27439
804.63	27507
804.773	27443
804.915	27424
805.057	27618
805.199	27374
805.341	27599
805.483	27469
805.626	27549
805.768	27481
805.91	27686
806.052	27530
806.194	27542
806.336	27747
806.478	27572
806.62	27644
806.762	27618
806.904	27739
807.046	28055
807.188	28082
807.33	28078
807.472	28120
807.614	27880
807.756	27975
807.898	27808
808.04	27907
808.182	27892
808.324	27930
808.465	27983
808.607	28086
808.749	28291
808.891	28265
809.033	28421
809.174	28303
809.316	28139
809.458	28417
809.6	28306
809.741	28428
809.883	28421
810.025	28557
810.166	28535
810.308	28637
810.45	28459
810.591	28481
810.733	28409
810.875	28265
811.016	28074
811.158	28097
811.299	28303
811.441	28398
811.582	28382
811.724	28314
811.865	28086
812.007	28261
812.148	28234
812.29	28314
812.431	28284
812.573	28668
812.714	28641
812.855	28869
812.997	28961
813.138	29029
813.279	28987
813.421	28584
813.562	28820
813.703	28694
813.845	28360
813.986	28192
814.127	28154
814.268	27857
814.41	27926
814.551	27804
814.692	28006
814.833	27895
814.974	27873
815.115	27994
815.256	27865
815.397	27918
815.539	27846
815.68	27747
815.821	27701
815.962	27743
816.103	27671
816.244	27519
816.385	27682
816.526	27526
816.666	27302
816.807	27310
816.948	27397
817.089	27321
817.23	27252
817.371	27332
817.512	27146
817.653	27211
817.793	27085
817.934	27207
818.075	27218
818.216	27272
818.356	27135
818.497	27268
818.638	27013
818.778	27036
818.919	26971
819.06	26990
819.2	27176
819.341	27268
819.481	27237
819.622	27321
819.762	27587
819.903	27462
820.043	27530
820.184	27298
820.324	27344
820.465	27431
820.605	27325
820.746	27363
820.886	27211
821.026	27302
821.167	27207
821.307	27313
821.447	27272
821.588	27203
821.728	27123
821.868	26906
822.008	26792
822.149	26746
822.289	26678
822.429	26514
822.569	26503
822.709	26404
822.849	26366
822.99	26138
823.13	26168
823.27	26157
823.41	26073
823.55	25887
823.69	25932
823.83	26020
823.97	26077
824.11	25875
824.25	25765
824.389	26035
824.529	25936
824.669	25951
824.809	26058
824.949	25986
825.089	26012
825.228	26027
825.368	25757
825.508	25529
825.648	25677
825.787	25769
825.927	25826
826.067	25757
826.206	25674
826.346	25765
826.485	25780
826.625	25772
826.765	25997
826.904	25830
827.044	25472
827.183	25506
827.323	25304
827.462	25483
827.601	25597
827.741	25434
827.88	25518
828.02	25247
828.159	25324
828.298	25563
828.437	25453
828.577	25312
828.716	25681
828.855	25453
828.994	25213
829.134	25240
829.273	25293
829.412	25232
829.551	25057
829.69	25152
829.829	25156
829.968	25221
830.107	25255
830.246	25168
830.385	25000
830.524	24989
830.663	24901
830.802	24962
830.941	24715
831.08	24745
831.219	24783
831.357	24821
831.496	25000
831.635	24760
831.774	24578
831.913	24650
832.051	24601
832.19	24559
832.329	24627
832.467	24483
832.606	24547
832.744	24399
832.883	24319
833.022	24334
833.16	24517
833.299	24372
833.437	24517
833.576	24585
833.714	24551
833.852	24498
833.991	24574
834.129	24604
834.267	24574
834.406	24601
834.544	24521
834.682	24464
834.821	24483
834.959	24646
835.097	24498
835.235	24429
835.373	24498
835.511	24391
835.65	24350
835.788	24224
835.926	24300
836.064	24136
836.202	24155
836.34	24327
836.478	24479
836.615	24365
836.753	24372
836.891	24388
837.029	24178
837.167	24281
837.305	24273
837.443	24247
837.58	24087
837.718	24220
837.856	24258
837.993	24182
838.131	24152
838.269	24144
838.406	24045
838.544	23973
838.681	23745
838.819	23783
838.956	23695
839.094	23630
839.231	23604
839.369	23771
839.506	24057
839.643	23863
839.781	23596
839.918	23528
840.055	23646
840.193	23611
840.33	23356
840.467	23608
840.604	23653
840.742	23771
840.879	23452
841.016	23558
841.153	23433
841.29	23733
841.427	23619
841.564	23493
841.701	23417
841.838	23459
841.975	23467
842.112	23482
842.249	23349
842.385	23254
842.522	23467
842.659	23379
842.796	23299
842.933	23288
843.069	23315
843.206	23147
843.343	23372
843.479	23292
843.616	23254
843.752	22987
843.889	23041
844.025	23223
844.162	23136
844.298	23155
844.435	23060
844.571	23105
844.708	22961
844.844	23147
844.98	23292
845.117	23113
845.253	23006
845.389	23048
845.525	23003
845.661	22919
845.798	22740
845.934	22793
846.07	22626
846.206	22729
846.342	22892
846.478	22713
846.614	22550
846.75	22478
846.886	22443
847.022	22596
847.158	22599
847.294	22569
847.429	22516
847.565	22443
847.701	22812
847.837	22230
847.972	22295
848.108	22382
848.244	22360
848.379	22154
848.515	22181
848.65	22048
848.786	22162
848.921	22051
849.057	22211
849.192	22147
849.328	22093
849.463	22067
849.598	22097
849.734	21953
849.869	21892
850.004	21842
850.14	21979
850.275	21808
850.41	21831
850.545	21876
850.68	21857
850.815	21945
850.95	21922
851.085	22051
851.22	21964
851.355	21983
851.49	21922
851.625	21774
851.76	21808
851.895	21797
852.03	21903
852.165	21964
852.299	21934
852.434	21850
852.569	21987
852.703	21884
852.838	21865
852.973	22010
853.107	21941
853.242	21781
853.376	21743
853.511	21641
853.645	21603
853.78	21842
853.914	21633
854.048	21625
854.183	21625
854.317	21785
854.451	21907
854.585	21641
854.72	21644
854.854	21789
854.988	21660
855.122	21747
855.256	21610
855.39	21724
855.524	21751
855.658	21622
855.792	21778
855.926	21686
856.06	21618
856.194	21915
856.327	21633
856.461	21599
856.595	21686
856.729	21679
856.862	21747
856.996	21797
857.13	21827
857.263	21884
857.397	21850
857.53	21793
857.664	21827
857.797	21766
857.931	21728
858.064	21720
858.197	21804
858.331	21644
858.464	21663
858.597	21549
858.731	21614
858.864	21682
858.997	21652
859.13	21625
859.263	21682
859.396	21713
859.529	21587
859.662	21694
859.795	21583
859.928	21720
860.061	21793
860.194	21918
860.327	21781
860.46	21679
860.592	21854
860.725	21869
860.858	21873
860.99	21781
861.123	21652
861.256	21728
861.388	21705
861.521	22402
861.653	21553
861.786	21526
861.918	21576
862.05	21610
862.183	21663
862.315	21679
862.447	21793
862.58	21469
862.712	21469
862.844	21405
862.976	21511
863.108	21454
863.24	21747
863.372	21287
863.504	21351
863.636	21447
863.768	21424
863.9	21405
864.032	21329
864.164	21447
864.296	21424
864.428	21583
864.559	21477
864.691	21447
864.823	21469
864.954	21416
865.086	21462
865.217	21317
865.349	21214
865.48	21344
865.612	21283
865.743	21469
865.875	21321
866.006	21355
866.137	21287
866.269	21317
866.4	21298
866.531	21370
866.662	21256
866.793	21241
866.924	21127
867.055	21260
867.186	21344
867.317	21386
867.448	21154
867.579	21199
867.71	21199
867.841	21127
867.972	21279
868.103	21256
868.233	21268
868.364	21211
868.495	21386
868.625	21401
868.756	21564
868.886	21431
869.017	21481
869.147	21625
869.278	21606
869.408	21526
869.539	21466
869.669	21606
869.799	21603
869.929	21629
870.06	21618
870.19	21705
870.32	21816
870.45	21747
870.58	21793
870.71	22059
870.84	21915
870.97	21865
871.1	21911
871.23	22128
871.36	22063
871.489	21968
871.619	22097
871.749	22090
871.879	22158
872.008	22230
872.138	22143
872.267	22063
872.397	21915
872.526	21918
872.656	21918
872.785	21941
872.915	22048
873.044	22204
873.173	22074
873.303	22147
873.432	22006
873.561	22204
873.69	22090
873.819	22055
873.948	22333
874.077	22116
874.206	22036
874.335	22192
874.464	22242
874.593	22280
874.722	22188
874.851	22550
874.979	22337
875.108	22325
875.237	22234
875.365	22181
875.494	22352
875.623	22489
875.751	22371
875.88	22367
876.008	22459
876.136	22497
876.265	22748
876.393	22862
876.521	22778
876.65	22797
876.778	22649
876.906	22687
877.034	22611
877.162	22592
877.29	22668
877.418	22535
877.546	22809
877.674	22607
877.802	22755
877.93	22672
878.058	22577
878.185	22618
878.313	22611
878.441	22634
878.568	22462
878.696	22656
878.824	22774
878.951	22645
879.079	22850
879.206	22915
879.333	22793
879.461	22713
879.588	22942
879.715	22892
879.842	22911
879.97	22771
880.097	22497
880.224	22607
880.351	22474
880.478	22519
880.605	22497
880.732	22516
880.859	22744
880.986	22455
881.112	22641
881.239	22341
881.366	22158
881.493	22150
881.619	22109
881.746	22017
881.872	22120
881.999	22112
882.125	22010
882.252	21979
882.378	21987
882.505	22135
882.631	21979
882.757	21690
882.883	21850
883.01	21751
883.136	21682
883.262	21671
883.388	21534
883.514	21781
883.64	21793
883.766	21625
883.892	21485
884.018	21720
884.143	21644
884.269	21724
884.395	21363
884.52	21374
884.646	21325
884.772	21313
884.897	21283
885.023	21264
885.148	21496
885.274	21500
885.399	21420
885.524	21389
885.65	21363
885.775	21469
885.9	21428
886.025	21526
886.15	21515
886.275	21336
886.4	21291
886.525	21389
886.65	21283
886.775	21283
886.9	21515
887.025	21614
887.149	21310
887.274	21188
887.399	21173
887.523	21108
887.648	21188
887.773	21024
887.897	21195
888.021	21306
888.146	21127
888.27	21363
888.395	21260
888.519	21127
888.643	21188
888.767	21108
888.891	21039
889.015	20811
889.139	21009
889.263	20849
889.387	21032
889.511	21039
889.635	21093
889.759	20994
889.883	20933
890.006	20880
890.13	20994
890.254	20864
890.377	20891
890.501	20667
890.624	20663
890.748	20804
890.871	20678
890.995	20442
891.118	20434
891.241	20514
891.364	20568
891.488	20590
891.611	20533
891.734	20530
891.857	20522
891.98	20492
892.103	20533
892.226	20530
892.349	20343
892.471	20282
892.594	20461
892.717	20408
892.839	20374
892.962	20495
893.085	20579
893.207	20362
893.33	20347
893.452	20290
893.575	20431
893.697	20393
893.819	20667
893.941	20609
894.064	20469
894.186	20499
894.308	20320
894.43	20434
894.552	20556
894.674	20446
894.796	20351
894.918	20332
895.04	20396
895.161	20533
895.283	20431
895.405	20389
895.526	20377
895.648	20442
895.769	20400
895.891	20389
896.012	20579
896.134	20431
896.255	20423
896.376	20499
896.498	20431
896.619	20347
896.74	20396
896.861	20385
896.982	20663
897.103	20785
897.224	20549
897.345	20621
897.466	20533
897.587	20644
897.708	20701
897.828	20644
897.949	20541
898.07	20533
898.19	20648
898.311	20762
898.431	20587
898.552	20606
898.672	20659
898.792	20678
898.913	20629
899.033	20541
899.153	20400
899.273	20145
899.393	20404
899.513	20488
899.633	20377
899.753	20408
899.873	20294
899.993	20263
900.113	20267
900.232	20328
900.352	20256
900.472	20107
900.591	20016
900.711	20259
900.83	20077
900.95	20172
901.069	20164
901.189	19982
901.308	19849
901.427	19662
901.546	19784
901.665	19666
901.784	19693
901.904	19647
902.023	19639
902.141	19358
902.26	19255
902.379	19297
902.498	19046
902.617	19213
902.735	19270
902.854	19240
902.973	19126
903.091	18920
903.21	18859
903.328	18886
903.446	18783
903.565	18673
903.683	18673
903.801	18559
903.919	18604
904.038	18620
904.156	18441
904.274	18528
904.392	18525
904.51	18483
904.627	18483
904.745	18559
904.863	18456
904.981	18266
905.098	18133
905.216	18079
905.334	18194
905.451	18136
905.569	18091
905.686	18228
905.803	18121
905.921	17950
906.038	17973
906.155	17988
906.272	17847
906.389	17916
906.506	17695
906.623	17714
906.74	17665
906.857	17524
906.974	17558
907.091	17707
907.208	17779
907.324	17756
907.441	17474
907.557	17463
907.674	17395
907.79	17299
907.907	17414
908.023	17425
908.139	17482
908.256	17307
908.372	17318
908.488	17170
908.604	17159
908.72	17086
908.836	17098
908.952	17117
909.068	17220
909.184	17220
909.3	17132
909.415	17079
909.531	17075
909.647	16816
909.762	16881
909.878	16767
909.993	16854
910.108	16725
910.224	16656
910.339	16698
910.454	16592
910.57	16653
910.685	16504
910.8	16805
910.915	16748
911.03	16512
911.145	16440
911.259	16405
911.374	16333
911.489	16375
911.604	16348
911.718	16158
911.833	16071
911.947	15983
912.062	15994
912.176	16051
912.291	16272
912.405	16048
912.519	16314
912.633	16242
912.748	16219
912.862	16010
912.976	15983
913.09	15892
913.204	15975
913.318	15975
913.431	15991
913.545	15983
913.659	16090
913.772	15915
913.886	15831
914	15720
914.113	15884
914.226	15873
914.34	15903
914.453	15622
914.566	15823
914.68	15599
914.793	15534
914.906	15367
915.019	15370
915.132	15237
915.245	15329
915.358	15370
915.47	15348
915.583	15363
915.696	15310
915.809	15477
915.921	15351
916.034	15313
916.146	15199
916.259	15180
916.371	15260
916.483	15313
916.595	15150
916.708	15154
916.82	15112
916.932	15097
917.044	15108
917.156	15058
917.268	14933
917.38	15013
917.491	14998
917.603	14990
917.715	15154
917.826	15047
917.938	14834
918.049	14906
918.161	15032
918.272	15066
918.384	15112
918.495	14967
918.606	14743
918.717	14689
918.828	14792
918.939	14811
919.05	14678
919.161	14746
919.272	14465
919.383	14606
919.494	14830
919.604	14876
919.715	14746
919.826	14518
919.936	14659
920.047	14743
920.157	14708
920.267	14792
920.378	14735
920.488	14720
920.598	14811
920.708	15024
920.818	14891
920.928	14765
921.038	15074
921.148	14929
921.258	14579
921.368	14571
921.477	14431
921.587	14389
921.697	14256
921.806	14476
921.916	14263
922.025	14119
922.134	14084
922.244	14031
922.353	14096
922.462	13932
922.571	13864
922.68	13784
922.789	13681
922.898	13803
923.007	13632
923.116	13795
923.224	13643
923.333	13636
923.442	13582
923.55	13441
923.659	13616
923.767	13605
923.876	13559
923.984	13586
924.092	13400
924.201	13571
924.309	13445
924.417	13464
924.525	13358
924.633	13392
924.741	14294
924.849	13171
924.956	13327
925.064	13114
925.172	13065
925.279	13069
925.387	13141
925.494	13088
925.602	13164
925.709	13217
925.816	12996
925.924	13031
926.031	13160
926.138	13015
926.245	13019
926.352	12901
926.459	13149
926.566	13122
926.673	12962
926.779	12882
926.886	12848
926.993	12688
927.099	12673
927.206	12639
927.312	12574
927.419	12753
927.525	12639
927.631	12635
927.737	12620
927.843	12570
927.95	12399
928.056	12498
928.162	12471
928.267	12631
928.373	13171
928.479	12532
928.585	12300
928.69	12479
928.796	12475
928.901	12330
929.007	12152
929.112	12407
929.218	12357
929.323	12251
929.428	12220
929.533	12334
929.638	12072
929.743	12273
929.848	12300
929.953	12224
930.058	12053
930.163	11882
930.267	11893
930.372	12140
930.477	11870
930.581	11984
930.685	11916
930.79	11805
930.894	11764
930.998	11783
931.103	11973
931.207	11623
931.311	11528
931.415	11402
931.519	11208
931.623	11174
