Data from test_V78500241_2680.txt Node
Date: Fri Mar 25 16:00:21 CST 2022
User: usil
Spectrometer: V785-0024
Trigger mode: 0
Integration Time (sec): 4.000000E-1
Scans to average: 1
Nonlinearity correction enabled: false
Boxcar width: 0
Storing dark spectrum: false
XAxis mode: Wavelengths
Number of Pixels in Spectrum: 1024
>>>>>Begin Spectral Data<<<<<
801.071	28675
801.214	28694
801.356	28599
801.499	28409
801.641	28401
801.783	28280
801.926	28497
802.068	28348
802.211	28291
802.353	28166
802.496	28063
802.638	28067
802.78	27972
802.923	27861
803.065	27903
803.208	27922
803.35	28029
803.492	28230
803.635	28219
803.777	28105
803.919	28284
804.061	28512
804.204	28413
804.346	28303
804.488	28063
804.63	28257
804.773	28257
804.915	28344
805.057	28344
805.199	28223
805.341	28413
805.483	28504
805.626	28428
805.768	28401
805.91	28573
806.052	28481
806.194	28371
806.336	28538
806.478	28459
806.62	28352
806.762	28573
806.904	28713
807.046	28805
807.188	28793
807.33	28873
807.472	28946
807.614	28862
807.756	28919
807.898	28752
808.04	28664
808.182	28687
808.324	28831
808.465	28672
808.607	28980
808.749	29075
808.891	29250
809.033	29235
809.174	29292
809.316	29162
809.458	29075
809.6	29041
809.741	29174
809.883	29269
810.025	29471
810.166	29375
810.308	29452
810.45	29436
810.591	29315
810.733	29170
810.875	29204
811.016	29064
811.158	29064
811.299	29223
811.441	29410
811.582	29326
811.724	29018
811.865	29200
812.007	29079
812.148	29098
812.29	29303
812.431	29288
812.573	29398
812.714	29570
812.855	29687
812.997	29824
813.138	29862
813.279	29771
813.421	29729
813.562	29520
813.703	29627
813.845	29444
813.986	29231
814.127	28942
814.268	28896
814.41	28927
814.551	28904
814.692	28911
814.833	28824
814.974	28778
815.115	28869
815.256	28786
815.397	28653
815.539	28862
815.68	28778
815.821	28596
815.962	28702
816.103	28763
816.244	28478
816.385	28409
816.526	28489
816.666	28261
816.807	28181
816.948	28120
817.089	28219
817.23	28158
817.371	28181
817.512	28112
817.653	28128
817.793	28120
817.934	28097
818.075	28200
818.216	28158
818.356	28139
818.497	27994
818.638	27998
818.778	28044
818.919	27953
819.06	27960
819.2	28090
819.341	28135
819.481	28173
819.622	28375
819.762	28432
819.903	28409
820.043	28413
820.184	28352
820.324	28379
820.465	28436
820.605	28303
820.746	28386
820.886	28207
821.026	28424
821.167	28268
821.307	28287
821.447	28379
821.588	28101
821.728	27968
821.868	27838
822.008	27625
822.149	27690
822.289	27545
822.429	27359
822.569	27313
822.709	27374
822.849	27207
822.99	27154
823.13	27093
823.27	27066
823.41	26956
823.55	26853
823.69	26937
823.83	27013
823.97	26967
824.11	26762
824.25	26804
824.389	26830
824.529	26853
824.669	26758
824.809	26925
824.949	26876
825.089	26823
825.228	26731
825.368	26587
825.508	26678
825.648	26701
825.787	26750
825.927	26853
826.067	26583
826.206	26659
826.346	26705
826.485	26556
826.625	26678
826.765	26583
826.904	26777
827.044	26575
827.183	26549
827.323	26419
827.462	26613
827.601	26423
827.741	26389
827.88	26453
828.02	26286
828.159	26393
828.298	26419
828.437	26457
828.577	26389
828.716	26613
828.855	26210
828.994	26016
829.134	26172
829.273	26157
829.412	25989
829.551	26016
829.69	26145
829.829	26005
829.968	26153
830.107	26145
830.246	26111
830.385	26054
830.524	26081
830.663	25864
830.802	25852
830.941	25677
831.08	25681
831.219	25830
831.357	25693
831.496	25906
831.635	25704
831.774	25674
831.913	25624
832.051	25521
832.19	25453
832.329	25582
832.467	25304
832.606	25354
832.744	25297
832.883	25320
833.022	25293
833.16	25415
833.299	25346
833.437	25392
833.576	25327
833.714	25502
833.852	25575
833.991	25396
834.129	25491
834.267	25639
834.406	25441
834.544	25540
834.682	25445
834.821	25430
834.959	25658
835.097	25358
835.235	25407
835.373	25343
835.511	25415
835.65	25240
835.788	25133
835.926	25209
836.064	25057
836.202	25156
836.34	25312
836.478	25415
836.615	25308
836.753	25308
836.891	25255
837.029	25320
837.167	25221
837.305	25209
837.443	25088
837.58	24909
837.718	25084
837.856	25168
837.993	25038
838.131	25133
838.269	24943
838.406	24901
838.544	24829
838.681	24795
838.819	24719
838.956	24555
839.094	24547
839.231	24513
839.369	24688
839.506	24970
839.643	24844
839.781	24540
839.918	24380
840.055	24429
840.193	24395
840.33	24334
840.467	24540
840.604	24369
840.742	24673
840.879	24353
841.016	24395
841.153	24384
841.29	24502
841.427	24441
841.564	24433
841.701	24353
841.838	24361
841.975	24338
842.112	24308
842.249	24216
842.385	24213
842.522	24361
842.659	24186
842.796	24205
842.933	24197
843.069	24106
843.206	24167
843.343	24338
843.479	24216
843.616	24209
843.752	24018
843.889	24018
844.025	24110
844.162	23984
844.298	24117
844.435	23840
844.571	23958
844.708	24060
844.844	24110
844.98	24155
845.117	24045
845.253	23954
845.389	23901
845.525	23783
845.661	23828
845.798	23649
845.934	23813
846.07	23794
846.206	23627
846.342	23855
846.478	23627
846.614	23543
846.75	23326
846.886	23497
847.022	23497
847.158	23630
847.294	23364
847.429	23433
847.565	23387
847.701	23665
847.837	23136
847.972	23166
848.108	23166
848.244	23337
848.379	23044
848.515	22953
848.65	23090
848.786	22927
848.921	23048
849.057	23113
849.192	23159
849.328	23003
849.463	23014
849.598	22843
849.734	23044
849.869	22847
850.004	22812
850.14	22831
850.275	22755
850.41	22698
850.545	22721
850.68	22721
850.815	22752
850.95	22694
851.085	22877
851.22	22984
851.355	22733
851.49	22698
851.625	22694
851.76	22748
851.895	22721
852.03	22729
852.165	22717
852.299	22869
852.434	22812
852.569	22873
852.703	22854
852.838	22790
852.973	23033
853.107	22862
853.242	22630
853.376	22588
853.511	22493
853.645	22546
853.78	22687
853.914	22607
854.048	22615
854.183	22478
854.317	22561
854.451	22793
854.585	22569
854.72	22565
854.854	22687
854.988	22447
855.122	22729
855.256	22402
855.39	22489
855.524	22618
855.658	22733
855.792	22649
855.926	22645
856.06	22679
856.194	22675
856.327	22618
856.461	22577
856.595	22489
856.729	22672
856.862	22763
856.996	22588
857.13	22691
857.263	22736
857.397	22653
857.53	22634
857.664	22660
857.797	22615
857.931	22675
858.064	22706
858.197	22755
858.331	22497
858.464	22409
858.597	22550
858.731	22573
858.864	22497
858.997	22485
859.13	22451
859.263	22584
859.396	22557
859.529	22577
859.662	22554
859.795	22577
859.928	22649
860.061	22698
860.194	22801
860.327	22710
860.46	22653
860.592	22759
860.725	22664
860.858	22733
860.99	22538
861.123	22402
861.256	22523
861.388	22607
861.521	23246
861.653	22565
861.786	22394
861.918	22432
862.05	22504
862.183	22478
862.315	22447
862.447	22550
862.58	22554
862.712	22246
862.844	22287
862.976	22398
863.108	22287
863.24	22835
863.372	22215
863.504	22382
863.636	22318
863.768	22207
863.9	22287
864.032	22173
864.164	22306
864.296	22371
864.428	22314
864.559	22287
864.691	22363
864.823	22337
864.954	22284
865.086	22348
865.217	22101
865.349	22109
865.48	22143
865.612	22196
865.743	22257
865.875	22276
866.006	22029
866.137	22211
866.269	22162
866.4	22181
866.531	22051
866.662	22196
866.793	22105
866.924	22101
867.055	22090
867.186	22280
867.317	22135
867.448	21895
867.579	22105
867.71	22013
867.841	21998
867.972	22109
868.103	22074
868.233	22166
868.364	22090
868.495	22272
868.625	22337
868.756	22329
868.886	22322
869.017	22367
869.147	22523
869.278	22424
869.408	22325
869.539	22390
869.669	22371
869.799	22421
869.929	22432
870.06	22512
870.19	22626
870.32	22538
870.45	22675
870.58	22767
870.71	22949
870.84	22839
870.97	22649
871.1	22615
871.23	22843
871.36	22980
871.489	22854
871.619	22942
871.749	22911
871.879	22885
872.008	23086
872.138	23014
872.267	22984
872.397	22698
872.526	22809
872.656	22831
872.785	22717
872.915	22968
873.044	23025
873.173	22820
873.303	22991
873.432	23086
873.561	23197
873.69	22923
873.819	23006
873.948	23010
874.077	23060
874.206	22877
874.335	22984
874.464	22991
874.593	23246
874.722	23193
874.851	23170
874.979	23242
875.108	23155
875.237	23261
875.365	22934
875.494	23128
875.623	23341
875.751	23128
875.88	23090
876.008	23239
876.136	23448
876.265	23509
876.393	23649
876.521	23745
876.65	23623
876.778	23611
876.906	23554
877.034	23414
877.162	23429
877.29	23463
877.418	23611
877.546	23642
877.674	23531
877.802	23459
877.93	23592
878.058	23501
878.185	23570
878.313	23433
878.441	23444
878.568	23505
878.696	23288
878.824	23505
878.951	23729
879.079	23535
879.206	23771
879.333	23684
879.461	23585
879.588	23604
879.715	23882
879.842	23901
879.97	23668
880.097	23379
880.224	23292
880.351	23307
880.478	23379
880.605	23349
880.732	23246
880.859	23509
880.986	23387
881.112	23383
881.239	23242
881.366	23128
881.493	23003
881.619	22812
881.746	23006
881.872	22946
881.999	22892
882.125	22812
882.252	22885
882.378	22885
882.505	23014
882.631	22755
882.757	22569
882.883	22725
883.01	22691
883.136	22519
883.262	22459
883.388	22348
883.514	22542
883.64	22702
883.766	22447
883.892	22192
884.018	22386
884.143	22519
884.269	22615
884.395	22291
884.52	22116
884.646	22265
884.772	22287
884.897	22040
885.023	22166
885.148	22310
885.274	22318
885.399	22352
885.524	22242
885.65	22207
885.775	22253
885.9	22223
886.025	22333
886.15	22211
886.275	22112
886.4	22059
886.525	22101
886.65	22055
886.775	22074
886.9	22265
887.025	22329
887.149	22169
887.274	22032
887.399	22032
887.523	21907
887.648	21835
887.773	21823
887.897	22074
888.021	22021
888.146	21694
888.27	22074
888.395	22097
888.519	21964
888.643	21949
888.767	21972
888.891	21884
889.015	21797
889.139	21793
889.263	21774
889.387	21800
889.511	21991
889.635	21892
889.759	21808
889.883	21766
890.006	21789
890.13	21892
890.254	21622
890.377	21625
890.501	21477
890.624	21367
890.748	21583
890.871	21424
890.995	21386
891.118	21245
891.241	21283
891.364	21359
891.488	21435
891.611	21287
891.734	21268
891.857	21264
891.98	21306
892.103	21340
892.226	21272
892.349	21302
892.471	21043
892.594	21108
892.717	21203
892.839	21180
892.962	21275
893.085	21378
893.207	21173
893.33	20975
893.452	21032
893.575	21226
893.697	21249
893.819	21306
893.941	21408
894.064	21355
894.186	21085
894.308	21039
894.43	21203
894.552	21348
894.674	21226
894.796	20986
894.918	21074
895.04	21203
895.161	21233
895.283	21119
895.405	20990
895.526	21237
895.648	21157
895.769	21188
895.891	21131
896.012	21146
896.134	21294
896.255	21161
896.376	21009
896.498	21123
896.619	21214
896.74	21214
896.861	21207
896.982	21523
897.103	21641
897.224	21447
897.345	21340
897.466	21313
897.587	21450
897.708	21553
897.828	21416
897.949	21214
898.07	21195
898.19	21344
898.311	21393
898.431	21275
898.552	21367
898.672	21542
898.792	21313
898.913	21397
899.033	21195
899.153	21275
899.273	20990
899.393	21108
899.513	21077
899.633	21070
899.753	21138
899.873	20975
899.993	20990
900.113	21081
900.232	21165
900.352	20910
900.472	21047
900.591	20868
900.711	20864
900.83	20693
900.95	21024
901.069	20941
901.189	20868
901.308	20621
901.427	20377
901.546	20374
901.665	20564
901.784	20488
901.904	20206
902.023	20126
902.141	19932
902.26	19925
902.379	19951
902.498	19898
902.617	19902
902.735	20054
902.854	19883
902.973	19841
903.091	19521
903.21	19647
903.328	19559
903.446	19506
903.565	19403
903.683	19377
903.801	19190
903.919	19369
904.038	19331
904.156	19099
904.274	19240
904.392	19145
904.51	19053
904.627	19084
904.745	19114
904.863	19327
904.981	18958
905.098	18837
905.216	18795
905.334	18886
905.451	18901
905.569	18821
905.686	18798
905.803	18859
905.921	18608
906.038	18722
906.155	18559
906.272	18494
906.389	18532
906.506	18292
906.623	18391
906.74	18311
906.857	18144
906.974	18209
907.091	18441
907.208	18479
907.324	18304
907.441	18148
907.557	18030
907.674	18155
907.79	18026
907.907	17999
908.023	18129
908.139	18053
908.256	17878
908.372	17961
908.488	17901
908.604	17832
908.72	17752
908.836	17783
908.952	17661
909.068	17726
909.184	17817
909.3	17710
909.415	17722
909.531	17764
909.647	17471
909.762	17467
909.878	17433
909.993	17398
910.108	17368
910.224	17341
910.339	17551
910.454	17318
910.57	17208
910.685	17178
910.8	17520
910.915	17280
911.03	17212
911.145	17041
911.259	17003
911.374	17048
911.489	16919
911.604	16881
911.718	16790
911.833	16721
911.947	16763
912.062	16580
912.176	16831
912.291	16767
912.405	16782
912.519	16866
912.633	16881
912.748	16672
912.862	16759
912.976	16584
913.09	16527
913.204	16493
913.318	16618
913.431	16592
913.545	16561
913.659	16577
913.772	16485
913.886	16455
914	16333
914.113	16462
914.226	16508
914.34	16478
914.453	16249
914.566	16322
914.68	16360
914.793	16166
914.906	15991
915.019	15945
915.132	15903
915.245	15964
915.358	15949
915.47	15861
915.583	15979
915.696	15930
915.809	16112
915.921	16029
916.034	15854
916.146	15937
916.259	15743
916.371	15926
916.483	15854
916.595	15770
916.708	15709
916.82	15701
916.932	15774
917.044	15629
917.156	15603
917.268	15595
917.38	15538
917.491	15591
917.603	15572
917.715	15557
917.826	15701
917.938	15382
918.049	15420
918.161	15584
918.272	15690
918.384	15526
918.495	15439
918.606	15260
918.717	15230
918.828	15310
918.939	15291
919.05	15199
919.161	15268
919.272	15123
919.383	15123
919.494	15298
919.604	15481
919.715	15321
919.826	15173
919.936	15211
920.047	15355
920.157	15336
920.267	15348
920.378	15245
920.488	15150
920.598	15382
920.708	15504
920.818	15359
920.928	15351
921.038	15405
921.148	15496
921.258	15173
921.368	15138
921.477	15047
921.587	14941
921.697	14849
921.806	14963
921.916	14834
922.025	14606
922.134	14579
922.244	14587
922.353	14636
922.462	14526
922.571	14400
922.68	14298
922.789	14229
922.898	14187
923.007	14168
923.116	14191
923.224	14195
923.333	14225
923.442	14084
923.55	14024
923.659	14111
923.767	14225
923.876	13997
923.984	14050
924.092	13871
924.201	13986
924.309	13921
924.417	13986
924.525	13875
924.633	13921
924.741	14948
924.849	13662
924.956	13803
925.064	13632
925.172	13601
925.279	13578
925.387	13620
925.494	13605
925.602	13845
925.709	13662
925.816	13525
925.924	13506
926.031	13647
926.138	13537
926.245	13594
926.352	13426
926.459	13597
926.566	13537
926.673	13460
926.779	13312
926.886	13316
926.993	13217
927.099	13084
927.206	13050
927.312	13095
927.419	13244
927.525	13251
927.631	13107
927.737	13004
927.843	12973
927.95	12856
928.056	13050
928.162	12981
928.267	13008
928.373	13476
928.479	13034
928.585	12821
928.69	12973
928.796	12909
928.901	12795
929.007	12654
929.112	12810
929.218	12654
929.323	12700
929.428	12734
929.533	12825
929.638	12658
929.743	12627
929.848	12677
929.953	12589
930.058	12460
930.163	12407
930.267	12315
930.372	12467
930.477	12285
930.581	12525
930.685	12395
930.79	12190
930.894	12220
930.998	12232
931.103	12285
931.207	11916
931.311	11916
931.415	11832
931.519	11619
931.623	11585
