Data from test_V78500241_2542.txt Node
Date: Fri Mar 25 15:59:24 CST 2022
User: usil
Spectrometer: V785-0024
Trigger mode: 0
Integration Time (sec): 4.000000E-1
Scans to average: 1
Nonlinearity correction enabled: false
Boxcar width: 0
Storing dark spectrum: false
XAxis mode: Wavelengths
Number of Pixels in Spectrum: 1024
>>>>>Begin Spectral Data<<<<<
801.071	28691
801.214	28577
801.356	28276
801.499	28238
801.641	28192
801.783	28059
801.926	28284
802.068	28112
802.211	28017
802.353	28086
802.496	27831
802.638	27964
802.78	27888
802.923	27724
803.065	27819
803.208	27690
803.35	27869
803.492	27979
803.635	28036
803.777	28059
803.919	28082
804.061	28375
804.204	28166
804.346	28021
804.488	27930
804.63	28051
804.773	27960
804.915	28188
805.057	28261
805.199	28246
805.341	28082
805.483	28325
805.626	28169
805.768	28158
805.91	28386
806.052	28238
806.194	28211
806.336	28417
806.478	28268
806.62	28348
806.762	28325
806.904	28588
807.046	28831
807.188	28759
807.33	28733
807.472	28713
807.614	28550
807.756	28611
807.898	28531
808.04	28489
808.182	28554
808.324	28744
808.465	28710
808.607	28873
808.749	28965
808.891	28923
809.033	29109
809.174	29048
809.316	28923
809.458	28888
809.6	28915
809.741	29102
809.883	29094
810.025	29254
810.166	29246
810.308	29254
810.45	29064
810.591	29060
810.733	28987
810.875	28877
811.016	28965
811.158	28771
811.299	28869
811.441	29098
811.582	29052
811.724	28953
811.865	28946
812.007	29048
812.148	28965
812.29	28965
812.431	29132
812.573	29296
812.714	29452
812.855	29330
812.997	29531
813.138	29562
813.279	29627
813.421	29592
813.562	29375
813.703	29269
813.845	29162
813.986	29022
814.127	28824
814.268	28485
814.41	28618
814.551	28702
814.692	28771
814.833	28618
814.974	28489
815.115	28634
815.256	28470
815.397	28557
815.539	28584
815.68	28573
815.821	28379
815.962	28432
816.103	28382
816.244	28166
816.385	28375
816.526	28173
816.666	28070
816.807	27907
816.948	28017
817.089	28017
817.23	27975
817.371	27930
817.512	27972
817.653	27869
817.793	28029
817.934	27918
818.075	27922
818.216	27949
818.356	27987
818.497	27869
818.638	27800
818.778	27671
818.919	27842
819.06	27728
819.2	27892
819.341	27972
819.481	27865
819.622	28025
819.762	28295
819.903	28287
820.043	28204
820.184	28188
820.324	28124
820.465	28223
820.605	28086
820.746	28196
820.886	27934
821.026	28090
821.167	28135
821.307	27857
821.447	28078
821.588	28048
821.728	27751
821.868	27583
822.008	27473
822.149	27397
822.289	27443
822.429	27169
822.569	27165
822.709	27108
822.849	26982
822.99	26883
823.13	26853
823.27	26842
823.41	26731
823.55	26636
823.69	26750
823.83	26807
823.97	26701
824.11	26609
824.25	26412
824.389	26697
824.529	26560
824.669	26636
824.809	26674
824.949	26754
825.089	26632
825.228	26583
825.368	26629
825.508	26385
825.648	26530
825.787	26514
825.927	26670
826.067	26423
826.206	26381
826.346	26552
826.485	26473
826.625	26385
826.765	26651
826.904	26590
827.044	26240
827.183	26434
827.323	26282
827.462	26210
827.601	26161
827.741	26313
827.88	26317
828.02	26073
828.159	26214
828.298	26164
828.437	26221
828.577	26259
828.716	26278
828.855	26031
828.994	25902
829.134	25921
829.273	26065
829.412	25833
829.551	25753
829.69	25898
829.829	25928
829.968	25989
830.107	25944
830.246	25883
830.385	25772
830.524	25830
830.663	25719
830.802	25757
830.941	25510
831.08	25552
831.219	25533
831.357	25491
831.496	25674
831.635	25403
831.774	25373
831.913	25373
832.051	25202
832.19	25266
832.329	25278
832.467	25198
832.606	25091
832.744	25046
832.883	25202
833.022	25069
833.16	25221
833.299	25198
833.437	25335
833.576	25206
833.714	25270
833.852	25274
833.991	25232
834.129	25304
834.267	25251
834.406	25255
834.544	25377
834.682	25213
834.821	25152
834.959	25339
835.097	25251
835.235	25335
835.373	25095
835.511	25198
835.65	24977
835.788	25084
835.926	24981
836.064	24852
836.202	24848
836.34	25015
836.478	25206
836.615	24989
836.753	25015
836.891	25095
837.029	25050
837.167	25015
837.305	24886
837.443	24829
837.58	24905
837.718	24947
837.856	24916
837.993	24821
838.131	24871
838.269	24547
838.406	24753
838.544	24696
838.681	24620
838.819	24418
838.956	24376
839.094	24361
839.231	24410
839.369	24642
839.506	24791
839.643	24665
839.781	24300
839.918	24262
840.055	24319
840.193	24289
840.33	24350
840.467	24228
840.604	24178
840.742	24540
840.879	24091
841.016	24296
841.153	24030
841.29	24338
841.427	24308
841.564	24213
841.701	24213
841.838	24095
841.975	24144
842.112	24277
842.249	24133
842.385	23950
842.522	24159
842.659	24129
842.796	23874
842.933	23870
843.069	23882
843.206	23958
843.343	24083
843.479	23999
843.616	23988
843.752	23775
843.889	23756
844.025	23901
844.162	23809
844.298	23988
844.435	23821
844.571	23672
844.708	23748
844.844	24007
844.98	23824
845.117	23878
845.253	23703
845.389	23756
845.525	23592
845.661	23539
845.798	23402
845.934	23604
846.07	23509
846.206	23611
846.342	23547
846.478	23455
846.614	23277
846.75	23086
846.886	23269
847.022	23322
847.158	23277
847.294	23200
847.429	23284
847.565	23159
847.701	23531
847.837	22957
847.972	22862
848.108	22980
848.244	23151
848.379	22843
848.515	22797
848.65	22854
848.786	22786
848.921	22908
849.057	22942
849.192	22793
849.328	22774
849.463	22774
849.598	22812
849.734	22615
849.869	22748
850.004	22607
850.14	22584
850.275	22504
850.41	22542
850.545	22550
850.68	22550
850.815	22615
850.95	22577
851.085	22752
851.22	22683
851.355	22577
851.49	22630
851.625	22611
851.76	22542
851.895	22470
852.03	22424
852.165	22611
852.299	22622
852.434	22592
852.569	22588
852.703	22554
852.838	22733
852.973	22637
853.107	22660
853.242	22451
853.376	22424
853.511	22291
853.645	22417
853.78	22322
853.914	22493
854.048	22341
854.183	22398
854.317	22443
854.451	22424
854.585	22402
854.72	22322
854.854	22497
854.988	22253
855.122	22405
855.256	22150
855.39	22462
855.524	22417
855.658	22512
855.792	22474
855.926	22485
856.06	22440
856.194	22375
856.327	22447
856.461	22405
856.595	22299
856.729	22432
856.862	22538
856.996	22443
857.13	22489
857.263	22485
857.397	22462
857.53	22455
857.664	22481
857.797	22379
857.931	22527
858.064	22485
858.197	22668
858.331	22516
858.464	22284
858.597	22192
858.731	22299
858.864	22226
858.997	22291
859.13	22405
859.263	22398
859.396	22584
859.529	22405
859.662	22417
859.795	22325
859.928	22375
860.061	22542
860.194	22523
860.327	22428
860.46	22417
860.592	22478
860.725	22607
860.858	22641
860.99	22341
861.123	22253
861.256	22432
861.388	22440
861.521	23105
861.653	22219
861.786	22128
861.918	22192
862.05	22219
862.183	22284
862.315	22238
862.447	22284
862.58	22306
862.712	22162
862.844	22082
862.976	22150
863.108	22135
863.24	22561
863.372	21991
863.504	22036
863.636	22048
863.768	22101
863.9	22124
864.032	22051
864.164	22010
864.296	22112
864.428	22265
864.559	22207
864.691	22207
864.823	22067
864.954	22143
865.086	21994
865.217	21953
865.349	21899
865.48	21926
865.612	21987
865.743	22097
865.875	21991
866.006	22044
866.137	21895
866.269	21892
866.4	21884
866.531	21911
866.662	21846
866.793	21998
866.924	22017
867.055	21865
867.186	21873
867.317	21915
867.448	21876
867.579	21960
867.71	21899
867.841	21873
867.972	21987
868.103	21926
868.233	21918
868.364	21934
868.495	22051
868.625	22143
868.756	22109
868.886	22116
869.017	22207
869.147	22188
869.278	22337
869.408	22169
869.539	22124
869.669	22242
869.799	22223
869.929	22371
870.06	22223
870.19	22485
870.32	22325
870.45	22542
870.58	22474
870.71	22584
870.84	22660
870.97	22474
871.1	22630
871.23	22710
871.36	22694
871.489	22637
871.619	22740
871.749	22831
871.879	22790
872.008	22744
872.138	22710
872.267	22778
872.397	22630
872.526	22607
872.656	22599
872.785	22622
872.915	22828
873.044	22850
873.173	22687
873.303	22820
873.432	22908
873.561	22885
873.69	22805
873.819	22843
873.948	22915
874.077	22744
874.206	22717
874.335	22774
874.464	22809
874.593	23006
874.722	23003
874.851	23014
874.979	22949
875.108	23006
875.237	22961
875.365	22873
875.494	23003
875.623	23003
875.751	23003
875.88	23052
876.008	23113
876.136	23178
876.265	23387
876.393	23531
876.521	23474
876.65	23482
876.778	23429
876.906	23292
877.034	23448
877.162	23356
877.29	23330
877.418	23334
877.546	23273
877.674	23376
877.802	23406
877.93	23189
878.058	23216
878.185	23132
878.313	23231
878.441	23280
878.568	23094
878.696	23280
878.824	23372
878.951	23326
879.079	23520
879.206	23600
879.333	23490
879.461	23315
879.588	23547
879.715	23531
879.842	23710
879.97	23212
880.097	23140
880.224	23155
880.351	23181
880.478	23159
880.605	23178
880.732	23124
880.859	23376
880.986	23105
881.112	23200
881.239	23083
881.366	22965
881.493	22721
881.619	22733
881.746	22702
881.872	22607
881.999	22683
882.125	22702
882.252	22717
882.378	22615
882.505	22641
882.631	22596
882.757	22462
882.883	22405
883.01	22363
883.136	22333
883.262	22249
883.388	22169
883.514	22348
883.64	22455
883.766	22371
883.892	22135
884.018	22181
884.143	22261
884.269	22409
884.395	22116
884.52	21918
884.646	22086
884.772	21972
884.897	21816
885.023	21960
885.148	22101
885.274	22284
885.399	22139
885.524	22074
885.65	22158
885.775	22036
885.9	21899
886.025	22147
886.15	22048
886.275	21975
886.4	21911
886.525	22006
886.65	21892
886.775	21987
886.9	22048
887.025	22173
887.149	21983
887.274	21770
887.399	21831
887.523	21747
887.648	21800
887.773	21747
887.897	21762
888.021	21759
888.146	21660
888.27	21911
888.395	21861
888.519	21808
888.643	21876
888.767	21797
888.891	21675
889.015	21580
889.139	21652
889.263	21553
889.387	21774
889.511	21774
889.635	21720
889.759	21549
889.883	21641
890.006	21549
890.13	21644
890.254	21511
890.377	21447
890.501	21344
890.624	21230
890.748	21428
890.871	21329
890.995	21077
891.118	21188
891.241	21127
891.364	21135
891.488	21287
891.611	21272
891.734	21089
891.857	21112
891.98	21093
892.103	21066
892.226	21028
892.349	21104
892.471	20842
892.594	21138
892.717	21036
892.839	20979
892.962	21024
893.085	21047
893.207	20963
893.33	20963
893.452	20967
893.575	20967
893.697	20982
893.819	21123
893.941	21195
894.064	21032
894.186	21043
894.308	20883
894.43	21135
894.552	21100
894.674	21081
894.796	20830
894.918	21039
895.04	20929
895.161	21017
895.283	21077
895.405	20960
895.526	21074
895.648	20921
895.769	21024
895.891	21062
896.012	21218
896.134	21028
896.255	21123
896.376	21005
896.498	20933
896.619	21104
896.74	20960
896.861	20990
896.982	21321
897.103	21473
897.224	21226
897.345	21108
897.466	21135
897.587	21150
897.708	21378
897.828	21150
897.949	21214
898.07	20975
898.19	21199
898.311	21329
898.431	21157
898.552	21154
898.672	21325
898.792	21283
898.913	21252
899.033	21127
899.153	20956
899.273	20883
899.393	20899
899.513	20975
899.633	20842
899.753	20975
899.873	20804
899.993	20845
900.113	20815
900.232	20963
900.352	20804
900.472	20857
900.591	20678
900.711	20727
900.83	20575
900.95	20762
901.069	20807
901.189	20480
901.308	20347
901.427	20294
901.546	20168
901.665	20256
901.784	20267
901.904	20092
902.023	20058
902.141	19822
902.26	19753
902.379	19894
902.498	19784
902.617	19738
902.735	19822
902.854	19742
902.973	19635
903.091	19453
903.21	19480
903.328	19438
903.446	19369
903.565	19301
903.683	19301
903.801	19099
903.919	19244
904.038	19198
904.156	18973
904.274	19031
904.392	19015
904.51	18935
904.627	18973
904.745	19015
904.863	19061
904.981	18753
905.098	18730
905.216	18650
905.334	18661
905.451	18661
905.569	18608
905.686	18635
905.803	18677
905.921	18433
906.038	18365
906.155	18506
906.272	18296
906.389	18289
906.506	18148
906.623	18129
906.74	18178
906.857	18053
906.974	18091
907.091	18190
907.208	18186
907.324	18239
907.441	18171
907.557	17832
907.674	17893
907.79	17847
907.907	17855
908.023	17977
908.139	17851
908.256	17859
908.372	17775
908.488	17764
908.604	17630
908.72	17490
908.836	17653
908.952	17630
909.068	17608
909.184	17661
909.3	17699
909.415	17703
909.531	17528
909.647	17360
909.762	17284
909.878	17242
909.993	17391
910.108	17124
910.224	17235
910.339	17322
910.454	17033
910.57	17124
910.685	17025
910.8	17250
910.915	17239
911.03	17018
911.145	16911
911.259	16793
911.374	16946
911.489	16812
911.604	16850
911.718	16634
911.833	16634
911.947	16485
912.062	16481
912.176	16611
912.291	16538
912.405	16596
912.519	16831
912.633	16839
912.748	16630
912.862	16599
912.976	16531
913.09	16356
913.204	16413
913.318	16466
913.431	16531
913.545	16508
913.659	16573
913.772	16379
913.886	16223
914	16219
914.113	16299
914.226	16322
914.34	16299
914.453	16131
914.566	16226
914.68	16181
914.793	16090
914.906	15930
915.019	15766
915.132	15736
915.245	15789
915.358	15915
915.47	15816
915.583	15835
915.696	15713
915.809	15934
915.921	15922
916.034	15724
916.146	15629
916.259	15671
916.371	15690
916.483	15686
916.595	15599
916.708	15675
916.82	15671
916.932	15538
917.044	15530
917.156	15530
917.268	15397
917.38	15538
917.491	15374
917.603	15443
917.715	15523
917.826	15618
917.938	15317
918.049	15275
918.161	15325
918.272	15458
918.384	15557
918.495	15355
918.606	15340
918.717	15233
918.828	15154
918.939	15233
919.05	15089
919.161	15116
919.272	15074
919.383	15017
919.494	15131
919.604	15287
919.715	15176
919.826	15089
919.936	15043
920.047	15176
920.157	15176
920.267	15264
920.378	15199
920.488	15020
920.598	15313
920.708	15397
920.818	15195
920.928	15256
921.038	15405
921.148	15382
921.258	15062
921.368	14994
921.477	14883
921.587	14845
921.697	14663
921.806	14880
921.916	14560
922.025	14499
922.134	14457
922.244	14454
922.353	14507
922.462	14278
922.571	14256
922.68	14103
922.789	14069
922.898	14145
923.007	14077
923.116	14092
923.224	14081
923.333	14145
923.442	13997
923.55	13932
923.659	13951
923.767	14039
923.876	13811
923.984	14035
924.092	13833
924.201	13860
924.309	13902
924.417	13837
924.525	13765
924.633	13772
924.741	14530
924.849	13590
924.956	13712
925.064	13597
925.172	13525
925.279	13525
925.387	13502
925.494	13495
925.602	13594
925.709	13578
925.816	13480
925.924	13499
926.031	13563
926.138	13430
926.245	13445
926.352	13308
926.459	13495
926.566	13521
926.673	13381
926.779	13221
926.886	13145
926.993	13206
927.099	12993
927.206	12859
927.312	12935
927.419	13050
927.525	13114
927.631	13137
927.737	12924
927.843	12882
927.95	12776
928.056	12821
928.162	12924
928.267	12947
928.373	13521
928.479	13008
928.585	12544
928.69	12806
928.796	12840
928.901	12757
929.007	12654
929.112	12707
929.218	12597
929.323	12585
929.428	12544
929.533	12749
929.638	12517
929.743	12502
929.848	12601
929.953	12551
930.058	12456
930.163	12281
930.267	12315
930.372	12391
930.477	12163
930.581	12391
930.685	12334
930.79	12144
930.894	12144
930.998	12095
931.103	12304
931.207	11912
931.311	11832
931.415	11710
931.519	11566
931.623	11516
