Data from test_V78500241_808.txt Node
Date: Fri Mar 25 15:47:23 CST 2022
User: usil
Spectrometer: V785-0024
Trigger mode: 0
Integration Time (sec): 4.000000E-1
Scans to average: 1
Nonlinearity correction enabled: false
Boxcar width: 0
Storing dark spectrum: false
XAxis mode: Wavelengths
Number of Pixels in Spectrum: 1024
>>>>>Begin Spectral Data<<<<<
801.071	28230
801.214	28063
801.356	27751
801.499	27842
801.641	27625
801.783	27789
801.926	27648
802.068	27629
802.211	27682
802.353	27603
802.496	27317
802.638	27359
802.78	27291
802.923	27306
803.065	27401
803.208	27260
803.35	27481
803.492	27408
803.635	27583
803.777	27443
803.919	27500
804.061	27918
804.204	27507
804.346	27492
804.488	27557
804.63	27481
804.773	27443
804.915	27526
805.057	27667
805.199	27583
805.341	27610
805.483	27724
805.626	27663
805.768	27587
805.91	27755
806.052	27663
806.194	27523
806.336	27838
806.478	27873
806.62	27728
806.762	27728
806.904	27808
807.046	28177
807.188	28234
807.33	28032
807.472	28120
807.614	28021
807.756	28211
807.898	28040
808.04	27907
808.182	28021
808.324	27983
808.465	28032
808.607	28207
808.749	28459
808.891	28584
809.033	28615
809.174	28455
809.316	28238
809.458	28375
809.6	28322
809.741	28447
809.883	28546
810.025	28656
810.166	28721
810.308	28626
810.45	28569
810.591	28675
810.733	28325
810.875	28478
811.016	28352
811.158	28382
811.299	28580
811.441	28622
811.582	28592
811.724	28318
811.865	28314
812.007	28314
812.148	28360
812.29	28367
812.431	28508
812.573	28710
812.714	28934
812.855	28980
812.997	28949
813.138	29113
813.279	28965
813.421	29018
813.562	28938
813.703	28713
813.845	28641
813.986	28329
814.127	28242
814.268	28067
814.41	28131
814.551	28036
814.692	28055
814.833	28040
814.974	28067
815.115	28173
815.256	27998
815.397	27991
815.539	27956
815.68	27816
815.821	27789
815.962	27926
816.103	27880
816.244	27713
816.385	27720
816.526	27720
816.666	27576
816.807	27370
816.948	27515
817.089	27690
817.23	27389
817.371	27325
817.512	27519
817.653	27397
817.793	27416
817.934	27291
818.075	27355
818.216	27443
818.356	27310
818.497	27169
818.638	27135
818.778	27085
818.919	27401
819.06	27207
819.2	27348
819.341	27374
819.481	27340
819.622	27553
819.762	27816
819.903	27637
820.043	27580
820.184	27530
820.324	27515
820.465	27572
820.605	27526
820.746	27496
820.886	27424
821.026	27447
821.167	27389
821.307	27519
821.447	27443
821.588	27405
821.728	27218
821.868	27104
822.008	26834
822.149	26697
822.289	26857
822.429	26632
822.569	26434
822.709	26450
822.849	26450
822.99	26495
823.13	26278
823.27	26396
823.41	26142
823.55	26012
823.69	26305
823.83	26202
823.97	26142
824.11	25963
824.25	26058
824.389	26081
824.529	26172
824.669	26027
824.809	26172
824.949	26065
825.089	26069
825.228	26149
825.368	25906
825.508	25879
825.648	26027
825.787	25849
825.927	25978
826.067	25803
826.206	25898
826.346	26065
826.485	25966
826.625	25772
826.765	25997
826.904	25875
827.044	25708
827.183	25632
827.323	25582
827.462	25879
827.601	25696
827.741	25575
827.88	25590
828.02	25476
828.159	25582
828.298	25662
828.437	25567
828.577	25479
828.716	25647
828.855	25487
828.994	25335
829.134	25445
829.273	25259
829.412	25190
829.551	25114
829.69	25282
829.829	25388
829.968	25468
830.107	25400
830.246	25415
830.385	25331
830.524	25251
830.663	25187
830.802	25053
830.941	24920
831.08	24935
831.219	25107
831.357	24962
831.496	25000
831.635	24928
831.774	24833
831.913	24852
832.051	24764
832.19	24696
832.329	24665
832.467	24620
832.606	24585
832.744	24509
832.883	24521
833.022	24620
833.16	24616
833.299	24563
833.437	24665
833.576	24593
833.714	24741
833.852	24703
833.991	24654
834.129	24745
834.267	24741
834.406	24608
834.544	24601
834.682	24582
834.821	24661
834.959	24642
835.097	24498
835.235	24692
835.373	24654
835.511	24555
835.65	24574
835.788	24547
835.926	24384
836.064	24357
836.202	24262
836.34	24441
836.478	24555
836.615	24517
836.753	24426
836.891	24608
837.029	24437
837.167	24380
837.305	24361
837.443	24395
837.58	24330
837.718	24323
837.856	24330
837.993	24201
838.131	24353
838.269	24072
838.406	24338
838.544	24098
838.681	23935
838.819	23920
838.956	23828
839.094	23790
839.231	23863
839.369	23920
839.506	24140
839.643	24197
839.781	23847
839.918	23562
840.055	23760
840.193	23668
840.33	23718
840.467	23653
840.604	23748
840.742	23977
840.879	23455
841.016	23604
841.153	23718
841.29	23798
841.427	23813
841.564	23676
841.701	23699
841.838	23672
841.975	23611
842.112	23642
842.249	23459
842.385	23395
842.522	23653
842.659	23531
842.796	23524
842.933	23467
843.069	23406
843.206	23410
843.343	23551
843.479	23535
843.616	23459
843.752	23189
843.889	23098
844.025	23417
844.162	23181
844.298	23322
844.435	23162
844.571	23181
844.708	23162
844.844	23459
844.98	23273
845.117	23322
845.253	23162
845.389	23022
845.525	23140
845.661	22991
845.798	22938
845.934	23025
846.07	22919
846.206	23064
846.342	22995
846.478	22835
846.614	22706
846.75	22519
846.886	22683
847.022	22786
847.158	22660
847.294	22691
847.429	22721
847.565	22516
847.701	22862
847.837	22516
847.972	22360
848.108	22500
848.244	22519
848.379	22390
848.515	22257
848.65	22280
848.786	22276
848.921	22143
849.057	22284
849.192	22223
849.328	22295
849.463	22200
849.598	22147
849.734	22185
849.869	22040
850.004	22120
850.14	22055
850.275	22086
850.41	21949
850.545	21983
850.68	21964
850.815	22074
850.95	21991
851.085	22234
851.22	22188
851.355	22021
851.49	21987
851.625	21926
851.76	22109
851.895	21884
852.03	21994
852.165	21987
852.299	21979
852.434	22029
852.569	22017
852.703	22025
852.838	21949
852.973	21998
853.107	22215
853.242	21983
853.376	21850
853.511	21759
853.645	21835
853.78	21865
853.914	21831
854.048	21732
854.183	21926
854.317	21922
854.451	22093
854.585	21857
854.72	21808
854.854	21941
854.988	21762
855.122	21732
855.256	21789
855.39	21842
855.524	21907
855.658	21823
855.792	21770
855.926	21884
856.06	21736
856.194	22032
856.327	21854
856.461	21679
856.595	21713
856.729	21812
856.862	21979
856.996	21907
857.13	21888
857.263	21949
857.397	21915
857.53	21876
857.664	21816
857.797	21949
857.931	22021
858.064	21835
858.197	21960
858.331	21759
858.464	21774
858.597	21694
858.731	21838
858.864	21850
858.997	21838
859.13	21880
859.263	21850
859.396	21857
859.529	21831
859.662	21770
859.795	21762
859.928	21873
860.061	22067
860.194	22120
860.327	21850
860.46	21785
860.592	22090
860.725	21930
860.858	22029
860.99	21895
861.123	21816
861.256	21865
861.388	21865
861.521	22459
861.653	21751
861.786	21599
861.918	21698
862.05	21637
862.183	21876
862.315	21835
862.447	21781
862.58	21789
862.712	21504
862.844	21420
862.976	21603
863.108	21587
863.24	22055
863.372	21530
863.504	21477
863.636	21561
863.768	21587
863.9	21587
864.032	21408
864.164	21561
864.296	21572
864.428	21583
864.559	21663
864.691	21557
864.823	21526
864.954	21488
865.086	21428
865.217	21469
865.349	21435
865.48	21435
865.612	21473
865.743	21622
865.875	21408
866.006	21492
866.137	21485
866.269	21389
866.4	21458
866.531	21237
866.662	21294
866.793	21291
866.924	21374
867.055	21477
867.186	21370
867.317	21386
867.448	21192
867.579	21310
867.71	21310
867.841	21302
867.972	21344
868.103	21329
868.233	21439
868.364	21329
868.495	21405
868.625	21686
868.756	21713
868.886	21507
869.017	21519
869.147	21705
869.278	21701
869.408	21591
869.539	21500
869.669	21637
869.799	21701
869.929	21759
870.06	21690
870.19	21949
870.32	21991
870.45	21960
870.58	22044
870.71	22055
870.84	22082
870.97	22017
871.1	22036
871.23	22116
871.36	22135
871.489	22082
871.619	22150
871.749	22223
871.879	22181
872.008	22299
872.138	22261
872.267	22169
872.397	22166
872.526	21994
872.656	22017
872.785	22070
872.915	22135
873.044	22234
873.173	22375
873.303	22295
873.432	22272
873.561	22325
873.69	22097
873.819	22192
873.948	22284
874.077	22226
874.206	22268
874.335	22314
874.464	22348
874.593	22550
874.722	22508
874.851	22459
874.979	22462
875.108	22443
875.237	22356
875.365	22314
875.494	22493
875.623	22462
875.751	22375
875.88	22481
876.008	22611
876.136	22691
876.265	22850
876.393	23079
876.521	22790
876.65	22919
876.778	22854
876.906	22957
877.034	22786
877.162	22820
877.29	22653
877.418	22816
877.546	22721
877.674	22854
877.802	22729
877.93	22797
878.058	22729
878.185	22630
878.313	22672
878.441	22759
878.568	22725
878.696	22687
878.824	22706
878.951	22721
879.079	22976
879.206	23025
879.333	22816
879.461	22805
879.588	22843
879.715	22862
879.842	23109
879.97	22976
880.097	22603
880.224	22717
880.351	22630
880.478	22675
880.605	22470
880.732	22557
880.859	22755
880.986	22584
881.112	22516
881.239	22516
881.366	22375
881.493	22223
881.619	22318
881.746	22147
881.872	22158
881.999	22135
882.125	22150
882.252	22207
882.378	22207
882.505	22375
882.631	22032
882.757	21797
882.883	21892
883.01	21804
883.136	21892
883.262	21667
883.388	21671
883.514	21804
883.64	21964
883.766	21694
883.892	21713
884.018	21698
884.143	21880
884.269	21861
884.395	21606
884.52	21561
884.646	21481
884.772	21462
884.897	21340
885.023	21511
885.148	21618
885.274	21663
885.399	21610
885.524	21553
885.65	21591
885.775	21553
885.9	21424
886.025	21641
886.15	21462
886.275	21454
886.4	21485
886.525	21359
886.65	21374
886.775	21389
886.9	21595
887.025	21739
887.149	21363
887.274	21332
887.399	21340
887.523	21287
887.648	21218
887.773	21123
887.897	21424
888.021	21370
888.146	21279
888.27	21279
888.395	21374
888.519	21348
888.643	21241
888.767	21344
888.891	21237
889.015	21096
889.139	21203
889.263	21043
889.387	21116
889.511	21226
889.635	21154
889.759	21085
889.883	21005
890.006	21085
890.13	21081
890.254	20967
890.377	21066
890.501	20864
890.624	20693
890.748	20883
890.871	20864
890.995	20678
891.118	20629
891.241	20511
891.364	20705
891.488	20765
891.611	20686
891.734	20613
891.857	20629
891.98	20648
892.103	20617
892.226	20587
892.349	20575
892.471	20442
892.594	20469
892.717	20461
892.839	20560
892.962	20431
893.085	20682
893.207	20518
893.33	20438
893.452	20434
893.575	20667
893.697	20488
893.819	20754
893.941	20693
894.064	20602
894.186	20415
894.308	20431
894.43	20450
894.552	20697
894.674	20606
894.796	20358
894.918	20556
895.04	20495
895.161	20625
895.283	20583
895.405	20465
895.526	20514
895.648	20415
895.769	20606
895.891	20545
896.012	20568
896.134	20575
896.255	20518
896.376	20423
896.498	20545
896.619	20648
896.74	20545
896.861	20609
896.982	20826
897.103	20887
897.224	20785
897.345	20804
897.466	20682
897.587	20872
897.708	20849
897.828	20849
897.949	20663
898.07	20530
898.19	20670
898.311	20899
898.431	20564
898.552	20697
898.672	20762
898.792	20861
898.913	20769
899.033	20621
899.153	20564
899.273	20495
899.393	20442
899.513	20514
899.633	20621
899.753	20484
899.873	20423
899.993	20457
900.113	20336
900.232	20396
900.352	20381
900.472	20290
900.591	20240
900.711	20347
900.83	20180
900.95	20290
901.069	20313
901.189	20164
901.308	19852
901.427	19795
901.546	19864
901.665	19799
901.784	19902
901.904	19655
902.023	19578
902.141	19377
902.26	19343
902.379	19354
902.498	19377
902.617	19270
902.735	19407
902.854	19320
902.973	19114
903.091	19015
903.21	19019
903.328	18966
903.446	18939
903.565	18810
903.683	18745
903.801	18661
903.919	18749
904.038	18768
904.156	18494
904.274	18700
904.392	18582
904.51	18559
904.627	18574
904.745	18612
904.863	18479
904.981	18311
905.098	18300
905.216	18152
905.334	18247
905.451	18273
905.569	18197
905.686	18289
905.803	18228
905.921	18003
906.038	18171
906.155	18053
906.272	17843
906.389	17920
906.506	17722
906.623	17817
906.74	17847
906.857	17615
906.974	17646
907.091	17771
907.208	17794
907.324	17836
907.441	17714
907.557	17452
907.674	17379
907.79	17463
907.907	17444
908.023	17493
908.139	17467
908.256	17474
908.372	17353
908.488	17318
908.604	17208
908.72	17212
908.836	17166
908.952	17064
909.068	17200
909.184	17315
909.3	17170
909.415	17185
909.531	17189
909.647	16927
909.762	17014
909.878	16908
909.993	16911
910.108	16892
910.224	16877
910.339	16820
910.454	16740
910.57	16660
910.685	16630
910.8	16946
910.915	16767
911.03	16702
911.145	16489
911.259	16474
911.374	16455
911.489	16402
911.604	16322
911.718	16158
911.833	16207
911.947	16101
912.062	16074
912.176	16166
912.291	16318
912.405	16242
912.519	16386
912.633	16329
912.748	16268
912.862	16192
912.976	16097
913.09	15903
913.204	16063
913.318	15998
913.431	16082
913.545	16055
913.659	16158
913.772	16051
913.886	15869
914	15819
914.113	15972
914.226	15922
914.34	15854
914.453	15682
914.566	15899
914.68	15686
914.793	15774
914.906	15553
915.019	15408
915.132	15374
915.245	15378
915.358	15443
915.47	15378
915.583	15416
915.696	15458
915.809	15507
915.921	15534
916.034	15405
916.146	15401
916.259	15279
916.371	15393
916.483	15306
916.595	15260
916.708	15237
916.82	15279
916.932	15313
917.044	15211
917.156	15241
917.268	15001
917.38	15104
917.491	15058
917.603	15085
917.715	15157
917.826	15173
917.938	14975
918.049	14891
918.161	15085
918.272	15173
918.384	15150
918.495	14975
918.606	14857
918.717	14842
918.828	14823
918.939	14807
919.05	14686
919.161	14750
919.272	14617
919.383	14678
919.494	14853
919.604	15001
919.715	14861
919.826	14758
919.936	14739
920.047	14800
920.157	14815
920.267	14967
920.378	14807
920.488	14724
920.598	14914
920.708	15062
920.818	14998
920.928	14921
921.038	15051
921.148	14971
921.258	14762
921.368	14602
921.477	14511
921.587	14530
921.697	14438
921.806	14526
921.916	14324
922.025	14134
922.134	14172
922.244	14088
922.353	14126
922.462	14027
922.571	13986
922.68	13765
922.789	13784
922.898	13799
923.007	13693
923.116	13795
923.224	13784
923.333	13742
923.442	13636
923.55	13582
923.659	13552
923.767	13605
923.876	13601
923.984	13601
924.092	13434
924.201	13567
924.309	13586
924.417	13472
924.525	13525
924.633	13411
924.741	14393
924.849	13198
924.956	13358
925.064	13221
925.172	13209
925.279	13278
925.387	13202
925.494	13232
925.602	13324
925.709	13247
925.816	13091
925.924	13099
926.031	13206
926.138	13065
926.245	13156
926.352	13038
926.459	13209
926.566	13103
926.673	13084
926.779	12985
926.886	12954
926.993	12932
927.099	12688
927.206	12623
927.312	12715
927.419	12741
927.525	12741
927.631	12749
927.737	12631
927.843	12639
927.95	12475
928.056	12582
928.162	12528
928.267	12608
928.373	13217
928.479	12642
928.585	12403
928.69	12498
928.796	12642
928.901	12357
929.007	12292
929.112	12414
929.218	12372
929.323	12327
929.428	12270
929.533	12422
929.638	12247
929.743	12273
929.848	12319
929.953	12247
930.058	12110
930.163	11988
930.267	11977
930.372	12087
930.477	11904
930.581	12136
930.685	12045
930.79	11916
930.894	11927
930.998	11897
931.103	11916
931.207	11524
931.311	11581
931.415	11440
931.519	11242
931.623	11189
