Data from test_V78500241_312.txt Node
Date: Fri Mar 25 15:43:57 CST 2022
User: usil
Spectrometer: V785-0024
Trigger mode: 0
Integration Time (sec): 4.000000E-1
Scans to average: 1
Nonlinearity correction enabled: false
Boxcar width: 0
Storing dark spectrum: false
XAxis mode: Wavelengths
Number of Pixels in Spectrum: 1024
>>>>>Begin Spectral Data<<<<<
801.071	29878
801.214	29756
801.356	29528
801.499	29512
801.641	29528
801.783	29516
801.926	29535
802.068	29406
802.211	29239
802.353	29254
802.496	29174
802.638	29098
802.78	29109
802.923	29025
803.065	29018
803.208	29117
803.35	29044
803.492	29261
803.635	29254
803.777	29147
803.919	29375
804.061	29562
804.204	29292
804.346	29140
804.488	29143
804.63	29292
804.773	29181
804.915	29341
805.057	29433
805.199	29299
805.341	29391
805.483	29330
805.626	29375
805.768	29341
805.91	29280
806.052	29429
806.194	29250
806.336	29493
806.478	29375
806.62	29474
806.762	29551
806.904	29771
807.046	29984
807.188	29817
807.33	29931
807.472	29882
807.614	29802
807.756	29729
807.898	29566
808.04	29627
808.182	29676
808.324	29661
808.465	29665
808.607	29809
808.749	30076
808.891	30209
809.033	30228
809.174	30049
809.316	30041
809.458	29912
809.6	29904
809.741	30114
809.883	30174
810.025	30319
810.166	30289
810.308	30232
810.45	30209
810.591	30285
810.733	30258
810.875	30003
811.016	29992
811.158	29992
811.299	30357
811.441	30194
811.582	30079
811.724	30182
811.865	30041
812.007	29843
812.148	30068
812.29	30121
812.431	30346
812.573	30334
812.714	30566
812.855	30536
812.997	30696
813.138	30897
813.279	30574
813.421	30616
813.562	30365
813.703	30475
813.845	30308
813.986	30102
814.127	29912
814.268	29745
814.41	29821
814.551	29539
814.692	29726
814.833	29619
814.974	29646
815.115	29676
815.256	29592
815.397	29551
815.539	29581
815.68	29471
815.821	29277
815.962	29440
816.103	29383
816.244	29261
816.385	29208
816.526	29239
816.666	29094
816.807	28976
816.948	29136
817.089	29014
817.23	28953
817.371	28991
817.512	28801
817.653	28946
817.793	28965
817.934	28965
818.075	28976
818.216	28957
818.356	28915
818.497	28774
818.638	28763
818.778	28634
818.919	28778
819.06	28611
819.2	28736
819.341	28793
819.481	28831
819.622	28984
819.762	29353
819.903	29189
820.043	29052
820.184	28946
820.324	29124
820.465	29147
820.605	29086
820.746	28968
820.886	28767
821.026	28999
821.167	28984
821.307	29014
821.447	28862
821.588	28771
821.728	28691
821.868	28542
822.008	28413
822.149	28219
822.289	28390
822.429	28067
822.569	27998
822.709	27941
822.849	27800
822.99	27994
823.13	27778
823.27	27888
823.41	27675
823.55	27629
823.69	27667
823.83	27812
823.97	27618
824.11	27462
824.25	27325
824.389	27614
824.529	27526
824.669	27568
824.809	27804
824.949	27622
825.089	27473
825.228	27553
825.368	27370
825.508	27351
825.648	27275
825.787	27272
825.927	27405
826.067	27264
826.206	27230
826.346	27405
826.485	27351
826.625	27317
826.765	27363
826.904	27317
827.044	27077
827.183	27009
827.323	26982
827.462	26982
827.601	26944
827.741	27036
827.88	26952
828.02	26872
828.159	26921
828.298	26982
828.437	27062
828.577	26899
828.716	27001
828.855	26876
828.994	26629
829.134	26663
829.273	26693
829.412	26705
829.551	26701
829.69	26503
829.829	26609
829.968	26785
830.107	26750
830.246	26663
830.385	26648
830.524	26492
830.663	26560
830.802	26313
830.941	26176
831.08	26164
831.219	26294
831.357	26343
831.496	26355
831.635	26206
831.774	25982
831.913	25997
832.051	26035
832.19	25978
832.329	25993
832.467	25875
832.606	25826
832.744	25909
832.883	25902
833.022	25841
833.16	25940
833.299	25845
833.437	25849
833.576	25894
833.714	25723
833.852	25879
833.991	26027
834.129	26005
834.267	25947
834.406	25772
834.544	25898
834.682	25864
834.821	25788
834.959	25986
835.097	25811
835.235	25860
835.373	25894
835.511	25909
835.65	25704
835.788	25597
835.926	25502
836.064	25521
836.202	25559
836.34	25765
836.478	25772
836.615	25696
836.753	25681
836.891	25635
837.029	25727
837.167	25666
837.305	25681
837.443	25620
837.58	25525
837.718	25753
837.856	25468
837.993	25540
838.131	25468
838.269	25457
838.406	25445
838.544	25358
838.681	25103
838.819	25129
838.956	24894
839.094	24814
839.231	24814
839.369	25114
839.506	25358
839.643	25183
839.781	24966
839.918	24817
840.055	24954
840.193	24852
840.33	24856
840.467	24772
840.604	24954
840.742	25031
840.879	24719
841.016	24753
841.153	24696
841.29	24875
841.427	24696
841.564	24878
841.701	24951
841.838	24593
841.975	24661
842.112	24711
842.249	24707
842.385	24612
842.522	24814
842.659	24570
842.796	24448
842.933	24475
843.069	24452
843.206	24441
843.343	24509
843.479	24498
843.616	24540
843.752	24300
843.889	24216
844.025	24376
844.162	24216
844.298	24517
844.435	24247
844.571	24117
844.708	24296
844.844	24380
844.98	24372
845.117	24304
845.253	24136
845.389	24243
845.525	24106
845.661	24114
845.798	24015
845.934	23958
846.07	24045
846.206	24155
846.342	24068
846.478	23939
846.614	23737
846.75	23554
846.886	23611
847.022	23726
847.158	23726
847.294	23707
847.429	23672
847.565	23737
847.701	23942
847.837	23493
847.972	23307
848.108	23417
848.244	23425
848.379	23197
848.515	23296
848.65	23216
848.786	23269
848.921	23356
849.057	23455
849.192	23296
849.328	23265
849.463	23303
849.598	23239
849.734	23269
849.869	23010
850.004	23052
850.14	22968
850.275	22965
850.41	22755
850.545	22824
850.68	22889
850.815	22965
850.95	22896
851.085	23109
851.22	23018
851.355	23044
851.49	22927
851.625	22942
851.76	22896
851.895	22847
852.03	22835
852.165	22786
852.299	23003
852.434	23014
852.569	22991
852.703	22957
852.838	23033
852.973	22984
853.107	23010
853.242	22835
853.376	22668
853.511	22596
853.645	22816
853.78	22900
853.914	22809
854.048	22733
854.183	22793
854.317	22763
854.451	22858
854.585	22675
854.72	22721
854.854	22748
854.988	22736
855.122	22812
855.256	22580
855.39	22782
855.524	22877
855.658	22805
855.792	22835
855.926	22809
856.06	22782
856.194	22858
856.327	22809
856.461	22694
856.595	22618
856.729	22710
856.862	22869
856.996	22755
857.13	22763
857.263	22797
857.397	22980
857.53	22660
857.664	22828
857.797	22797
857.931	22862
858.064	22721
858.197	22946
858.331	22694
858.464	22668
858.597	22569
858.731	22649
858.864	22809
858.997	22622
859.13	22755
859.263	22713
859.396	22717
859.529	22740
859.662	22706
859.795	22592
859.928	22713
860.061	22748
860.194	22908
860.327	22809
860.46	22797
860.592	22793
860.725	22767
860.858	22820
860.99	22786
861.123	22565
861.256	22618
861.388	22702
861.521	23444
861.653	22596
861.786	22527
861.918	22580
862.05	22744
862.183	22618
862.315	22740
862.447	22733
862.58	22748
862.712	22565
862.844	22363
862.976	22538
863.108	22481
863.24	22930
863.372	22314
863.504	22375
863.636	22447
863.768	22417
863.9	22405
864.032	22280
864.164	22341
864.296	22398
864.428	22474
864.559	22360
864.691	22508
864.823	22367
864.954	22417
865.086	22428
865.217	22329
865.349	22139
865.48	22192
865.612	22223
865.743	22341
865.875	22230
866.006	22173
866.137	22181
866.269	22238
866.4	22257
866.531	22185
866.662	22082
866.793	22192
866.924	22257
867.055	22272
867.186	22188
867.317	22150
867.448	22093
867.579	22188
867.71	22070
867.841	22166
867.972	22207
868.103	22120
868.233	22139
868.364	22211
868.495	22150
868.625	22379
868.756	22554
868.886	22440
869.017	22379
869.147	22455
869.278	22542
869.408	22470
869.539	22386
869.669	22470
869.799	22561
869.929	22542
870.06	22447
870.19	22866
870.32	22752
870.45	22683
870.58	22805
870.71	22889
870.84	22930
870.97	22839
871.1	22847
871.23	22949
871.36	23033
871.489	22831
871.619	22961
871.749	22900
871.879	23041
872.008	23151
872.138	23003
872.267	23102
872.397	22984
872.526	22854
872.656	22866
872.785	22793
872.915	23121
873.044	23140
873.173	23105
873.303	23128
873.432	23250
873.561	23303
873.69	22965
873.819	23086
873.948	23166
874.077	23052
874.206	22984
874.335	23094
874.464	23265
874.593	23239
874.722	23200
874.851	23368
874.979	23204
875.108	23231
875.237	23162
875.365	23162
875.494	23162
875.623	23330
875.751	23197
875.88	23246
876.008	23387
876.136	23440
876.265	23634
876.393	23802
876.521	23836
876.65	23642
876.778	23611
876.906	23722
877.034	23577
877.162	23642
877.29	23646
877.418	23554
877.546	23623
877.674	23566
877.802	23623
877.93	23596
878.058	23554
878.185	23402
878.313	23520
878.441	23627
878.568	23497
878.696	23558
878.824	23741
878.951	23604
879.079	23741
879.206	23870
879.333	23657
879.461	23486
879.588	23760
879.715	23779
879.842	23946
879.97	23615
880.097	23467
880.224	23296
880.351	23482
880.478	23402
880.605	23349
880.732	23337
880.859	23627
880.986	23436
881.112	23425
881.239	23318
881.366	23098
881.493	23075
881.619	23033
881.746	22927
881.872	22927
881.999	22858
882.125	22999
882.252	23037
882.378	22797
882.505	23090
882.631	22824
882.757	22634
882.883	22660
883.01	22706
883.136	22611
883.262	22637
883.388	22596
883.514	22577
883.64	22611
883.766	22489
883.892	22440
884.018	22481
884.143	22622
884.269	22634
884.395	22348
884.52	22242
884.646	22276
884.772	22268
884.897	22185
885.023	22329
885.148	22177
885.274	22455
885.399	22417
885.524	22299
885.65	22291
885.775	22325
885.9	22188
886.025	22318
886.15	22447
886.275	22280
886.4	22063
886.525	22154
886.65	22116
886.775	22162
886.9	22382
887.025	22573
887.149	22337
887.274	22185
887.399	22010
887.523	22025
887.648	21956
887.773	22025
887.897	22181
888.021	22128
888.146	21956
888.27	22128
888.395	22082
888.519	21991
888.643	21968
888.767	22169
888.891	21953
889.015	21804
889.139	21941
889.263	21785
889.387	21899
889.511	22051
889.635	21888
889.759	21781
889.883	21667
890.006	21827
890.13	21968
890.254	21622
890.377	21770
890.501	21580
890.624	21458
890.748	21507
890.871	21370
890.995	21344
891.118	21275
891.241	21435
891.364	21317
891.488	21431
891.611	21374
891.734	21370
891.857	21477
891.98	21401
892.103	21256
892.226	21363
892.349	21313
892.471	21093
892.594	21195
892.717	21260
892.839	21192
892.962	21287
893.085	21355
893.207	21268
893.33	21070
893.452	21199
893.575	21275
893.697	21173
893.819	21428
893.941	21553
894.064	21226
894.186	21154
894.308	21131
894.43	21249
894.552	21306
894.674	21279
894.796	21077
894.918	21112
895.04	21245
895.161	21336
895.283	21264
895.405	21074
895.526	21211
895.648	21272
895.769	21256
895.891	21203
896.012	21222
896.134	21336
896.255	21245
896.376	21184
896.498	21272
896.619	21260
896.74	21192
896.861	21325
896.982	21526
897.103	21739
897.224	21496
897.345	21492
897.466	21412
897.587	21382
897.708	21488
897.828	21545
897.949	21477
898.07	21298
898.19	21393
898.311	21629
898.431	21530
898.552	21389
898.672	21435
898.792	21481
898.913	21477
899.033	21294
899.153	21154
899.273	21077
899.393	21112
899.513	21100
899.633	21169
899.753	21085
899.873	20994
899.993	21051
900.113	21024
900.232	21085
900.352	20948
900.472	20963
900.591	20876
900.711	20872
900.83	20693
900.95	20941
901.069	20994
901.189	20838
901.308	20549
901.427	20442
901.546	20522
901.665	20495
901.784	20541
901.904	20290
902.023	20259
902.141	20046
902.26	19940
902.379	20027
902.498	19997
902.617	19887
902.735	19925
902.854	19803
902.973	19894
903.091	19605
903.21	19578
903.328	19487
903.446	19609
903.565	19434
903.683	19419
903.801	19240
903.919	19339
904.038	19221
904.156	19095
904.274	19285
904.392	19129
904.51	19027
904.627	19057
904.745	19118
904.863	19198
904.981	18833
905.098	18741
905.216	18894
905.334	18734
905.451	18867
905.569	18894
905.686	18779
905.803	18715
905.921	18654
906.038	18745
906.155	18559
906.272	18612
906.389	18361
906.506	18346
906.623	18262
906.74	18532
906.857	18182
906.974	18277
907.091	18391
907.208	18391
907.324	18251
907.441	18228
907.557	18015
907.674	17992
907.79	17912
907.907	17912
908.023	17999
908.139	18003
908.256	18034
908.372	17859
908.488	17813
908.604	17672
908.72	17630
908.836	17627
908.952	17649
909.068	17748
909.184	17790
909.3	17695
909.415	17707
909.531	17558
909.647	17296
909.762	17429
909.878	17334
909.993	17326
910.108	17368
910.224	17193
910.339	17311
910.454	17364
910.57	17136
910.685	17239
910.8	17341
910.915	17307
911.03	17258
911.145	16957
911.259	17018
911.374	17022
911.489	16938
911.604	16793
911.718	16702
911.833	16713
911.947	16618
912.062	16584
912.176	16607
912.291	16615
912.405	16641
912.519	16949
912.633	16934
912.748	16641
912.862	16554
912.976	16504
913.09	16371
913.204	16375
913.318	16497
913.431	16554
913.545	16573
913.659	16478
913.772	16478
913.886	16322
914	16162
914.113	16367
914.226	16421
914.34	16352
914.453	16071
914.566	16173
914.68	16116
914.793	16055
914.906	15945
915.019	15781
915.132	15778
915.245	15850
915.358	15873
915.47	15903
915.583	15850
915.696	15778
915.809	16032
915.921	15964
916.034	15755
916.146	15679
916.259	15713
916.371	15770
916.483	15698
916.595	15732
916.708	15652
916.82	15660
916.932	15576
917.044	15603
917.156	15576
917.268	15538
917.38	15469
917.491	15515
917.603	15515
917.715	15466
917.826	15504
917.938	15386
918.049	15226
918.161	15431
918.272	15580
918.384	15469
918.495	15348
918.606	15252
918.717	15138
918.828	15230
918.939	15306
919.05	15074
919.161	15165
919.272	15070
919.383	15062
919.494	15317
919.604	15378
919.715	15119
919.826	15020
919.936	14979
920.047	15173
920.157	15142
920.267	15291
920.378	15081
920.488	15013
920.598	15249
920.708	15302
920.818	15230
920.928	15218
921.038	15428
921.148	15355
921.258	15074
921.368	14937
921.477	14838
921.587	14807
921.697	14735
921.806	14849
921.916	14720
922.025	14629
922.134	14568
922.244	14526
922.353	14537
922.462	14309
922.571	14278
922.68	14081
922.789	14092
922.898	14229
923.007	14058
923.116	14126
923.224	14138
923.333	14008
923.442	13982
923.55	13871
923.659	13955
923.767	13989
923.876	13761
923.984	13997
924.092	13814
924.201	13811
924.309	13845
924.417	13830
924.525	13715
924.633	13712
924.741	14788
924.849	13510
924.956	13677
925.064	13506
925.172	13362
925.279	13468
925.387	13582
925.494	13518
925.602	13548
925.709	13518
925.816	13377
925.924	13491
926.031	13594
926.138	13499
926.245	13472
926.352	13400
926.459	13377
926.566	13411
926.673	13396
926.779	13297
926.886	13217
926.993	13103
927.099	13008
927.206	12993
927.312	12943
927.419	13053
927.525	13076
927.631	13015
927.737	12916
927.843	12920
927.95	12711
928.056	12814
928.162	12829
928.267	12970
928.373	13544
928.479	12935
928.585	12715
928.69	12779
928.796	12867
928.901	12707
929.007	12498
929.112	12722
929.218	12662
929.323	12616
929.428	12601
929.533	12646
929.638	12479
929.743	12547
929.848	12585
929.953	12498
930.058	12365
930.163	12254
930.267	12159
930.372	12346
930.477	12228
930.581	12433
930.685	12285
930.79	12144
930.894	12091
930.998	12076
931.103	12152
931.207	11851
931.311	11771
931.415	11813
931.519	11535
931.623	11425
