Data from test_V78500241_1107.txt Node
Date: Fri Mar 25 15:49:28 CST 2022
User: usil
Spectrometer: V785-0024
Trigger mode: 0
Integration Time (sec): 4.000000E-1
Scans to average: 1
Nonlinearity correction enabled: false
Boxcar width: 0
Storing dark spectrum: false
XAxis mode: Wavelengths
Number of Pixels in Spectrum: 1024
>>>>>Begin Spectral Data<<<<<
801.071	28607
801.214	28436
801.356	28086
801.499	28078
801.641	27960
801.783	28021
801.926	28158
802.068	27914
802.211	27914
802.353	27888
802.496	27743
802.638	27751
802.78	27622
802.923	27523
803.065	27523
803.208	27530
803.35	27774
803.492	27854
803.635	27854
803.777	27728
803.919	27934
804.061	28219
804.204	27880
804.346	27884
804.488	27751
804.63	27861
804.773	27842
804.915	27937
805.057	28029
805.199	27869
805.341	27892
805.483	27991
805.626	28082
805.768	27854
805.91	28097
806.052	28021
806.194	27869
806.336	28253
806.478	28215
806.62	28120
806.762	28166
806.904	28265
807.046	28656
807.188	28424
807.33	28554
807.472	28500
807.614	28443
807.756	28413
807.898	28322
808.04	28337
808.182	28223
808.324	28219
808.465	28512
808.607	28573
808.749	28679
808.891	28831
809.033	28805
809.174	28831
809.316	28645
809.458	28668
809.6	28733
809.741	28862
809.883	28816
810.025	28968
810.166	29105
810.308	29094
810.45	29162
810.591	28923
810.733	28877
810.875	28862
811.016	28527
811.158	28618
811.299	28824
811.441	29010
811.582	28873
811.724	28611
811.865	28679
812.007	28839
812.148	28698
812.29	28713
812.431	29159
812.573	29090
812.714	29208
812.855	29299
812.997	29383
813.138	29539
813.279	29512
813.421	29185
813.562	29197
813.703	29193
813.845	29064
813.986	28729
814.127	28577
814.268	28276
814.41	28542
814.551	28474
814.692	28500
814.833	28337
814.974	28394
815.115	28382
815.256	28253
815.397	28352
815.539	28497
815.68	28185
815.821	28234
815.962	28246
816.103	28325
816.244	28299
816.385	27972
816.526	27960
816.666	27914
816.807	27648
816.948	27823
817.089	27846
817.23	27785
817.371	27816
817.512	27808
817.653	27728
817.793	27728
817.934	27622
818.075	27682
818.216	27671
818.356	27675
818.497	27648
818.638	27424
818.778	27477
818.919	27469
819.06	27690
819.2	27660
819.341	27804
819.481	27785
819.622	28006
819.762	28093
819.903	27903
820.043	27812
820.184	27842
820.324	27930
820.465	27888
820.605	27903
820.746	27857
820.886	27846
821.026	27949
821.167	27827
821.307	27922
821.447	27854
821.588	27766
821.728	27515
821.868	27538
822.008	27218
822.149	27306
822.289	27203
822.429	26963
822.569	27009
822.709	26899
822.849	26788
822.99	26781
823.13	26868
823.27	26830
823.41	26579
823.55	26434
823.69	26708
823.83	26583
823.97	26640
824.11	26495
824.25	26484
824.389	26568
824.529	26404
824.669	26473
824.809	26583
824.949	26484
825.089	26571
825.228	26469
825.368	26415
825.508	26431
825.648	26366
825.787	26328
825.927	26389
826.067	26256
826.206	26210
826.346	26339
826.485	26499
826.625	26336
826.765	26484
826.904	26237
827.044	26062
827.183	26005
827.323	26024
827.462	26244
827.601	26054
827.741	25978
827.88	26081
828.02	25868
828.159	25959
828.298	26024
828.437	26020
828.577	25947
828.716	26062
828.855	25993
828.994	25677
829.134	25681
829.273	25864
829.412	25731
829.551	25738
829.69	25769
829.829	25776
829.968	25830
830.107	25738
830.246	25769
830.385	25643
830.524	25628
830.663	25540
830.802	25487
830.941	25377
831.08	25308
831.219	25464
831.357	25384
831.496	25567
831.635	25403
831.774	25369
831.913	25232
832.051	25122
832.19	25320
832.329	25183
832.467	25156
832.606	24962
832.744	25061
832.883	25027
833.022	24943
833.16	25141
833.299	25031
833.437	25126
833.576	25152
833.714	25095
833.852	25240
833.991	25168
834.129	25099
834.267	25129
834.406	25050
834.544	25091
834.682	25031
834.821	25057
834.959	25209
835.097	24962
835.235	25091
835.373	25148
835.511	25046
835.65	24894
835.788	24871
835.926	24867
836.064	24730
836.202	24749
836.34	24867
836.478	24890
836.615	24932
836.753	24901
836.891	24958
837.029	24989
837.167	24703
837.305	24833
837.443	24829
837.58	24620
837.718	24700
837.856	24867
837.993	24688
838.131	24669
838.269	24517
838.406	24696
838.544	24513
838.681	24380
838.819	24346
838.956	24178
839.094	24121
839.231	24220
839.369	24338
839.506	24490
839.643	24292
839.781	24232
839.918	24232
840.055	24190
840.193	24129
840.33	24129
840.467	24235
840.604	24171
840.742	24361
840.879	23946
841.016	24091
841.153	23969
841.29	24125
841.427	24159
841.564	24015
841.701	23969
841.838	23984
841.975	23920
842.112	23973
842.249	24007
842.385	23992
842.522	24079
842.659	23859
842.796	23783
842.933	23847
843.069	23775
843.206	23737
843.343	23813
843.479	23942
843.616	23935
843.752	23604
843.889	23680
844.025	23767
844.162	23608
844.298	23687
844.435	23516
844.571	23592
844.708	23547
844.844	23722
844.98	23752
845.117	23726
845.253	23691
845.389	23524
845.525	23467
845.661	23421
845.798	23364
845.934	23436
846.07	23334
846.206	23258
846.342	23520
846.478	23372
846.614	23014
846.75	23113
846.886	22896
847.022	23113
847.158	23094
847.294	23067
847.429	23151
847.565	23052
847.701	23356
847.837	22809
847.972	22793
848.108	23014
848.244	22828
848.379	22748
848.515	22626
848.65	22653
848.786	22713
848.921	22588
849.057	22869
849.192	22626
849.328	22721
849.463	22584
849.598	22538
849.734	22565
849.869	22588
850.004	22348
850.14	22497
850.275	22443
850.41	22352
850.545	22310
850.68	22466
850.815	22386
850.95	22386
851.085	22565
851.22	22630
851.355	22352
851.49	22481
851.625	22440
851.76	22360
851.895	22318
852.03	22314
852.165	22322
852.299	22474
852.434	22462
852.569	22523
852.703	22356
852.838	22531
852.973	22382
853.107	22580
853.242	22375
853.376	22219
853.511	22177
853.645	22257
853.78	22356
853.914	22268
854.048	22154
854.183	22234
854.317	22185
854.451	22348
854.585	22219
854.72	22325
854.854	22284
854.988	22135
855.122	22200
855.256	22082
855.39	22200
855.524	22223
855.658	22360
855.792	22261
855.926	22299
856.06	22204
856.194	22299
856.327	22329
856.461	22215
856.595	22200
856.729	22185
856.862	22428
856.996	22219
857.13	22382
857.263	22299
857.397	22409
857.53	22249
857.664	22150
857.797	22314
857.931	22287
858.064	22219
858.197	22421
858.331	22291
858.464	22219
858.597	22173
858.731	22230
858.864	22204
858.997	22173
859.13	22219
859.263	22211
859.396	22280
859.529	22093
859.662	22169
859.795	22200
859.928	22223
860.061	22329
860.194	22306
860.327	22386
860.46	22158
860.592	22379
860.725	22402
860.858	22322
860.99	22223
861.123	22246
861.256	22150
861.388	22230
861.521	22949
861.653	22158
861.786	21865
861.918	22150
862.05	22116
862.183	22120
862.315	22017
862.447	22287
862.58	22032
862.712	21930
862.844	21953
862.976	22048
863.108	21968
863.24	22333
863.372	21915
863.504	21918
863.636	21895
863.768	21930
863.9	21899
864.032	21956
864.164	21797
864.296	21831
864.428	22055
864.559	22086
864.691	21922
864.823	21941
864.954	21953
865.086	21827
865.217	21888
865.349	21641
865.48	21857
865.612	21743
865.743	22059
865.875	21797
866.006	21739
866.137	21781
866.269	21762
866.4	21690
866.531	21728
866.662	21667
866.793	21660
866.924	21724
867.055	21831
867.186	21690
867.317	21717
867.448	21705
867.579	21587
867.71	21652
867.841	21679
867.972	21648
868.103	21751
868.233	21644
868.364	21804
868.495	21888
868.625	21918
868.756	22158
868.886	21945
869.017	21922
869.147	22029
869.278	22078
869.408	21998
869.539	21998
869.669	22021
869.799	22112
869.929	22131
870.06	22093
870.19	22352
870.32	22382
870.45	22230
870.58	22421
870.71	22504
870.84	22375
870.97	22379
871.1	22310
871.23	22538
871.36	22531
871.489	22489
871.619	22489
871.749	22580
871.879	22630
872.008	22641
872.138	22531
872.267	22470
872.397	22432
872.526	22318
872.656	22428
872.785	22451
872.915	22577
873.044	22683
873.173	22527
873.303	22706
873.432	22664
873.561	22713
873.69	22542
873.819	22493
873.948	22641
874.077	22584
874.206	22523
874.335	22592
874.464	22702
874.593	22824
874.722	22710
874.851	22782
874.979	22694
875.108	22877
875.237	22755
875.365	22755
875.494	22721
875.623	22896
875.751	22778
875.88	22839
876.008	22923
876.136	22980
876.265	23105
876.393	23204
876.521	23288
876.65	23189
876.778	23132
876.906	23018
877.034	23246
877.162	23151
877.29	23132
877.418	23239
877.546	23155
877.674	23083
877.802	23181
877.93	23067
878.058	23083
878.185	23022
878.313	23075
878.441	23143
878.568	23064
878.696	23178
878.824	23185
878.951	23220
879.079	23235
879.206	23448
879.333	23299
879.461	23269
879.588	23292
879.715	23303
879.842	23330
879.97	23109
880.097	22942
880.224	22889
880.351	23014
880.478	22999
880.605	22915
880.732	22904
880.859	23178
880.986	23025
881.112	23041
881.239	22915
881.366	22679
881.493	22717
881.619	22637
881.746	22584
881.872	22497
881.999	22519
882.125	22367
882.252	22519
882.378	22577
882.505	22561
882.631	22386
882.757	22276
882.883	22211
883.01	22185
883.136	22147
883.262	21994
883.388	22116
883.514	22219
883.64	22249
883.766	22150
883.892	21956
884.018	22093
884.143	22226
884.269	22272
884.395	21884
884.52	21743
884.646	21694
884.772	21804
884.897	21747
885.023	21873
885.148	22032
885.274	21930
885.399	21987
885.524	21785
885.65	21926
885.775	21739
885.9	21713
886.025	21903
886.15	21892
886.275	21762
886.4	21766
886.525	21698
886.65	21781
886.775	21899
886.9	21960
887.025	22059
887.149	21869
887.274	21759
887.399	21644
887.523	21667
887.648	21667
887.773	21466
887.897	21675
888.021	21671
888.146	21496
888.27	21580
888.395	21652
888.519	21610
888.643	21686
888.767	21549
888.891	21606
889.015	21321
889.139	21416
889.263	21420
889.387	21622
889.511	21553
889.635	21420
889.759	21351
889.883	21466
890.006	21291
890.13	21408
890.254	21291
890.377	21233
890.501	21119
890.624	21146
890.748	21070
890.871	21081
890.995	20773
891.118	20899
891.241	20933
891.364	20956
891.488	21119
891.611	20899
891.734	20990
891.857	20933
891.98	20921
892.103	20910
892.226	20868
892.349	20933
892.471	20678
892.594	20876
892.717	20960
892.839	20849
892.962	20998
893.085	20864
893.207	20883
893.33	20735
893.452	20800
893.575	20925
893.697	20724
893.819	20998
893.941	21055
894.064	20929
894.186	20750
894.308	20804
894.43	20796
894.552	20948
894.674	20960
894.796	20609
894.918	20693
895.04	20724
895.161	20933
895.283	20849
895.405	20750
895.526	20792
895.648	20754
895.769	20861
895.891	21001
896.012	20895
896.134	20971
896.255	20830
896.376	20800
896.498	20807
896.619	20807
896.74	20868
896.861	20845
896.982	21138
897.103	21298
897.224	21036
897.345	21055
897.466	20952
897.587	20967
897.708	21294
897.828	21173
897.949	21051
898.07	20807
898.19	21001
898.311	21127
898.431	20918
898.552	20979
898.672	21116
898.792	21119
898.913	21104
899.033	20941
899.153	20902
899.273	20743
899.393	20853
899.513	20834
899.633	20746
899.753	20834
899.873	20609
899.993	20754
900.113	20678
900.232	20594
900.352	20640
900.472	20674
900.591	20446
900.711	20613
900.83	20454
900.95	20568
901.069	20701
901.189	20438
901.308	20176
901.427	20122
901.546	20073
901.665	20153
901.784	20134
901.904	19928
902.023	19879
902.141	19685
902.26	19723
902.379	19704
902.498	19628
902.617	19559
902.735	19605
902.854	19643
902.973	19525
903.091	19369
903.21	19335
903.328	19171
903.446	19168
903.565	19042
903.683	19095
903.801	18916
903.919	19065
904.038	19046
904.156	18871
904.274	19015
904.392	18795
904.51	18779
904.627	18734
904.745	18863
904.863	18840
904.981	18707
905.098	18574
905.216	18506
905.334	18536
905.451	18585
905.569	18506
905.686	18441
905.803	18490
905.921	18163
906.038	18384
906.155	18254
906.272	18121
906.389	18266
906.506	18136
906.623	18022
906.74	17950
906.857	17961
906.974	17927
907.091	18110
907.208	18117
907.324	18019
907.441	17961
907.557	17748
907.674	17710
907.79	17733
907.907	17707
908.023	17756
908.139	17737
908.256	17623
908.372	17554
908.488	17630
908.604	17509
908.72	17452
908.836	17387
908.952	17440
909.068	17455
909.184	17512
909.3	17448
909.415	17433
909.531	17459
909.647	17269
909.762	17102
909.878	17128
909.993	17227
910.108	17113
910.224	17113
910.339	17178
910.454	17003
910.57	16976
910.685	16900
910.8	17102
910.915	17079
911.03	16953
911.145	16809
911.259	16752
911.374	16835
911.489	16596
911.604	16668
911.718	16599
911.833	16417
911.947	16413
912.062	16417
912.176	16497
912.291	16466
912.405	16527
912.519	16634
912.633	16603
912.748	16504
912.862	16421
912.976	16242
913.09	16234
913.204	16215
913.318	16295
913.431	16333
913.545	16344
913.659	16382
913.772	16291
913.886	16074
914	16040
914.113	16139
914.226	16162
914.34	16158
914.453	16013
914.566	16097
914.68	16021
914.793	15907
914.906	15724
915.019	15682
915.132	15595
915.245	15690
915.358	15622
915.47	15679
915.583	15564
915.696	15698
915.809	15838
915.921	15812
916.034	15656
916.146	15568
916.259	15450
916.371	15644
916.483	15606
916.595	15473
916.708	15507
916.82	15405
916.932	15439
917.044	15507
917.156	15469
917.268	15283
917.38	15351
917.491	15382
917.603	15275
917.715	15374
917.826	15310
917.938	15245
918.049	15100
918.161	15176
918.272	15412
918.384	15294
918.495	15161
918.606	15135
918.717	15032
918.828	15051
918.939	15020
919.05	14994
919.161	15074
919.272	14838
919.383	14998
919.494	15112
919.604	15245
919.715	15028
919.826	14918
919.936	15039
920.047	15017
920.157	15097
920.267	15218
920.378	15058
920.488	15001
920.598	15123
920.708	15393
920.818	15184
920.928	15051
921.038	15317
921.148	15230
921.258	14990
921.368	14796
921.477	14788
921.587	14743
921.697	14533
921.806	14777
921.916	14450
922.025	14415
922.134	14324
922.244	14358
922.353	14377
922.462	14225
922.571	14172
922.68	14027
922.789	13989
922.898	13967
923.007	13997
923.116	14126
923.224	13906
923.333	13978
923.442	13822
923.55	13753
923.659	13761
923.767	13791
923.876	13894
923.984	13871
924.092	13784
924.201	13708
924.309	13788
924.417	13689
924.525	13605
924.633	13715
924.741	14393
924.849	13411
924.956	13582
925.064	13540
925.172	13270
925.279	13289
925.387	13396
925.494	13308
925.602	13518
925.709	13400
925.816	13339
925.924	13335
926.031	13392
926.138	13324
926.245	13297
926.352	13225
926.459	13312
926.566	13419
926.673	13278
926.779	13156
926.886	13129
926.993	12981
927.099	12913
927.206	12909
927.312	12901
927.419	13061
927.525	12901
927.631	12905
927.737	12894
927.843	12901
927.95	12623
928.056	12738
928.162	12806
928.267	12814
928.373	13324
928.479	12768
928.585	12570
928.69	12696
928.796	12711
928.901	12601
929.007	12471
929.112	12532
929.218	12536
929.323	12646
929.428	12403
929.533	12582
929.638	12399
929.743	12426
929.848	12509
929.953	12388
930.058	12342
930.163	12182
930.267	12247
930.372	12342
930.477	12152
930.581	12372
930.685	12270
930.79	12015
930.894	12095
930.998	11969
931.103	12095
931.207	11733
931.311	11783
931.415	11649
931.519	11360
931.623	11326
