Data from test_V78500241_1585.txt Node
Date: Fri Mar 25 15:52:46 CST 2022
User: usil
Spectrometer: V785-0024
Trigger mode: 0
Integration Time (sec): 4.000000E-1
Scans to average: 1
Nonlinearity correction enabled: false
Boxcar width: 0
Storing dark spectrum: false
XAxis mode: Wavelengths
Number of Pixels in Spectrum: 1024
>>>>>Begin Spectral Data<<<<<
801.071	28040
801.214	27994
801.356	27857
801.499	27675
801.641	27568
801.783	27504
801.926	27660
802.068	27709
802.211	27492
802.353	27633
802.496	27306
802.638	27420
802.78	27222
802.923	27154
803.065	27249
803.208	27226
803.35	27275
803.492	27363
803.635	27538
803.777	27370
803.919	27492
804.061	27800
804.204	27477
804.346	27363
804.488	27313
804.63	27545
804.773	27310
804.915	27538
805.057	27583
805.199	27420
805.341	27580
805.483	27591
805.626	27580
805.768	27580
805.91	27591
806.052	27701
806.194	27618
806.336	27717
806.478	27526
806.62	27652
806.762	27720
806.904	27979
807.046	28124
807.188	27994
807.33	28143
807.472	28093
807.614	28017
807.756	28055
807.898	27892
808.04	27930
808.182	27880
808.324	27941
808.465	27918
808.607	28253
808.749	28276
808.891	28276
809.033	28493
809.174	28261
809.316	28192
809.458	28398
809.6	28306
809.741	28356
809.883	28466
810.025	28561
810.166	28538
810.308	28599
810.45	28440
810.591	28459
810.733	28424
810.875	28246
811.016	28226
811.158	28135
811.299	28401
811.441	28432
811.582	28508
811.724	28238
811.865	28284
812.007	28333
812.148	28261
812.29	28329
812.431	28478
812.573	28687
812.714	28592
812.855	28679
812.997	28725
813.138	29041
813.279	28843
813.421	28721
813.562	28744
813.703	28500
813.845	28550
813.986	28356
814.127	28158
814.268	28063
814.41	28002
814.551	27899
814.692	27945
814.833	27941
814.974	27934
815.115	28090
815.256	27842
815.397	27907
815.539	27827
815.68	27713
815.821	27709
815.962	27797
816.103	27774
816.244	27469
816.385	27618
816.526	27473
816.666	27485
816.807	27233
816.948	27348
817.089	27291
817.23	27272
817.371	27169
817.512	27401
817.653	27245
817.793	27176
817.934	27146
818.075	27283
818.216	27245
818.356	27192
818.497	27096
818.638	26842
818.778	27039
818.919	26956
819.06	27096
819.2	27256
819.341	27268
819.481	27199
819.622	27473
819.762	27553
819.903	27439
820.043	27401
820.184	27439
820.324	27420
820.465	27272
820.605	27287
820.746	27245
820.886	27192
821.026	27344
821.167	27237
821.307	27325
821.447	27340
821.588	27150
821.728	27032
821.868	26960
822.008	26606
822.149	26743
822.289	26758
822.429	26476
822.569	26522
822.709	26537
822.849	26210
822.99	26172
823.13	26183
823.27	26130
823.41	26107
823.55	25902
823.69	25978
823.83	26073
823.97	26058
824.11	25811
824.25	25826
824.389	25784
824.529	25966
824.669	25966
824.809	25963
824.949	25978
825.089	25955
825.228	25940
825.368	25670
825.508	25639
825.648	25833
825.787	25788
825.927	25845
826.067	25742
826.206	25765
826.346	25852
826.485	25833
826.625	25715
826.765	25921
826.904	25883
827.044	25472
827.183	25544
827.323	25464
827.462	25479
827.601	25499
827.741	25400
827.88	25392
828.02	25491
828.159	25426
828.298	25464
828.437	25575
828.577	25460
828.716	25647
828.855	25297
828.994	25190
829.134	25122
829.273	25263
829.412	25084
829.551	25042
829.69	25027
829.829	25198
829.968	25202
830.107	25285
830.246	25046
830.385	25076
830.524	25057
830.663	24939
830.802	24916
830.941	24726
831.08	24696
831.219	24806
831.357	24833
831.496	24886
831.635	24741
831.774	24715
831.913	24612
832.051	24612
832.19	24528
832.329	24627
832.467	24475
832.606	24505
832.744	24384
832.883	24323
833.022	24410
833.16	24483
833.299	24445
833.437	24342
833.576	24521
833.714	24475
833.852	24494
833.991	24608
834.129	24585
834.267	24505
834.406	24509
834.544	24563
834.682	24563
834.821	24471
834.959	24551
835.097	24254
835.235	24521
835.373	24460
835.511	24494
835.65	24262
835.788	24353
835.926	24251
836.064	24011
836.202	24247
836.34	24361
836.478	24441
836.615	24289
836.753	24304
836.891	24391
837.029	24281
837.167	24243
837.305	24296
837.443	24270
837.58	24197
837.718	24110
837.856	24136
837.993	24140
838.131	24057
838.269	24038
838.406	24026
838.544	23817
838.681	23733
838.819	23718
838.956	23554
839.094	23691
839.231	23608
839.369	23748
839.506	23980
839.643	23828
839.781	23528
839.918	23638
840.055	23604
840.193	23516
840.33	23573
840.467	23547
840.604	23707
840.742	23741
840.879	23402
841.016	23410
841.153	23398
841.29	23604
841.427	23440
841.564	23577
841.701	23478
841.838	23414
841.975	23528
842.112	23398
842.249	23402
842.385	23200
842.522	23562
842.659	23391
842.796	23273
842.933	23303
843.069	23227
843.206	23189
843.343	23417
843.479	23269
843.616	23364
843.752	23109
843.889	22961
844.025	23136
844.162	23071
844.298	23242
844.435	22927
844.571	23033
844.708	23037
844.844	23151
844.98	23185
845.117	23105
845.253	23018
845.389	23006
845.525	22972
845.661	22908
845.798	22824
845.934	22850
846.07	22725
846.206	22782
846.342	22816
846.478	22691
846.614	22630
846.75	22497
846.886	22462
847.022	22577
847.158	22542
847.294	22436
847.429	22573
847.565	22504
847.701	22748
847.837	22261
847.972	22223
848.108	22394
848.244	22497
848.379	22135
848.515	22166
848.65	22135
848.786	22067
848.921	22166
849.057	22215
849.192	22284
849.328	22162
849.463	22086
849.598	22055
849.734	22002
849.869	21941
850.004	21934
850.14	21945
850.275	21808
850.41	21789
850.545	21709
850.68	21857
850.815	21983
850.95	21869
851.085	22021
851.22	21907
851.355	21888
851.49	21812
851.625	21838
851.76	21739
851.895	21816
852.03	21804
852.165	21823
852.299	21987
852.434	21907
852.569	21979
852.703	21892
852.838	21945
852.973	21991
853.107	21930
853.242	21838
853.376	21789
853.511	21564
853.645	21618
853.78	21682
853.914	21641
854.048	21698
854.183	21762
854.317	21717
854.451	21934
854.585	21610
854.72	21656
854.854	21774
854.988	21526
855.122	21625
855.256	21663
855.39	21682
855.524	21637
855.658	21667
855.792	21652
855.926	21671
856.06	21743
856.194	21778
856.327	21675
856.461	21705
856.595	21610
856.729	21698
856.862	21759
856.996	21629
857.13	21808
857.263	21823
857.397	21751
857.53	21633
857.664	21686
857.797	21827
857.931	21842
858.064	21660
858.197	21797
858.331	21641
858.464	21553
858.597	21610
858.731	21720
858.864	21667
858.997	21667
859.13	21595
859.263	21587
859.396	21781
859.529	21694
859.662	21637
859.795	21656
859.928	21724
860.061	21827
860.194	21850
860.327	21667
860.46	21747
860.592	21774
860.725	21842
860.858	21808
860.99	21675
861.123	21667
861.256	21762
861.388	21667
861.521	22360
861.653	21591
861.786	21515
861.918	21469
862.05	21538
862.183	21675
862.315	21587
862.447	21713
862.58	21610
862.712	21321
862.844	21275
862.976	21458
863.108	21435
863.24	21873
863.372	21272
863.504	21268
863.636	21412
863.768	21466
863.9	21462
864.032	21359
864.164	21260
864.296	21416
864.428	21359
864.559	21481
864.691	21443
864.823	21412
864.954	21435
865.086	21336
865.217	21325
865.349	21199
865.48	21283
865.612	21268
865.743	21351
865.875	21306
866.006	21264
866.137	21226
866.269	21230
866.4	21237
866.531	21218
866.662	21245
866.793	21252
866.924	21203
867.055	21317
867.186	21226
867.317	21199
867.448	21096
867.579	21214
867.71	21188
867.841	21180
867.972	21275
868.103	21226
868.233	21218
868.364	21237
868.495	21199
868.625	21481
868.756	21447
868.886	21412
869.017	21439
869.147	21675
869.278	21561
869.408	21431
869.539	21557
869.669	21591
869.799	21587
869.929	21564
870.06	21656
870.19	21743
870.32	21800
870.45	21736
870.58	21861
870.71	21911
870.84	22048
870.97	21865
871.1	21846
871.23	21960
871.36	21994
871.489	22013
871.619	22025
871.749	22162
871.879	22097
872.008	22135
872.138	22120
872.267	22116
872.397	21895
872.526	21884
872.656	21949
872.785	21899
872.915	22177
873.044	22215
873.173	22112
873.303	22249
873.432	22105
873.561	22295
873.69	22063
873.819	21975
873.948	22173
874.077	21972
874.206	22147
874.335	22032
874.464	22109
874.593	22207
874.722	22310
874.851	22367
874.979	22215
875.108	22196
875.237	22257
875.365	22131
875.494	22341
875.623	22371
875.751	22367
875.88	22356
876.008	22322
876.136	22565
876.265	22733
876.393	22744
876.521	22664
876.65	22866
876.778	22721
876.906	22649
877.034	22668
877.162	22660
877.29	22577
877.418	22603
877.546	22694
877.674	22538
877.802	22599
877.93	22706
878.058	22550
878.185	22512
878.313	22577
878.441	22679
878.568	22542
878.696	22569
878.824	22691
878.951	22672
879.079	22843
879.206	23003
879.333	22831
879.461	22596
879.588	22797
879.715	22854
879.842	22900
879.97	22656
880.097	22500
880.224	22516
880.351	22451
880.478	22443
880.605	22436
880.732	22481
880.859	22729
880.986	22440
881.112	22512
881.239	22265
881.366	22276
881.493	22272
881.619	22040
881.746	22048
881.872	22139
881.999	22017
882.125	22032
882.252	22101
882.378	22029
882.505	22177
882.631	21739
882.757	21778
882.883	21793
883.01	21778
883.136	21583
883.262	21496
883.388	21568
883.514	21603
883.64	21812
883.766	21682
883.892	21488
884.018	21500
884.143	21675
884.269	21720
884.395	21424
884.52	21348
884.646	21405
884.772	21195
884.897	21256
885.023	21279
885.148	21431
885.274	21477
885.399	21454
885.524	21420
885.65	21370
885.775	21401
885.9	21447
886.025	21511
886.15	21435
886.275	21287
886.4	21199
886.525	21264
886.65	21272
886.775	21214
886.9	21466
887.025	21591
887.149	21439
887.274	21199
887.399	21013
887.523	21096
887.648	21104
887.773	21100
887.897	21176
888.021	21195
888.146	21058
888.27	21241
888.395	21237
888.519	21165
888.643	21142
888.767	21157
888.891	21123
889.015	20975
889.139	20986
889.263	20857
889.387	21055
889.511	21241
889.635	21074
889.759	20842
889.883	20876
890.006	20960
890.13	20899
890.254	20883
890.377	20823
890.501	20632
890.624	20602
890.748	20788
890.871	20655
890.995	20583
891.118	20370
891.241	20476
891.364	20560
891.488	20655
891.611	20461
891.734	20571
891.857	20571
891.98	20499
892.103	20533
892.226	20568
892.349	20503
892.471	20237
892.594	20473
892.717	20412
892.839	20343
892.962	20362
893.085	20351
893.207	20377
893.33	20256
893.452	20336
893.575	20488
893.697	20400
893.819	20571
893.941	20583
894.064	20556
894.186	20275
894.308	20294
894.43	20480
894.552	20568
894.674	20518
894.796	20282
894.918	20343
895.04	20389
895.161	20545
895.283	20427
895.405	20313
895.526	20446
895.648	20298
895.769	20408
895.891	20492
896.012	20511
896.134	20396
896.255	20377
896.376	20336
896.498	20480
896.619	20446
896.74	20377
896.861	20442
896.982	20686
897.103	20800
897.224	20720
897.345	20621
897.466	20564
897.587	20621
897.708	20796
897.828	20625
897.949	20556
898.07	20503
898.19	20541
898.311	20735
898.431	20541
898.552	20602
898.672	20712
898.792	20682
898.913	20720
899.033	20514
899.153	20305
899.273	20362
899.393	20381
899.513	20434
899.633	20351
899.753	20385
899.873	20324
899.993	20183
900.113	20290
900.232	20389
900.352	20225
900.472	20218
900.591	20229
900.711	20046
900.83	20134
900.95	20142
901.069	20259
901.189	20027
901.308	19799
901.427	19830
901.546	19765
901.665	19811
901.784	19704
901.904	19480
902.023	19449
902.141	19327
902.26	19278
902.379	19293
902.498	19236
902.617	19217
902.735	19175
902.854	19152
902.973	19114
903.091	18863
903.21	18802
903.328	18760
903.446	18840
903.565	18570
903.683	18620
903.801	18608
903.919	18563
904.038	18616
904.156	18494
904.274	18559
904.392	18547
904.51	18395
904.627	18490
904.745	18471
904.863	18555
904.981	18353
905.098	18194
905.216	18095
905.334	18019
905.451	18045
905.569	18019
905.686	18144
905.803	18171
905.921	17931
906.038	18068
906.155	17855
906.272	17813
906.389	17878
906.506	17638
906.623	17676
906.74	17627
906.857	17581
906.974	17554
907.091	17729
907.208	17832
907.324	17764
907.441	17532
907.557	17341
907.674	17364
907.79	17326
907.907	17349
908.023	17349
908.139	17246
908.256	17269
908.372	17265
908.488	17250
908.604	17143
908.72	17098
908.836	17113
908.952	17060
909.068	17200
909.184	17181
909.3	17022
909.415	17086
909.531	17045
909.647	16858
909.762	16786
909.878	16763
909.993	16744
910.108	16725
910.224	16649
910.339	16767
910.454	16535
910.57	16599
910.685	16607
910.8	16850
910.915	16755
911.03	16516
911.145	16478
911.259	16325
911.374	16333
911.489	16272
911.604	16291
911.718	16128
911.833	16158
911.947	16082
912.062	16040
912.176	16120
912.291	16169
912.405	16128
912.519	16257
912.633	16280
912.748	16242
912.862	16025
912.976	15953
913.09	15819
913.204	15941
913.318	15831
913.431	16044
913.545	16059
913.659	16010
913.772	15842
913.886	15785
914	15751
914.113	15781
914.226	15831
914.34	15755
914.453	15629
914.566	15720
914.68	15542
914.793	15648
914.906	15420
915.019	15359
915.132	15306
915.245	15370
915.358	15325
915.47	15340
915.583	15275
915.696	15355
915.809	15428
915.921	15469
916.034	15287
916.146	15272
916.259	15142
916.371	15313
916.483	15268
916.595	15188
916.708	15176
916.82	15150
916.932	15051
917.044	15188
917.156	15097
917.268	15051
917.38	15024
917.491	14963
917.603	15036
917.715	14998
917.826	15020
917.938	14891
918.049	14739
918.161	14899
918.272	15039
918.384	15051
918.495	14929
918.606	14777
918.717	14636
918.828	14807
918.939	14804
919.05	14697
919.161	14712
919.272	14454
919.383	14488
919.494	14796
919.604	14895
919.715	14697
919.826	14621
919.936	14640
920.047	14720
920.157	14659
920.267	14910
920.378	14689
920.488	14727
920.598	14910
920.708	14948
920.818	14819
920.928	14872
921.038	15005
921.148	14925
921.258	14674
921.368	14640
921.477	14427
921.587	14473
921.697	14336
921.806	14336
921.916	14259
922.025	14157
922.134	14138
922.244	14039
922.353	14065
922.462	13898
922.571	13932
922.68	13636
922.789	13708
922.898	13712
923.007	13616
923.116	13803
923.224	13685
923.333	13651
923.442	13559
923.55	13548
923.659	13518
923.767	13594
923.876	13548
923.984	13575
924.092	13407
924.201	13514
924.309	13316
924.417	13434
924.525	13400
924.633	13335
924.741	14282
924.849	13244
924.956	13297
925.064	13183
925.172	13061
925.279	13164
925.387	13080
925.494	13152
925.602	13255
925.709	13129
925.816	13053
925.924	13053
926.031	13209
926.138	13099
926.245	13072
926.352	12981
926.459	13084
926.566	13107
926.673	12909
926.779	12913
926.886	12928
926.993	12821
927.099	12589
927.206	12601
927.312	12582
927.419	12654
927.525	12608
927.631	12734
927.737	12559
927.843	12620
927.95	12395
928.056	12521
928.162	12555
928.267	12490
928.373	13160
928.479	12681
928.585	12224
928.69	12441
928.796	12467
928.901	12403
929.007	12270
929.112	12407
929.218	12365
929.323	12213
929.428	12182
929.533	12285
929.638	12129
929.743	12273
929.848	12262
929.953	12216
930.058	12034
930.163	11897
930.267	11999
930.372	11931
930.477	11855
930.581	12095
930.685	11874
930.79	11741
930.894	11836
930.998	11729
931.103	11912
931.207	11509
931.311	11497
931.415	11296
931.519	11170
931.623	11117
