Data from test_V78500241_625.txt Node
Date: Fri Mar 25 15:46:07 CST 2022
User: usil
Spectrometer: V785-0024
Trigger mode: 0
Integration Time (sec): 4.000000E-1
Scans to average: 1
Nonlinearity correction enabled: false
Boxcar width: 0
Storing dark spectrum: false
XAxis mode: Wavelengths
Number of Pixels in Spectrum: 1024
>>>>>Begin Spectral Data<<<<<
801.071	27732
801.214	27606
801.356	27481
801.499	27439
801.641	27112
801.783	27298
801.926	27348
802.068	27317
802.211	27195
802.353	27066
802.496	26975
802.638	26883
802.78	26788
802.923	26982
803.065	26868
803.208	27028
803.35	26963
803.492	26940
803.635	27081
803.777	27039
803.919	27135
804.061	27367
804.204	27252
804.346	27081
804.488	26823
804.63	26975
804.773	26940
804.915	27108
805.057	27294
805.199	27100
805.341	27093
805.483	27241
805.626	27218
805.768	27085
805.91	27154
806.052	27268
806.194	27116
806.336	27405
806.478	27214
806.62	27199
806.762	27443
806.904	27561
807.046	27701
807.188	27561
807.33	27580
807.472	27778
807.614	27542
807.756	27477
807.898	27557
808.04	27393
808.182	27507
808.324	27500
808.465	27561
808.607	27941
808.749	27747
808.891	28025
809.033	27975
809.174	27895
809.316	27895
809.458	27880
809.6	27850
809.741	28051
809.883	27968
810.025	28002
810.166	28070
810.308	28078
810.45	27964
810.591	28097
810.733	27888
810.875	27892
811.016	27747
811.158	27903
811.299	27956
811.441	28025
811.582	27873
811.724	27972
811.865	27785
812.007	27945
812.148	27873
812.29	27823
812.431	28082
812.573	28211
812.714	28265
812.855	28371
812.997	28634
813.138	28660
813.279	28508
813.421	28375
813.562	28440
813.703	28207
813.845	27979
813.986	27819
814.127	27485
814.268	27469
814.41	27534
814.551	27614
814.692	27781
814.833	27663
814.974	27408
815.115	27538
815.256	27291
815.397	27443
815.539	27408
815.68	27256
815.821	27165
815.962	27344
816.103	27332
816.244	27237
816.385	27135
816.526	27074
816.666	26960
816.807	26899
816.948	26933
817.089	26811
817.23	26925
817.371	26785
817.512	26769
817.653	26887
817.793	26872
817.934	26796
818.075	26849
818.216	27009
818.356	26720
818.497	26762
818.638	26556
818.778	26678
818.919	26473
819.06	26583
819.2	26785
819.341	26750
819.481	26796
819.622	27013
819.762	27104
819.903	27138
820.043	27028
820.184	27089
820.324	26906
820.465	27074
820.605	26925
820.746	26807
820.886	26689
821.026	26880
821.167	26906
821.307	26952
821.447	26830
821.588	26815
821.728	26625
821.868	26541
822.008	26294
822.149	26225
822.289	26309
822.429	25955
822.569	25982
822.709	26130
822.849	25818
822.99	25734
823.13	25753
823.27	25700
823.41	25601
823.55	25578
823.69	25567
823.83	25556
823.97	25594
824.11	25449
824.25	25525
824.389	25422
824.529	25495
824.669	25434
824.809	25540
824.949	25506
825.089	25575
825.228	25464
825.368	25327
825.508	25407
825.648	25350
825.787	25206
825.927	25491
826.067	25240
826.206	25152
826.346	25343
826.485	25335
826.625	25274
826.765	25285
826.904	25346
827.044	25091
827.183	25027
827.323	24996
827.462	25027
827.601	25114
827.741	24863
827.88	24916
828.02	24935
828.159	25019
828.298	24981
828.437	25072
828.577	24951
828.716	25046
828.855	25061
828.994	24688
829.134	24768
829.273	24738
829.412	24741
829.551	24707
829.69	24719
829.829	24749
829.968	24871
830.107	24878
830.246	24753
830.385	24787
830.524	24475
830.663	24467
830.802	24410
830.941	24315
831.08	24235
831.219	24422
831.357	24437
831.496	24452
831.635	24365
831.774	24174
831.913	24220
832.051	24079
832.19	24125
832.329	24102
832.467	23961
832.606	23992
832.744	23942
832.883	24064
833.022	23916
833.16	23885
833.299	24041
833.437	24038
833.576	24022
833.714	23980
833.852	24034
833.991	24091
834.129	24022
834.267	24159
834.406	23999
834.544	24038
834.682	24072
834.821	23939
834.959	24026
835.097	24034
835.235	24022
835.373	24091
835.511	24114
835.65	23882
835.788	23859
835.926	23680
836.064	23577
836.202	23695
836.34	23889
836.478	24015
836.615	23908
836.753	23859
836.891	23977
837.029	23870
837.167	23726
837.305	23832
837.443	23623
837.58	23771
837.718	23828
837.856	23699
837.993	23767
838.131	23611
838.269	23512
838.406	23649
838.544	23566
838.681	23265
838.819	23448
838.956	23105
839.094	23105
839.231	23223
839.369	23387
839.506	23528
839.643	23395
839.781	23235
839.918	23223
840.055	23159
840.193	23098
840.33	23109
840.467	23155
840.604	23197
840.742	23490
840.879	22911
841.016	23083
841.153	22911
841.29	23197
841.427	23086
841.564	23098
841.701	23094
841.838	23052
841.975	23067
842.112	22904
842.249	22942
842.385	22801
842.522	23098
842.659	22892
842.796	22812
842.933	22908
843.069	22767
843.206	22831
843.343	22908
843.479	22809
843.616	22862
843.752	22565
843.889	22687
844.025	22843
844.162	22497
844.298	22687
844.435	22645
844.571	22508
844.708	22736
844.844	22710
844.98	22759
845.117	22782
845.253	22645
845.389	22584
845.525	22645
845.661	22409
845.798	22306
845.934	22337
846.07	22363
846.206	22402
846.342	22596
846.478	22341
846.614	22242
846.75	22029
846.886	22124
847.022	22105
847.158	22112
847.294	22051
847.429	22051
847.565	22017
847.701	22265
847.837	21892
847.972	21686
848.108	21884
848.244	21850
848.379	21667
848.515	21694
848.65	21736
848.786	21717
848.921	21724
849.057	21804
849.192	21789
849.328	21705
849.463	21804
849.598	21751
849.734	21549
849.869	21443
850.004	21511
850.14	21545
850.275	21435
850.41	21302
850.545	21340
850.68	21488
850.815	21473
850.95	21382
851.085	21709
851.22	21534
851.355	21378
851.49	21603
851.625	21374
851.76	21389
851.895	21359
852.03	21367
852.165	21515
852.299	21500
852.434	21530
852.569	21534
852.703	21431
852.838	21542
852.973	21625
853.107	21599
853.242	21447
853.376	21268
853.511	21249
853.645	21214
853.78	21519
853.914	21287
854.048	21268
854.183	21298
854.317	21359
854.451	21447
854.585	21317
854.72	21355
854.854	21431
854.988	21116
855.122	21146
855.256	21146
855.39	21256
855.524	21294
855.658	21351
855.792	21249
855.926	21264
856.06	21378
856.194	21355
856.327	21386
856.461	21252
856.595	21283
856.729	21298
856.862	21363
856.996	21344
857.13	21287
857.263	21180
857.397	21519
857.53	21374
857.664	21256
857.797	21340
857.931	21408
858.064	21416
858.197	21458
858.331	21260
858.464	21287
858.597	21100
858.731	21249
858.864	21310
858.997	21321
859.13	21268
859.263	21332
859.396	21401
859.529	21344
859.662	21222
859.795	21237
859.928	21283
860.061	21393
860.194	21519
860.327	21313
860.46	21367
860.592	21382
860.725	21408
860.858	21389
860.99	21245
861.123	21268
861.256	21127
861.388	21359
861.521	22036
861.653	21108
861.786	21039
861.918	21020
862.05	21062
862.183	21249
862.315	21108
862.447	21226
862.58	21138
862.712	20948
862.844	20872
862.976	21085
863.108	21089
863.24	21511
863.372	20914
863.504	21085
863.636	21005
863.768	21096
863.9	21043
864.032	20998
864.164	20872
864.296	20990
864.428	21058
864.559	21043
864.691	21066
864.823	20952
864.954	21005
865.086	20956
865.217	20944
865.349	20925
865.48	20960
865.612	20960
865.743	21013
865.875	20845
866.006	20830
866.137	20899
866.269	20887
866.4	20887
866.531	20864
866.662	20781
866.793	20807
866.924	20910
867.055	20800
867.186	20887
867.317	20739
867.448	20644
867.579	20830
867.71	20667
867.841	20758
867.972	20815
868.103	20716
868.233	20899
868.364	20739
868.495	20830
868.625	21058
868.756	21070
868.886	20971
869.017	21131
869.147	21180
869.278	21207
869.408	21127
869.539	21142
869.669	20937
869.799	21169
869.929	21226
870.06	21226
870.19	21249
870.32	21431
870.45	21504
870.58	21504
870.71	21549
870.84	21477
870.97	21443
871.1	21435
871.23	21800
871.36	21682
871.489	21652
871.619	21648
871.749	21633
871.879	21610
872.008	21671
872.138	21542
872.267	21701
872.397	21504
872.526	21435
872.656	21485
872.785	21469
872.915	21774
873.044	21755
873.173	21819
873.303	21705
873.432	21762
873.561	21736
873.69	21667
873.819	21599
873.948	21705
874.077	21739
874.206	21698
874.335	21709
874.464	21934
874.593	21876
874.722	21865
874.851	21968
874.979	21979
875.108	21968
875.237	21759
875.365	21789
875.494	21854
875.623	21918
875.751	21797
875.88	21869
876.008	22120
876.136	22048
876.265	22314
876.393	22379
876.521	22375
876.65	22421
876.778	22234
876.906	22242
877.034	22074
877.162	22253
877.29	22162
877.418	22443
877.546	22230
877.674	22177
877.802	22253
877.93	22230
878.058	22078
878.185	22086
878.313	22242
878.441	22105
878.568	22238
878.696	22120
878.824	22306
878.951	22360
879.079	22428
879.206	22557
879.333	22447
879.461	22360
879.588	22306
879.715	22375
879.842	22478
879.97	22447
880.097	22093
880.224	21956
880.351	22101
880.478	22207
880.605	22097
880.732	22025
880.859	22173
880.986	22036
881.112	21987
881.239	21842
881.366	21816
881.493	21816
881.619	21736
881.746	21644
881.872	21679
881.999	21667
882.125	21698
882.252	21682
882.378	21663
882.505	21789
882.631	21564
882.757	21389
882.883	21492
883.01	21310
883.136	21378
883.262	21093
883.388	21302
883.514	21294
883.64	21386
883.766	21348
883.892	21070
884.018	21188
884.143	21237
884.269	21348
884.395	21009
884.52	20998
884.646	21066
884.772	20899
884.897	21013
885.023	21024
885.148	21096
885.274	21146
885.399	21055
885.524	21096
885.65	21081
885.775	20952
885.9	20891
886.025	21085
886.15	21077
886.275	20872
886.4	20762
886.525	20899
886.65	20880
886.775	20880
886.9	20975
887.025	21199
887.149	20868
887.274	20754
887.399	20743
887.523	20773
887.648	20701
887.773	20602
887.897	20899
888.021	20830
888.146	20811
888.27	20811
888.395	20796
888.519	20705
888.643	20823
888.767	20697
888.891	20640
889.015	20594
889.139	20636
889.263	20613
889.387	20765
889.511	20720
889.635	20678
889.759	20484
889.883	20541
890.006	20689
890.13	20575
890.254	20461
890.377	20526
890.501	20324
890.624	20259
890.748	20431
890.871	20206
890.995	20111
891.118	20020
891.241	20115
891.364	20039
891.488	20298
891.611	20065
891.734	20134
891.857	20218
891.98	20016
892.103	20153
892.226	20092
892.349	20073
892.471	19951
892.594	20092
892.717	20077
892.839	20012
892.962	20027
893.085	20100
893.207	19951
893.33	19898
893.452	19955
893.575	20058
893.697	19928
893.819	20183
893.941	20233
894.064	20225
894.186	19883
894.308	19925
894.43	20149
894.552	20240
894.674	20088
894.796	19902
894.918	19947
895.04	20012
895.161	20054
895.283	20039
895.405	19986
895.526	20001
895.648	20062
895.769	20062
895.891	20084
896.012	20157
896.134	20100
896.255	20088
896.376	20058
896.498	20058
896.619	20096
896.74	20092
896.861	20058
896.982	20362
897.103	20480
897.224	20328
897.345	20256
897.466	20225
897.587	20267
897.708	20400
897.828	20290
897.949	20252
898.07	20073
898.19	20191
898.311	20358
898.431	20164
898.552	20149
898.672	20389
898.792	20374
898.913	20355
899.033	20130
899.153	20046
899.273	20005
899.393	20035
899.513	20130
899.633	19951
899.753	20012
899.873	20062
899.993	20058
900.113	19928
900.232	20046
900.352	19913
900.472	19860
900.591	19818
900.711	19833
900.83	19799
900.95	19951
901.069	19894
901.189	19746
901.308	19510
901.427	19510
901.546	19434
901.665	19438
901.784	19441
901.904	19209
902.023	19190
902.141	18962
902.26	18882
902.379	19065
902.498	18958
902.617	18840
902.735	18890
902.854	18894
902.973	18779
903.091	18563
903.21	18509
903.328	18665
903.446	18532
903.565	18319
903.683	18388
903.801	18369
903.919	18262
904.038	18277
904.156	18182
904.274	18251
904.392	18114
904.51	18117
904.627	18205
904.745	18251
904.863	18174
904.981	17992
905.098	17786
905.216	17878
905.334	17927
905.451	17855
905.569	17794
905.686	17821
905.803	17672
905.921	17627
906.038	17756
906.155	17585
906.272	17509
906.389	17505
906.506	17337
906.623	17425
906.74	17307
906.857	17235
906.974	17372
907.091	17425
907.208	17455
907.324	17440
907.441	17299
907.557	17140
907.674	17143
907.79	17029
907.907	16980
908.023	17052
908.139	17029
908.256	17037
908.372	16968
908.488	16942
908.604	16812
908.72	16782
908.836	16771
908.952	16733
909.068	16877
909.184	16942
909.3	16691
909.415	16858
909.531	16793
909.647	16481
909.762	16455
909.878	16405
909.993	16474
910.108	16413
910.224	16413
910.339	16470
910.454	16363
910.57	16234
910.685	16185
910.8	16546
910.915	16398
911.03	16242
911.145	16211
911.259	16097
911.374	16021
911.489	16036
911.604	15994
911.718	15861
911.833	15884
911.947	15739
912.062	15709
912.176	15736
912.291	15854
912.405	15907
912.519	15998
912.633	16055
912.748	15876
912.862	15838
912.976	15576
913.09	15584
913.204	15538
913.318	15648
913.431	15732
913.545	15781
913.659	15625
913.772	15618
913.886	15545
914	15462
914.113	15488
914.226	15485
914.34	15553
914.453	15317
914.566	15462
914.68	15336
914.793	15351
914.906	15100
915.019	15032
915.132	14979
915.245	14998
915.358	14994
915.47	15017
915.583	15089
915.696	15043
915.809	15085
915.921	15184
916.034	14986
916.146	14864
916.259	14929
916.371	15104
916.483	14998
916.595	14800
916.708	14788
916.82	14910
916.932	14819
917.044	14891
917.156	14845
917.268	14743
917.38	14765
917.491	14655
917.603	14720
917.715	14785
917.826	14845
917.938	14625
918.049	14629
918.161	14632
918.272	14758
918.384	14834
918.495	14701
918.606	14533
918.717	14434
918.828	14537
918.939	14571
919.05	14423
919.161	14461
919.272	14210
919.383	14233
919.494	14571
919.604	14651
919.715	14495
919.826	14419
919.936	14480
920.047	14507
920.157	14461
920.267	14659
920.378	14423
920.488	14400
920.598	14590
920.708	14659
920.818	14610
920.928	14549
921.038	14712
921.148	14667
921.258	14419
921.368	14218
921.477	14157
921.587	14115
921.697	14054
921.806	14107
921.916	14035
922.025	13909
922.134	13841
922.244	13776
922.353	13868
922.462	13696
922.571	13655
922.68	13556
922.789	13468
922.898	13514
923.007	13415
923.116	13438
923.224	13396
923.333	13438
923.442	13373
923.55	13255
923.659	13346
923.767	13339
923.876	13232
923.984	13213
924.092	13168
924.201	13107
924.309	13251
924.417	13202
924.525	13107
924.633	13149
924.741	13883
924.849	12981
924.956	13095
925.064	12901
925.172	12814
925.279	12856
925.387	13023
925.494	12905
925.602	12958
925.709	12844
925.816	12741
925.924	12730
926.031	12863
926.138	12821
926.245	12856
926.352	12768
926.459	12817
926.566	12905
926.673	12814
926.779	12601
926.886	12646
926.993	12544
927.099	12506
927.206	12494
927.312	12426
927.419	12475
927.525	12471
927.631	12437
927.737	12403
927.843	12254
927.95	12186
928.056	12292
928.162	12342
928.267	12372
928.373	12966
928.479	12365
928.585	12057
928.69	12296
928.796	12273
928.901	12232
929.007	11996
929.112	12102
929.218	12007
929.323	12121
929.428	12049
929.533	12201
929.638	11969
929.743	11984
929.848	12003
929.953	11901
930.058	11870
930.163	11646
930.267	11745
930.372	11843
930.477	11676
930.581	11965
930.685	11703
930.79	11551
930.894	11551
930.998	11627
931.103	11760
931.207	11258
931.311	11227
931.415	11174
931.519	10961
931.623	10927
