Data from test_V78500241_2077.txt Node
Date: Fri Mar 25 15:56:11 CST 2022
User: usil
Spectrometer: V785-0024
Trigger mode: 0
Integration Time (sec): 4.000000E-1
Scans to average: 1
Nonlinearity correction enabled: false
Boxcar width: 0
Storing dark spectrum: false
XAxis mode: Wavelengths
Number of Pixels in Spectrum: 1024
>>>>>Begin Spectral Data<<<<<
801.071	29044
801.214	29064
801.356	28790
801.499	28774
801.641	28748
801.783	28683
801.926	28580
802.068	28660
802.211	28577
802.353	28626
802.496	28470
802.638	28481
802.78	28276
802.923	28219
803.065	28223
803.208	28257
803.35	28436
803.492	28523
803.635	28759
803.777	28512
803.919	28687
804.061	28858
804.204	28656
804.346	28656
804.488	28561
804.63	28656
804.773	28584
804.915	28672
805.057	28645
805.199	28607
805.341	28736
805.483	28965
805.626	28927
805.768	28588
805.91	28850
806.052	28957
806.194	28618
806.336	29056
806.478	28828
806.62	28835
806.762	28946
806.904	29155
807.046	29379
807.188	29391
807.33	29326
807.472	29391
807.614	29269
807.756	29364
807.898	29235
808.04	29071
808.182	29098
808.324	29220
808.465	29288
808.607	29448
808.749	29551
808.891	29539
809.033	29695
809.174	29570
809.316	29478
809.458	29543
809.6	29372
809.741	29543
809.883	29649
810.025	29901
810.166	29920
810.308	29821
810.45	29893
810.591	29748
810.733	29615
810.875	29543
811.016	29516
811.158	29463
811.299	29676
811.441	29676
811.582	29707
811.724	29623
811.865	29463
812.007	29554
812.148	29505
812.29	29531
812.431	29771
812.573	29798
812.714	30003
812.855	30083
812.997	30239
813.138	30338
813.279	30194
813.421	30117
813.562	30117
813.703	29885
813.845	29676
813.986	29375
814.127	29387
814.268	29269
814.41	29318
814.551	29280
814.692	29379
814.833	29181
814.974	29269
815.115	29356
815.256	29124
815.397	29166
815.539	29018
815.68	28980
815.821	29083
815.962	28942
816.103	29239
816.244	28965
816.385	28885
816.526	28831
816.666	28630
816.807	28710
816.948	28691
817.089	28668
817.23	28634
817.371	28698
817.512	28451
817.653	28637
817.793	28466
817.934	28679
818.075	28645
818.216	28641
818.356	28527
818.497	28443
818.638	28421
818.778	28348
818.919	28299
819.06	28394
819.2	28557
819.341	28546
819.481	28725
819.622	28721
819.762	28953
819.903	28946
820.043	28740
820.184	28831
820.324	28790
820.465	28782
820.605	28630
820.746	28847
820.886	28611
821.026	28618
821.167	28725
821.307	28649
821.447	28443
821.588	28546
821.728	28554
821.868	28200
822.008	28078
822.149	28044
822.289	28074
822.429	27823
822.569	27774
822.709	27732
822.849	27679
822.99	27557
823.13	27595
823.27	27660
823.41	27405
823.55	27294
823.69	27447
823.83	27249
823.97	27458
824.11	27245
824.25	27241
824.389	27268
824.529	27260
824.669	27233
824.809	27237
824.949	27203
825.089	27317
825.228	27306
825.368	27070
825.508	27081
825.648	27161
825.787	27096
825.927	27154
826.067	27108
826.206	27036
826.346	27047
826.485	27226
826.625	27085
826.765	27199
826.904	27100
827.044	26906
827.183	26971
827.323	26834
827.462	26792
827.601	26800
827.741	26849
827.88	26929
828.02	26720
828.159	26788
828.298	26823
828.437	26918
828.577	26746
828.716	26921
828.855	26697
828.994	26594
829.134	26450
829.273	26655
829.412	26400
829.551	26507
829.69	26488
829.829	26575
829.968	26746
830.107	26560
830.246	26507
830.385	26290
830.524	26393
830.663	26339
830.802	26233
830.941	26035
831.08	26256
831.219	26229
831.357	26290
831.496	26393
831.635	26138
831.774	26058
831.913	25890
832.051	25982
832.19	26020
832.329	25978
832.467	25902
832.606	25635
832.744	25890
832.883	25902
833.022	25750
833.16	25803
833.299	25925
833.437	25742
833.576	25970
833.714	25849
833.852	25917
833.991	25986
834.129	25947
834.267	26016
834.406	25856
834.544	25913
834.682	25772
834.821	25928
834.959	26069
835.097	25868
835.235	25947
835.373	25909
835.511	25849
835.65	25620
835.788	25712
835.926	25689
836.064	25586
836.202	25635
836.34	25807
836.478	25700
836.615	25742
836.753	25700
836.891	25776
837.029	25677
837.167	25666
837.305	25609
837.443	25563
837.58	25510
837.718	25559
837.856	25571
837.993	25430
838.131	25559
838.269	25343
838.406	25426
838.544	25350
838.681	25179
838.819	25133
838.956	24992
839.094	25023
839.231	24977
839.369	25110
839.506	25350
839.643	25247
839.781	25012
839.918	24837
840.055	24954
840.193	24954
840.33	24943
840.467	24840
840.604	24909
840.742	25202
840.879	24806
841.016	24608
841.153	24597
841.29	24897
841.427	24894
841.564	25000
841.701	24848
841.838	24639
841.975	24726
842.112	24829
842.249	24757
842.385	24627
842.522	24779
842.659	24544
842.796	24441
842.933	24563
843.069	24604
843.206	24528
843.343	24711
843.479	24574
843.616	24570
843.752	24426
843.889	24574
844.025	24532
844.162	24239
844.298	24475
844.435	24365
844.571	24311
844.708	24460
844.844	24460
844.98	24433
845.117	24517
845.253	24346
845.389	24285
845.525	24323
845.661	24186
845.798	24277
845.934	24235
846.07	24155
846.206	24167
846.342	24114
846.478	24114
846.614	23912
846.75	23859
846.886	23866
847.022	23874
847.158	23809
847.294	23722
847.429	23954
847.565	23935
847.701	23973
847.837	23570
847.972	23562
848.108	23592
848.244	23646
848.379	23452
848.515	23512
848.65	23391
848.786	23368
848.921	23387
849.057	23452
849.192	23471
849.328	23467
849.463	23524
849.598	23448
849.734	23258
849.869	23299
850.004	23193
850.14	23258
850.275	23284
850.41	23136
850.545	23124
850.68	23231
850.815	23220
850.95	23170
851.085	23474
851.22	23414
851.355	23303
851.49	23067
851.625	23204
851.76	23079
851.895	23155
852.03	23117
852.165	23239
852.299	23227
852.434	23299
852.569	23280
852.703	23208
852.838	23273
852.973	23288
853.107	23307
853.242	23200
853.376	23052
853.511	22862
853.645	22919
853.78	23079
853.914	22980
854.048	22984
854.183	23159
854.317	23079
854.451	23231
854.585	23105
854.72	23136
854.854	23185
854.988	22900
855.122	23067
855.256	22889
855.39	22995
855.524	23117
855.658	23018
855.792	23041
855.926	22892
856.06	22972
856.194	23075
856.327	23037
856.461	22934
856.595	22972
856.729	23067
856.862	23105
856.996	23090
857.13	23006
857.263	23029
857.397	23147
857.53	23098
857.664	22930
857.797	23029
857.931	23193
858.064	23136
858.197	23071
858.331	23086
858.464	22923
858.597	22991
858.731	22942
858.864	22904
858.997	22984
859.13	23029
859.263	22866
859.396	23033
859.529	23006
859.662	22938
859.795	23083
859.928	23022
860.061	23067
860.194	23250
860.327	23037
860.46	23090
860.592	23174
860.725	23117
860.858	23056
860.99	22984
861.123	22949
861.256	22965
861.388	23121
861.521	23760
861.653	22919
861.786	22896
861.918	22805
862.05	23003
862.183	22854
862.315	22942
862.447	23033
862.58	22904
862.712	22675
862.844	22729
862.976	22847
863.108	22869
863.24	23200
863.372	22740
863.504	22607
863.636	22679
863.768	22675
863.9	22763
864.032	22675
864.164	22672
864.296	22694
864.428	22816
864.559	22866
864.691	22645
864.823	22721
864.954	22645
865.086	22668
865.217	22679
865.349	22653
865.48	22542
865.612	22569
865.743	22710
865.875	22694
866.006	22618
866.137	22508
866.269	22504
866.4	22500
866.531	22580
866.662	22440
866.793	22535
866.924	22497
867.055	22584
867.186	22565
867.317	22356
867.448	22443
867.579	22546
867.71	22459
867.841	22306
867.972	22497
868.103	22390
868.233	22508
868.364	22497
868.495	22641
868.625	22611
868.756	22786
868.886	22668
869.017	22713
869.147	23003
869.278	22744
869.408	22653
869.539	22812
869.669	22892
869.799	22790
869.929	22873
870.06	22866
870.19	23094
870.32	23033
870.45	23010
870.58	23121
870.71	23212
870.84	23159
870.97	23140
871.1	23041
871.23	23356
871.36	23273
871.489	23239
871.619	23315
871.749	23383
871.879	23356
872.008	23501
872.138	23398
872.267	23398
872.397	23239
872.526	23159
872.656	23136
872.785	23200
872.915	23376
873.044	23414
873.173	23273
873.303	23356
873.432	23455
873.561	23383
873.69	23402
873.819	23315
873.948	23330
874.077	23372
874.206	23356
874.335	23360
874.464	23395
874.593	23554
874.722	23490
874.851	23547
874.979	23600
875.108	23608
875.237	23524
875.365	23528
875.494	23512
875.623	23627
875.751	23737
875.88	23509
876.008	23638
876.136	23703
876.265	23935
876.393	24079
876.521	24057
876.65	23969
876.778	23931
876.906	23817
877.034	23805
877.162	23828
877.29	23927
877.418	23805
877.546	23935
877.674	23908
877.802	23916
877.93	23824
878.058	23920
878.185	23764
878.313	23748
878.441	23824
878.568	23737
878.696	23923
878.824	23897
878.951	23999
879.079	24106
879.206	24144
879.333	24057
879.461	23935
879.588	23996
879.715	23977
879.842	24270
879.97	23999
880.097	23680
880.224	23668
880.351	23741
880.478	23752
880.605	23729
880.732	23863
880.859	23874
880.986	23604
881.112	23726
881.239	23444
881.366	23471
881.493	23383
881.619	23212
881.746	23284
881.872	23227
881.999	23132
882.125	23136
882.252	23159
882.378	23269
882.505	23318
882.631	23189
882.757	22987
882.883	23006
883.01	22877
883.136	22866
883.262	22873
883.388	22752
883.514	23041
883.64	22900
883.766	22782
883.892	22740
884.018	22782
884.143	22831
884.269	22904
884.395	22584
884.52	22478
884.646	22622
884.772	22508
884.897	22516
885.023	22561
885.148	22630
885.274	22713
885.399	22672
885.524	22516
885.65	22603
885.775	22641
885.9	22512
886.025	22607
886.15	22599
886.275	22573
886.4	22451
886.525	22542
886.65	22481
886.775	22550
886.9	22603
887.025	22733
887.149	22592
887.274	22295
887.399	22394
887.523	22318
887.648	22242
887.773	22211
887.897	22382
888.021	22306
888.146	22139
888.27	22291
888.395	22402
888.519	22375
888.643	22299
888.767	22409
888.891	22211
889.015	22131
889.139	22238
889.263	21987
889.387	22200
889.511	22303
889.635	22234
889.759	22036
889.883	22010
890.006	22063
890.13	22131
890.254	22105
890.377	21987
890.501	21941
890.624	21709
890.748	21903
890.871	21690
890.995	21576
891.118	21656
891.241	21625
891.364	21644
891.488	21736
891.611	21660
891.734	21572
891.857	21717
891.98	21622
892.103	21690
892.226	21709
892.349	21637
892.471	21355
892.594	21538
892.717	21504
892.839	21599
892.962	21564
893.085	21557
893.207	21477
893.33	21367
893.452	21428
893.575	21492
893.697	21496
893.819	21610
893.941	21789
894.064	21671
894.186	21526
894.308	21458
894.43	21572
894.552	21542
894.674	21576
894.796	21336
894.918	21473
895.04	21507
895.161	21606
895.283	21583
895.405	21428
895.526	21515
895.648	21443
895.769	21496
895.891	21553
896.012	21526
896.134	21671
896.255	21492
896.376	21488
896.498	21431
896.619	21523
896.74	21473
896.861	21603
896.982	21743
897.103	21991
897.224	21724
897.345	21720
897.466	21587
897.587	21728
897.708	21835
897.828	21701
897.949	21739
898.07	21511
898.19	21545
898.311	21614
898.431	21523
898.552	21625
898.672	21739
898.792	21812
898.913	21789
899.033	21511
899.153	21496
899.273	21408
899.393	21439
899.513	21526
899.633	21321
899.753	21401
899.873	21367
899.993	21424
900.113	21344
900.232	21355
900.352	21310
900.472	21157
900.591	21245
900.711	21157
900.83	21043
900.95	21157
901.069	21245
901.189	21047
901.308	20796
901.427	20708
901.546	20663
901.665	20720
901.784	20830
901.904	20629
902.023	20442
902.141	20271
902.26	20210
902.379	20339
902.498	20240
902.617	20172
902.735	20320
902.854	20202
902.973	19997
903.091	19928
903.21	19898
903.328	19940
903.446	19727
903.565	19708
903.683	19731
903.801	19559
903.919	19677
904.038	19670
904.156	19434
904.274	19384
904.392	19419
904.51	19415
904.627	19331
904.745	19343
904.863	19426
904.981	19274
905.098	19065
905.216	19076
905.334	19107
905.451	19031
905.569	19118
905.686	19072
905.803	19114
905.921	18814
906.038	18924
906.155	18867
906.272	18837
906.389	18772
906.506	18711
906.623	18654
906.74	18582
906.857	18532
906.974	18502
907.091	18616
907.208	18715
907.324	18661
907.441	18486
907.557	18239
907.674	18296
907.79	18350
907.907	18213
908.023	18266
908.139	18399
908.256	18247
908.372	18182
908.488	18163
908.604	18026
908.72	18049
908.836	18079
908.952	18053
909.068	18034
909.184	18205
909.3	18038
909.415	18064
909.531	17977
909.647	17786
909.762	17687
909.878	17634
909.993	17722
910.108	17657
910.224	17684
910.339	17600
910.454	17627
910.57	17596
910.685	17467
910.8	17668
910.915	17733
911.03	17455
911.145	17379
911.259	17269
911.374	17292
911.489	17280
911.604	17128
911.718	17037
911.833	17037
911.947	17014
912.062	16908
912.176	17155
912.291	17052
912.405	16999
912.519	17132
912.633	17242
912.748	17094
912.862	17025
912.976	16904
913.09	16790
913.204	16843
913.318	16885
913.431	16953
913.545	16850
913.659	16828
913.772	16854
913.886	16645
914	16592
914.113	16767
914.226	16778
914.34	16713
914.453	16500
914.566	16672
914.68	16550
914.793	16417
914.906	16200
915.019	16230
915.132	16207
915.245	16238
915.358	16124
915.47	16143
915.583	16268
915.696	16276
915.809	16322
915.921	16325
916.034	16112
916.146	16101
916.259	16074
916.371	16150
916.483	16120
916.595	16044
916.708	16063
916.82	15899
916.932	15979
917.044	15937
917.156	15873
917.268	15759
917.38	15880
917.491	15816
917.603	15797
917.715	15861
917.826	15892
917.938	15823
918.049	15656
918.161	15709
918.272	15861
918.384	15778
918.495	15690
918.606	15667
918.717	15504
918.828	15625
918.939	15652
919.05	15488
919.161	15553
919.272	15466
919.383	15450
919.494	15553
919.604	15709
919.715	15542
919.826	15515
919.936	15606
920.047	15587
920.157	15545
920.267	15701
920.378	15473
920.488	15443
920.598	15641
920.708	15755
920.818	15542
920.928	15557
921.038	15865
921.148	15705
921.258	15454
921.368	15431
921.477	15302
921.587	15226
921.697	15116
921.806	15218
921.916	15009
922.025	14967
922.134	14899
922.244	14902
922.353	14864
922.462	14785
922.571	14670
922.68	14518
922.789	14579
922.898	14571
923.007	14450
923.116	14541
923.224	14545
923.333	14461
923.442	14415
923.55	14317
923.659	14355
923.767	14336
923.876	14320
923.984	14408
924.092	14202
924.201	14313
924.309	14187
924.417	14294
924.525	14096
924.633	14221
924.741	15074
924.849	13947
924.956	14126
925.064	13871
925.172	13875
925.279	13814
925.387	13887
925.494	13890
925.602	13955
925.709	13883
925.816	13830
925.924	13845
926.031	13879
926.138	13852
926.245	13807
926.352	13700
926.459	13868
926.566	13780
926.673	13776
926.779	13624
926.886	13559
926.993	13468
927.099	13457
927.206	13377
927.312	13324
927.419	13453
927.525	13339
927.631	13460
927.737	13289
927.843	13175
927.95	13194
928.056	13198
928.162	13255
928.267	13236
928.373	13799
928.479	13282
928.585	13004
928.69	13099
928.796	13156
928.901	12973
929.007	12886
929.112	12996
929.218	12916
929.323	12958
929.428	12939
929.533	13038
929.638	12798
929.743	12821
929.848	12882
929.953	12875
930.058	12722
930.163	12506
930.267	12563
930.372	12662
930.477	12506
930.581	12703
930.685	12578
930.79	12509
930.894	12563
930.998	12483
931.103	12441
931.207	12129
931.311	12213
931.415	12019
931.519	11904
931.623	11764
