Data from test_V78500241_2633.txt Node
Date: Fri Mar 25 16:00:02 CST 2022
User: usil
Spectrometer: V785-0024
Trigger mode: 0
Integration Time (sec): 4.000000E-1
Scans to average: 1
Nonlinearity correction enabled: false
Boxcar width: 0
Storing dark spectrum: false
XAxis mode: Wavelengths
Number of Pixels in Spectrum: 1024
>>>>>Begin Spectral Data<<<<<
801.071	28923
801.214	28793
801.356	28478
801.499	28763
801.641	28580
801.783	28390
801.926	28493
802.068	28504
802.211	28428
802.353	28474
802.496	28223
802.638	28093
802.78	28147
802.923	28074
803.065	28017
803.208	28078
803.35	28082
803.492	28360
803.635	28459
803.777	28223
803.919	28363
804.061	28664
804.204	28405
804.346	28318
804.488	28234
804.63	28474
804.773	28516
804.915	28421
805.057	28523
805.199	28470
805.341	28550
805.483	28599
805.626	28763
805.768	28459
805.91	28516
806.052	28588
806.194	28512
806.336	28790
806.478	28565
806.62	28630
806.762	28748
806.904	28854
807.046	29094
807.188	28961
807.33	28999
807.472	29079
807.614	28999
807.756	29018
807.898	28839
808.04	28850
808.182	28843
808.324	29025
808.465	29018
808.607	29113
808.749	29277
808.891	29364
809.033	29490
809.174	29455
809.316	29334
809.458	29372
809.6	29223
809.741	29296
809.883	29486
810.025	29676
810.166	29425
810.308	29676
810.45	29528
810.591	29417
810.733	29330
810.875	29239
811.016	29299
811.158	29235
811.299	29429
811.441	29558
811.582	29482
811.724	29311
811.865	29311
812.007	29330
812.148	29414
812.29	29493
812.431	29360
812.573	29592
812.714	29798
812.855	29722
812.997	29878
813.138	30072
813.279	29984
813.421	29775
813.562	29836
813.703	29672
813.845	29535
813.986	29193
814.127	29102
814.268	29022
814.41	28904
814.551	28938
814.692	29121
814.833	28908
814.974	28965
815.115	29022
815.256	28778
815.397	28790
815.539	28843
815.68	28801
815.821	28877
815.962	28843
816.103	28801
816.244	28694
816.385	28645
816.526	28554
816.666	28314
816.807	28200
816.948	28417
817.089	28405
817.23	28375
817.371	28207
817.512	28409
817.653	28272
817.793	28318
817.934	28398
818.075	28333
818.216	28333
818.356	28265
818.497	28265
818.638	28116
818.778	28185
818.919	28192
819.06	28162
819.2	28101
819.341	28371
819.481	28280
819.622	28554
819.762	28683
819.903	28554
820.043	28588
820.184	28398
820.324	28622
820.465	28440
820.605	28401
820.746	28466
820.886	28405
821.026	28344
821.167	28356
821.307	28417
821.447	28417
821.588	28382
821.728	28204
821.868	27960
822.008	27892
822.149	28048
822.289	27785
822.429	27481
822.569	27408
822.709	27530
822.849	27336
822.99	27298
823.13	27154
823.27	27302
823.41	27264
823.55	27062
823.69	27192
823.83	27066
823.97	26998
824.11	26960
824.25	26914
824.389	26963
824.529	27066
824.669	26842
824.809	27116
824.949	27131
825.089	27135
825.228	27013
825.368	26834
825.508	26785
825.648	26880
825.787	26872
825.927	26895
826.067	26902
826.206	26899
826.346	26914
826.485	26956
826.625	26960
826.765	26883
826.904	27032
827.044	26518
827.183	26594
827.323	26533
827.462	26526
827.601	26708
827.741	26609
827.88	26503
828.02	26469
828.159	26495
828.298	26545
828.437	26613
828.577	26488
828.716	26663
828.855	26457
828.994	26343
829.134	26370
829.273	26305
829.412	26157
829.551	26294
829.69	26248
829.829	26161
829.968	26324
830.107	26278
830.246	26214
830.385	26202
830.524	26073
830.663	25997
830.802	26088
830.941	25894
831.08	25860
831.219	25913
831.357	25955
831.496	26107
831.635	25951
831.774	25734
831.913	25845
832.051	25620
832.19	25685
832.329	25761
832.467	25567
832.606	25495
832.744	25453
832.883	25578
833.022	25468
833.16	25491
833.299	25552
833.437	25533
833.576	25693
833.714	25529
833.852	25635
833.991	25521
834.129	25597
834.267	25704
834.406	25632
834.544	25719
834.682	25704
834.821	25582
834.959	25704
835.097	25624
835.235	25540
835.373	25628
835.511	25594
835.65	25506
835.788	25449
835.926	25453
836.064	25202
836.202	25232
836.34	25563
836.478	25514
836.615	25449
836.753	25400
836.891	25544
837.029	25362
837.167	25301
837.305	25331
837.443	25381
837.58	25187
837.718	25316
837.856	25297
837.993	25145
838.131	25228
838.269	25247
838.406	25137
838.544	25046
838.681	24916
838.819	24920
838.956	24700
839.094	24817
839.231	24924
839.369	24920
839.506	25164
839.643	24966
839.781	24753
839.918	24639
840.055	24795
840.193	24684
840.33	24764
840.467	24547
840.604	24726
840.742	24852
840.879	24551
841.016	24475
841.153	24433
841.29	24681
841.427	24639
841.564	24570
841.701	24593
841.838	24464
841.975	24456
842.112	24494
842.249	24433
842.385	24342
842.522	24692
842.659	24395
842.796	24346
842.933	24323
843.069	24186
843.206	24384
843.343	24422
843.479	24418
843.616	24319
843.752	24262
843.889	24178
844.025	24285
844.162	24148
844.298	24114
844.435	24163
844.571	24110
844.708	24201
844.844	24338
844.98	24235
845.117	24289
845.253	24045
845.389	24072
845.525	24178
845.661	23965
845.798	23840
845.934	23916
846.07	23866
846.206	23756
846.342	23980
846.478	24015
846.614	23729
846.75	23646
846.886	23535
847.022	23604
847.158	23600
847.294	23615
847.429	23630
847.565	23623
847.701	23741
847.837	23315
847.972	23353
848.108	23459
848.244	23280
848.379	23235
848.515	23277
848.65	23094
848.786	23174
848.921	23353
849.057	23242
849.192	23193
849.328	23242
849.463	23170
849.598	23189
849.734	23181
849.869	23056
850.004	22987
850.14	22972
850.275	22999
850.41	22752
850.545	22987
850.68	23064
850.815	22866
850.95	23029
851.085	23029
851.22	23090
851.355	23014
851.49	22869
851.625	22949
851.76	22824
851.895	22869
852.03	22923
852.165	23075
852.299	22957
852.434	22999
852.569	22953
852.703	22946
852.838	23010
852.973	23083
853.107	23052
853.242	22892
853.376	22797
853.511	22702
853.645	22752
853.78	22797
853.914	22839
854.048	22630
854.183	22831
854.317	22748
854.451	23025
854.585	22752
854.72	22805
854.854	22843
854.988	22889
855.122	22736
855.256	22546
855.39	22622
855.524	22812
855.658	22767
855.792	22850
855.926	22828
856.06	22881
856.194	22873
856.327	22778
856.461	22645
856.595	22748
856.729	22793
856.862	22873
856.996	22854
857.13	22812
857.263	22854
857.397	22923
857.53	22698
857.664	22797
857.797	22866
857.931	22908
858.064	22725
858.197	22934
858.331	22694
858.464	22710
858.597	22611
858.731	22702
858.864	22812
858.997	22702
859.13	22790
859.263	22721
859.396	22805
859.529	22763
859.662	22672
859.795	22717
859.928	22702
860.061	22873
860.194	22949
860.327	22820
860.46	22816
860.592	22938
860.725	22820
860.858	22938
860.99	22797
861.123	22748
861.256	22531
861.388	22816
861.521	23554
861.653	22702
861.786	22565
861.918	22569
862.05	22630
862.183	22706
862.315	22672
862.447	22854
862.58	22615
862.712	22599
862.844	22459
862.976	22641
863.108	22622
863.24	22847
863.372	22314
863.504	22569
863.636	22478
863.768	22455
863.9	22474
864.032	22440
864.164	22379
864.296	22675
864.428	22580
864.559	22577
864.691	22565
864.823	22455
864.954	22512
865.086	22413
865.217	22356
865.349	22310
865.48	22363
865.612	22215
865.743	22432
865.875	22363
866.006	22253
866.137	22219
866.269	22344
866.4	22322
866.531	22211
866.662	22219
866.793	22318
866.924	22207
867.055	22219
867.186	22253
867.317	22344
867.448	22211
867.579	22223
867.71	22200
867.841	22188
867.972	22352
868.103	22253
868.233	22223
868.364	22382
868.495	22325
868.625	22535
868.756	22752
868.886	22322
869.017	22493
869.147	22637
869.278	22668
869.408	22443
869.539	22398
869.669	22592
869.799	22630
869.929	22702
870.06	22535
870.19	22889
870.32	22694
870.45	22755
870.58	22908
870.71	23086
870.84	23048
870.97	23033
871.1	22892
871.23	23166
871.36	23098
871.489	22942
871.619	23174
871.749	22999
871.879	23094
872.008	23235
872.138	23128
872.267	23220
872.397	22995
872.526	23041
872.656	22987
872.785	23052
872.915	23277
873.044	23185
873.173	23079
873.303	23159
873.432	23159
873.561	23227
873.69	23174
873.819	23136
873.948	23166
874.077	23277
874.206	23052
874.335	23227
874.464	23280
874.593	23353
874.722	23296
874.851	23322
874.979	23318
875.108	23364
875.237	23162
875.365	23242
875.494	23265
875.623	23364
875.751	23288
875.88	23406
876.008	23368
876.136	23478
876.265	23752
876.393	23866
876.521	23726
876.65	23897
876.778	23764
876.906	23756
877.034	23824
877.162	23611
877.29	23611
877.418	23729
877.546	23695
877.674	23691
877.802	23585
877.93	23623
878.058	23699
878.185	23585
878.313	23661
878.441	23634
878.568	23482
878.696	23627
878.824	23767
878.951	23779
879.079	23870
879.206	23950
879.333	23836
879.461	23745
879.588	23805
879.715	23916
879.842	23855
879.97	23847
880.097	23429
880.224	23539
880.351	23581
880.478	23585
880.605	23539
880.732	23551
880.859	23851
880.986	23535
881.112	23551
881.239	23440
881.366	23193
881.493	23296
881.619	22961
881.746	23117
881.872	23117
881.999	23041
882.125	23014
882.252	23041
882.378	22767
882.505	23079
882.631	22911
882.757	22812
882.883	22831
883.01	22702
883.136	22584
883.262	22500
883.388	22637
883.514	22858
883.64	22664
883.766	22508
883.892	22516
884.018	22493
884.143	22683
884.269	22702
884.395	22668
884.52	22390
884.646	22371
884.772	22432
884.897	22261
885.023	22363
885.148	22470
885.274	22470
885.399	22455
885.524	22363
885.65	22280
885.775	22329
885.9	22466
886.025	22462
886.15	22322
886.275	22291
886.4	22166
886.525	22462
886.65	22234
886.775	22192
886.9	22481
887.025	22645
887.149	22310
887.274	22181
887.399	22025
887.523	22188
887.648	21975
887.773	22013
887.897	22196
888.021	22169
888.146	22090
888.27	22032
888.395	22181
888.519	21903
888.643	22150
888.767	22226
888.891	22067
889.015	21956
889.139	22006
889.263	21850
889.387	22078
889.511	22082
889.635	22048
889.759	21888
889.883	21979
890.006	21941
890.13	21968
890.254	21808
890.377	21789
890.501	21599
890.624	21549
890.748	21705
890.871	21511
890.995	21485
891.118	21393
891.241	21511
891.364	21534
891.488	21641
891.611	21454
891.734	21469
891.857	21473
891.98	21568
892.103	21576
892.226	21466
892.349	21336
892.471	21154
892.594	21359
892.717	21557
892.839	21226
892.962	21454
893.085	21287
893.207	21370
893.33	21310
893.452	21340
893.575	21317
893.697	21241
893.819	21378
893.941	21488
894.064	21370
894.186	21214
894.308	21180
894.43	21416
894.552	21466
894.674	21389
894.796	21313
894.918	21298
895.04	21302
895.161	21389
895.283	21450
895.405	21279
895.526	21355
895.648	21188
895.769	21325
895.891	21348
896.012	21313
896.134	21325
896.255	21268
896.376	21306
896.498	21294
896.619	21249
896.74	21310
896.861	21382
896.982	21583
897.103	21766
897.224	21519
897.345	21511
897.466	21526
897.587	21526
897.708	21553
897.828	21599
897.949	21477
898.07	21332
898.19	21450
898.311	21618
898.431	21367
898.552	21538
898.672	21477
898.792	21614
898.913	21431
899.033	21408
899.153	21310
899.273	21161
899.393	21275
899.513	21241
899.633	21195
899.753	21260
899.873	21184
899.993	21291
900.113	21218
900.232	21070
900.352	21100
900.472	21093
900.591	20937
900.711	21024
900.83	20899
900.95	21024
901.069	21062
901.189	20872
901.308	20617
901.427	20507
901.546	20552
901.665	20659
901.784	20518
901.904	20374
902.023	20385
902.141	20183
902.26	20005
902.379	20126
902.498	19967
902.617	20122
902.735	20130
902.854	20077
902.973	19902
903.091	19795
903.21	19757
903.328	19731
903.446	19689
903.565	19499
903.683	19578
903.801	19430
903.919	19422
904.038	19480
904.156	19251
904.274	19312
904.392	19263
904.51	19270
904.627	19247
904.745	19346
904.863	19316
904.981	19088
905.098	18909
905.216	18871
905.334	18935
905.451	18962
905.569	18825
905.686	18905
905.803	18962
905.921	18901
906.038	18875
906.155	18715
906.272	18635
906.389	18673
906.506	18456
906.623	18422
906.74	18452
906.857	18372
906.974	18304
907.091	18460
907.208	18544
907.324	18494
907.441	18407
907.557	18308
907.674	18148
907.79	18072
907.907	18026
908.023	18140
908.139	18121
908.256	18038
908.372	18102
908.488	18079
908.604	17980
908.72	17855
908.836	17889
908.952	17821
909.068	17946
909.184	18015
909.3	17904
909.415	17809
909.531	17870
909.647	17547
909.762	17444
909.878	17596
909.993	17710
910.108	17539
910.224	17512
910.339	17524
910.454	17455
910.57	17345
910.685	17269
910.8	17592
910.915	17528
911.03	17242
911.145	17136
911.259	16991
911.374	17128
911.489	17003
911.604	17018
911.718	16915
911.833	16938
911.947	16721
912.062	16847
912.176	16862
912.291	16915
912.405	16873
912.519	17090
912.633	17071
912.748	16927
912.862	16774
912.976	16637
913.09	16603
913.204	16607
913.318	16649
913.431	16869
913.545	16752
913.659	16828
913.772	16546
913.886	16500
914	16459
914.113	16527
914.226	16523
914.34	16637
914.453	16386
914.566	16527
914.68	16424
914.793	16257
914.906	16181
915.019	16086
915.132	16017
915.245	16025
915.358	16048
915.47	16082
915.583	15991
915.696	16063
915.809	16158
915.921	16135
916.034	15934
916.146	15979
916.259	15975
916.371	16071
916.483	15998
916.595	15930
916.708	15823
916.82	15956
916.932	15823
917.044	15770
917.156	15816
917.268	15599
917.38	15705
917.491	15652
917.603	15671
917.715	15762
917.826	15732
917.938	15568
918.049	15496
918.161	15545
918.272	15770
918.384	15690
918.495	15690
918.606	15496
918.717	15386
918.828	15466
918.939	15439
919.05	15317
919.161	15378
919.272	15009
919.383	15169
919.494	15469
919.604	15618
919.715	15428
919.826	15192
919.936	15321
920.047	15492
920.157	15477
920.267	15549
920.378	15378
920.488	15348
920.598	15462
920.708	15648
920.818	15507
920.928	15458
921.038	15538
921.148	15561
921.258	15313
921.368	15218
921.477	15127
921.587	15081
921.697	14975
921.806	15070
921.916	14914
922.025	14800
922.134	14667
922.244	14632
922.353	14705
922.462	14625
922.571	14434
922.68	14465
922.789	14328
922.898	14332
923.007	14355
923.116	14336
923.224	14393
923.333	14301
923.442	14111
923.55	14180
923.659	14123
923.767	14172
923.876	14191
923.984	14115
924.092	14119
924.201	14145
924.309	13986
924.417	14081
924.525	13932
924.633	14073
924.741	14952
924.849	13826
924.956	13932
925.064	13776
925.172	13651
925.279	13609
925.387	13731
925.494	13700
925.602	13757
925.709	13704
925.816	13594
925.924	13563
926.031	13712
926.138	13700
926.245	13662
926.352	13605
926.459	13677
926.566	13643
926.673	13544
926.779	13491
926.886	13449
926.993	13266
927.099	13304
927.206	13335
927.312	13179
927.419	13301
927.525	13213
927.631	13244
927.737	13149
927.843	13072
927.95	13004
928.056	13084
928.162	13050
928.267	13050
928.373	13510
928.479	13107
928.585	12970
928.69	13065
928.796	13000
928.901	12916
929.007	12833
929.112	12920
929.218	12802
929.323	12802
929.428	12745
929.533	12856
929.638	12684
929.743	12726
929.848	12726
929.953	12650
930.058	12551
930.163	12429
930.267	12346
930.372	12616
930.477	12376
930.581	12681
930.685	12494
930.79	12285
930.894	12292
930.998	12330
931.103	12410
931.207	12087
931.311	11988
931.415	11866
931.519	11745
931.623	11528
