Data from test_V78500241_544.txt Node
Date: Fri Mar 25 15:45:34 CST 2022
User: usil
Spectrometer: V785-0024
Trigger mode: 0
Integration Time (sec): 4.000000E-1
Scans to average: 1
Nonlinearity correction enabled: false
Boxcar width: 0
Storing dark spectrum: false
XAxis mode: Wavelengths
Number of Pixels in Spectrum: 1024
>>>>>Begin Spectral Data<<<<<
801.071	27850
801.214	27873
801.356	27523
801.499	27545
801.641	27435
801.783	27450
801.926	27477
802.068	27397
802.211	27367
802.353	27260
802.496	27154
802.638	27135
802.78	26979
802.923	27135
803.065	26842
803.208	26967
803.35	27032
803.492	27047
803.635	27161
803.777	27066
803.919	27142
804.061	27450
804.204	27218
804.346	27108
804.488	27180
804.63	27112
804.773	27100
804.915	27272
805.057	27249
805.199	27188
805.341	27249
805.483	27264
805.626	27249
805.768	27184
805.91	27386
806.052	27302
806.194	27176
806.336	27515
806.478	27180
806.62	27359
806.762	27443
806.904	27660
807.046	27873
807.188	27850
807.33	27743
807.472	27610
807.614	27770
807.756	27808
807.898	27462
808.04	27542
808.182	27431
808.324	27583
808.465	27530
808.607	27778
808.749	27781
808.891	27968
809.033	28169
809.174	28032
809.316	27994
809.458	27956
809.6	27960
809.741	28059
809.883	28021
810.025	28230
810.166	28143
810.308	28306
810.45	28139
810.591	28200
810.733	28070
810.875	28055
811.016	27774
811.158	28063
811.299	28044
811.441	28215
811.582	28044
811.724	27907
811.865	27873
812.007	27953
812.148	27926
812.29	27972
812.431	28154
812.573	28246
812.714	28455
812.855	28390
812.997	28573
813.138	28706
813.279	28607
813.421	28432
813.562	28470
813.703	28344
813.845	28143
813.986	27979
814.127	27713
814.268	27614
814.41	27663
814.551	27660
814.692	27671
814.833	27599
814.974	27599
815.115	27705
815.256	27519
815.397	27549
815.539	27435
815.68	27439
815.821	27348
815.962	27454
816.103	27473
816.244	27218
816.385	27317
816.526	27264
816.666	27020
816.807	26861
816.948	27055
817.089	27081
817.23	27112
817.371	26921
817.512	26906
817.653	27009
817.793	26727
817.934	26914
818.075	27028
818.216	26819
818.356	26807
818.497	26739
818.638	26689
818.778	26621
818.919	26750
819.06	26765
819.2	26788
819.341	26895
819.481	26944
819.622	27074
819.762	27157
819.903	27150
820.043	27108
820.184	27119
820.324	27135
820.465	27211
820.605	27192
820.746	27017
820.886	26960
821.026	26960
821.167	27013
821.307	27055
821.447	26937
821.588	26762
821.728	26708
821.868	26522
822.008	26362
822.149	26423
822.289	26438
822.429	26248
822.569	25932
822.709	26027
822.849	25925
822.99	25765
823.13	25811
823.27	25849
823.41	25548
823.55	25491
823.69	25727
823.83	25715
823.97	25537
824.11	25529
824.25	25476
824.389	25476
824.529	25635
824.669	25514
824.809	25655
824.949	25571
825.089	25677
825.228	25590
825.368	25415
825.508	25548
825.648	25362
825.787	25460
825.927	25430
826.067	25255
826.206	25282
826.346	25506
826.485	25441
826.625	25472
826.765	25449
826.904	25419
827.044	25259
827.183	25034
827.323	25084
827.462	25198
827.601	25080
827.741	25126
827.88	25221
828.02	25031
828.159	24966
828.298	25190
828.437	25278
828.577	24871
828.716	25228
828.855	25160
828.994	24837
829.134	24829
829.273	24852
829.412	24833
829.551	24726
829.69	24871
829.829	24886
829.968	24890
830.107	24829
830.246	24802
830.385	24707
830.524	24642
830.663	24776
830.802	24540
830.941	24426
831.08	24350
831.219	24582
831.357	24475
831.496	24574
831.635	24338
831.774	24395
831.913	24205
832.051	24243
832.19	24197
832.329	24228
832.467	24163
832.606	24068
832.744	24083
832.883	24174
833.022	24110
833.16	23973
833.299	24194
833.437	24129
833.576	24330
833.714	24102
833.852	24159
833.991	24194
834.129	24129
834.267	24171
834.406	24117
834.544	24098
834.682	24053
834.821	24186
834.959	24262
835.097	24133
835.235	24178
835.373	24155
835.511	24095
835.65	24079
835.788	24007
835.926	23821
836.064	23821
836.202	23874
836.34	23942
836.478	24098
836.615	24053
836.753	24003
836.891	24003
837.029	24076
837.167	23920
837.305	23954
837.443	23866
837.58	23741
837.718	23874
837.856	23691
837.993	23843
838.131	23798
838.269	23638
838.406	23786
838.544	23611
838.681	23478
838.819	23414
838.956	23258
839.094	23280
839.231	23174
839.369	23383
839.506	23566
839.643	23493
839.781	23376
839.918	23204
840.055	23181
840.193	23318
840.33	23193
840.467	23280
840.604	23341
840.742	23524
840.879	23083
841.016	23159
841.153	23185
841.29	23296
841.427	23250
841.564	23193
841.701	23273
841.838	23113
841.975	23181
842.112	23261
842.249	23083
842.385	22961
842.522	23223
842.659	23136
842.796	22930
842.933	22927
843.069	22995
843.206	22949
843.343	22961
843.479	22843
843.616	22923
843.752	22626
843.889	22752
844.025	22835
844.162	22710
844.298	22843
844.435	22801
844.571	22748
844.708	22748
844.844	22839
844.98	22767
845.117	22850
845.253	22713
845.389	22618
845.525	22645
845.661	22660
845.798	22512
845.934	22455
846.07	22424
846.206	22485
846.342	22497
846.478	22459
846.614	22287
846.75	22082
846.886	22253
847.022	22363
847.158	22204
847.294	22185
847.429	22109
847.565	22196
847.701	22382
847.837	21892
847.972	21876
848.108	21956
848.244	21903
848.379	21945
848.515	21888
848.65	21759
848.786	21713
848.921	21812
849.057	21873
849.192	21865
849.328	21937
849.463	21675
849.598	21804
849.734	21724
849.869	21553
850.004	21572
850.14	21504
850.275	21545
850.41	21504
850.545	21435
850.68	21500
850.815	21561
850.95	21492
851.085	21709
851.22	21720
851.355	21500
851.49	21435
851.625	21424
851.76	21435
851.895	21473
852.03	21488
852.165	21477
852.299	21564
852.434	21641
852.569	21572
852.703	21587
852.838	21542
852.973	21755
853.107	21610
853.242	21439
853.376	21359
853.511	21325
853.645	21374
853.78	21519
853.914	21401
854.048	21298
854.183	21329
854.317	21355
854.451	21557
854.585	21359
854.72	21348
854.854	21355
854.988	21291
855.122	21344
855.256	21348
855.39	21363
855.524	21435
855.658	21401
855.792	21378
855.926	21313
856.06	21355
856.194	21462
856.327	21447
856.461	21218
856.595	21378
856.729	21389
856.862	21511
856.996	21435
857.13	21420
857.263	21469
857.397	21477
857.53	21420
857.664	21393
857.797	21370
857.931	21424
858.064	21538
858.197	21469
858.331	21275
858.464	21245
858.597	21199
858.731	21317
858.864	21321
858.997	21389
859.13	21481
859.263	21370
859.396	21420
859.529	21401
859.662	21462
859.795	21344
859.928	21393
860.061	21412
860.194	21538
860.327	21389
860.46	21500
860.592	21416
860.725	21557
860.858	21431
860.99	21367
861.123	21161
861.256	21401
861.388	21382
861.521	21934
861.653	21264
861.786	21294
861.918	21150
862.05	21127
862.183	21226
862.315	21283
862.447	21374
862.58	21237
862.712	20994
862.844	20956
862.976	21214
863.108	21062
863.24	21561
863.372	20929
863.504	21024
863.636	21017
863.768	21138
863.9	21085
864.032	20906
864.164	21020
864.296	20944
864.428	21104
864.559	21131
864.691	21104
864.823	21184
864.954	21085
865.086	21142
865.217	21100
865.349	20735
865.48	20986
865.612	20948
865.743	21051
865.875	20914
866.006	20948
866.137	21001
866.269	21017
866.4	20975
866.531	20857
866.662	20895
866.793	20861
866.924	20921
867.055	20937
867.186	20781
867.317	20876
867.448	20785
867.579	20887
867.71	20876
867.841	20819
867.972	20963
868.103	20792
868.233	20971
868.364	20765
868.495	21020
868.625	20960
868.756	21317
868.886	20971
869.017	21142
869.147	21135
869.278	21211
869.408	21245
869.539	21100
869.669	21317
869.799	21112
869.929	21211
870.06	21256
870.19	21469
870.32	21393
870.45	21370
870.58	21458
870.71	21625
870.84	21641
870.97	21542
871.1	21530
871.23	21633
871.36	21660
871.489	21656
871.619	21637
871.749	21755
871.879	21838
872.008	21892
872.138	21838
872.267	21698
872.397	21519
872.526	21523
872.656	21625
872.785	21511
872.915	21736
873.044	21770
873.173	21800
873.303	21793
873.432	21804
873.561	21941
873.69	21800
873.819	21797
873.948	21907
874.077	21899
874.206	21766
874.335	21812
874.464	21930
874.593	21968
874.722	21953
874.851	22067
874.979	21968
875.108	21926
875.237	21941
875.365	21854
875.494	21915
875.623	21991
875.751	21949
875.88	21934
876.008	22090
876.136	22192
876.265	22413
876.393	22531
876.521	22474
876.65	22478
876.778	22504
876.906	22363
877.034	22215
877.162	22519
877.29	22367
877.418	22398
877.546	22287
877.674	22325
877.802	22234
877.93	22303
878.058	22481
878.185	22249
878.313	22284
878.441	22462
878.568	22177
878.696	22204
878.824	22398
878.951	22424
879.079	22451
879.206	22542
879.333	22466
879.461	22447
879.588	22470
879.715	22500
879.842	22710
879.97	22402
880.097	22101
880.224	22086
880.351	22112
880.478	22074
880.605	22097
880.732	22162
880.859	22303
880.986	22204
881.112	22173
881.239	22025
881.366	21930
881.493	21679
881.619	21755
881.746	21686
881.872	21747
881.999	21690
882.125	21652
882.252	21869
882.378	21667
882.505	21827
882.631	21530
882.757	21538
882.883	21370
883.01	21332
883.136	21370
883.262	21340
883.388	21146
883.514	21549
883.64	21412
883.766	21325
883.892	21188
884.018	21169
884.143	21405
884.269	21447
884.395	21176
884.52	21062
884.646	21062
884.772	20899
884.897	20864
885.023	21180
885.148	21127
885.274	21055
885.399	21165
885.524	20937
885.65	21028
885.775	21119
885.9	20960
886.025	21173
886.15	21176
886.275	21192
886.4	21005
886.525	20952
886.65	20910
886.775	21051
886.9	21150
887.025	21203
887.149	21108
887.274	20883
887.399	20906
887.523	20849
887.648	20781
887.773	20804
887.897	20796
888.021	20845
888.146	20842
888.27	20914
888.395	20929
888.519	20804
888.643	20864
888.767	20921
888.891	20781
889.015	20678
889.139	20651
889.263	20735
889.387	20697
889.511	20853
889.635	20689
889.759	20629
889.883	20587
890.006	20636
890.13	20781
890.254	20587
890.377	20552
890.501	20332
890.624	20366
890.748	20499
890.871	20343
890.995	20221
891.118	20157
891.241	20176
891.364	20187
891.488	20317
891.611	20233
891.734	20183
891.857	20240
891.98	20271
892.103	20256
892.226	20081
892.349	20187
892.471	20016
892.594	20176
892.717	19989
892.839	20081
892.962	20100
893.085	20126
893.207	20126
893.33	19978
893.452	20062
893.575	20035
893.697	20058
893.819	20317
893.941	20305
894.064	20202
894.186	19902
894.308	20012
894.43	20202
894.552	20332
894.674	20210
894.796	20069
894.918	20100
895.04	19925
895.161	20149
895.283	20149
895.405	20027
895.526	19974
895.648	20084
895.769	20115
895.891	20187
896.012	20138
896.134	20206
896.255	20164
896.376	20058
896.498	20145
896.619	20176
896.74	20111
896.861	20092
896.982	20431
897.103	20518
897.224	20438
897.345	20374
897.466	20221
897.587	20377
897.708	20476
897.828	20476
897.949	20294
898.07	20214
898.19	20210
898.311	20370
898.431	20225
898.552	20355
898.672	20393
898.792	20358
898.913	20412
899.033	20256
899.153	20088
899.273	19959
899.393	20115
899.513	20050
899.633	20016
899.753	20024
899.873	20008
899.993	20210
900.113	20020
900.232	20081
900.352	20096
900.472	19989
900.591	19845
900.711	19925
900.83	19742
900.95	19959
901.069	19986
901.189	19807
901.308	19419
901.427	19468
901.546	19441
901.665	19537
901.784	19415
901.904	19278
902.023	19126
902.141	19000
902.26	19031
902.379	19076
902.498	18935
902.617	18894
902.735	18928
902.854	18913
902.973	18825
903.091	18665
903.21	18631
903.328	18566
903.446	18395
903.565	18395
903.683	18464
903.801	18361
903.919	18426
904.038	18285
904.156	18205
904.274	18277
904.392	18251
904.51	18159
904.627	18220
904.745	18167
904.863	18133
904.981	18022
905.098	17809
905.216	17912
905.334	17836
905.451	17916
905.569	17836
905.686	17809
905.803	17870
905.921	17699
906.038	17817
906.155	17668
906.272	17535
906.389	17547
906.506	17433
906.623	17379
906.74	17395
906.857	17356
906.974	17235
907.091	17547
907.208	17551
907.324	17490
907.441	17334
907.557	17155
907.674	17048
907.79	17029
907.907	17079
908.023	17151
908.139	17090
908.256	17010
908.372	16934
908.488	16900
908.604	16828
908.72	16809
908.836	16869
908.952	16782
909.068	16805
909.184	16889
909.3	16793
909.415	16896
909.531	16828
909.647	16653
909.762	16596
909.878	16546
909.993	16592
910.108	16573
910.224	16561
910.339	16421
910.454	16382
910.57	16443
910.685	16280
910.8	16440
910.915	16462
911.03	16284
911.145	16082
911.259	16093
911.374	16017
911.489	16139
911.604	16074
911.718	15861
911.833	15892
911.947	15892
912.062	15869
912.176	15869
912.291	15876
912.405	15854
912.519	16207
912.633	15983
912.748	15934
912.862	15831
912.976	15755
913.09	15450
913.204	15705
913.318	15739
913.431	15846
913.545	15759
913.659	15819
913.772	15599
913.886	15587
914	15530
914.113	15622
914.226	15538
914.34	15545
914.453	15534
914.566	15549
914.68	15401
914.793	15321
914.906	15104
915.019	15165
915.132	15066
915.245	15169
915.358	15127
915.47	15199
915.583	15081
915.696	15081
915.809	15233
915.921	15294
916.034	15081
916.146	15066
916.259	15043
916.371	15104
916.483	14998
916.595	14948
916.708	14979
916.82	14967
916.932	14868
917.044	14960
917.156	14853
917.268	14724
917.38	14739
917.491	14735
917.603	14765
917.715	14826
917.826	14765
917.938	14686
918.049	14594
918.161	14849
918.272	14891
918.384	14796
918.495	14689
918.606	14568
918.717	14526
918.828	14636
918.939	14454
919.05	14526
919.161	14495
919.272	14324
919.383	14465
919.494	14575
919.604	14648
919.715	14473
919.826	14461
919.936	14370
920.047	14640
920.157	14537
920.267	14708
920.378	14556
920.488	14511
920.598	14629
920.708	14785
920.818	14575
920.928	14632
921.038	14750
921.148	14667
921.258	14351
921.368	14339
921.477	14320
921.587	14248
921.697	14065
921.806	14172
921.916	14043
922.025	13951
922.134	13852
922.244	13769
922.353	13826
922.462	13788
922.571	13662
922.68	13636
922.789	13506
922.898	13521
923.007	13441
923.116	13521
923.224	13487
923.333	13529
923.442	13316
923.55	13327
923.659	13324
923.767	13350
923.876	13259
923.984	13346
924.092	13133
924.201	13285
924.309	13236
924.417	13221
924.525	13118
924.633	13168
924.741	13967
924.849	13057
924.956	13019
925.064	12985
925.172	12890
925.279	12886
925.387	12970
925.494	13027
925.602	13110
925.709	13019
925.816	12833
925.924	12924
926.031	13008
926.138	12920
926.245	12871
926.352	12821
926.459	12905
926.566	12886
926.673	12825
926.779	12654
926.886	12722
926.993	12464
927.099	12490
927.206	12483
927.312	12494
927.419	12464
927.525	12445
927.631	12528
927.737	12391
927.843	12220
927.95	12262
928.056	12304
928.162	12361
928.267	12350
928.373	13004
928.479	12464
928.585	12205
928.69	12239
928.796	12285
928.901	12270
929.007	12064
929.112	12224
929.218	12098
929.323	12030
929.428	11988
929.533	12125
929.638	11984
929.743	12064
929.848	12011
929.953	12038
930.058	11885
930.163	11775
930.267	11699
930.372	11870
930.477	11707
930.581	11920
930.685	11798
930.79	11638
930.894	11676
930.998	11604
931.103	11741
931.207	11356
931.311	11273
931.415	11197
931.519	10976
931.623	10987
