Data from test_V78500241_1763.txt Node
Date: Fri Mar 25 15:54:00 CST 2022
User: usil
Spectrometer: V785-0024
Trigger mode: 0
Integration Time (sec): 4.000000E-1
Scans to average: 1
Nonlinearity correction enabled: false
Boxcar width: 0
Storing dark spectrum: false
XAxis mode: Wavelengths
Number of Pixels in Spectrum: 1024
>>>>>Begin Spectral Data<<<<<
801.071	28972
801.214	28824
801.356	28538
801.499	28489
801.641	28363
801.783	28356
801.926	28470
802.068	28348
802.211	28295
802.353	28329
802.496	28185
802.638	28059
802.78	27994
802.923	27956
803.065	28093
803.208	28097
803.35	28097
803.492	28390
803.635	28314
803.777	28185
803.919	28360
804.061	28672
804.204	28360
804.346	28299
804.488	28413
804.63	28443
804.773	28363
804.915	28371
805.057	28603
805.199	28363
805.341	28436
805.483	28596
805.626	28512
805.768	28538
805.91	28557
806.052	28516
806.194	28497
806.336	28767
806.478	28527
806.62	28626
806.762	28679
806.904	28946
807.046	29010
807.188	28873
807.33	29025
807.472	29037
807.614	28976
807.756	29102
807.898	28911
808.04	28828
808.182	28763
808.324	28896
808.465	28820
808.607	29174
808.749	29364
808.891	29345
809.033	29292
809.174	29486
809.316	29258
809.458	29299
809.6	29200
809.741	29410
809.883	29299
810.025	29589
810.166	29570
810.308	29600
810.45	29417
810.591	29554
810.733	29254
810.875	29208
811.016	29136
811.158	29250
811.299	29334
811.441	29303
811.582	29444
811.724	29375
811.865	29284
812.007	29178
812.148	29185
812.29	29318
812.431	29459
812.573	29528
812.714	29634
812.855	29642
812.997	29847
813.138	30053
813.279	29866
813.421	29718
813.562	29760
813.703	29627
813.845	29581
813.986	29128
814.127	29216
814.268	29010
814.41	29136
814.551	28923
814.692	29060
814.833	28976
814.974	28820
815.115	28927
815.256	28763
815.397	28812
815.539	28843
815.68	28637
815.821	28622
815.962	28820
816.103	28656
816.244	28538
816.385	28500
816.526	28569
816.666	28379
816.807	28226
816.948	28329
817.089	28344
817.23	28230
817.371	28249
817.512	28352
817.653	28261
817.793	28303
817.934	28295
818.075	28352
818.216	28204
818.356	28120
818.497	28207
818.638	27941
818.778	28044
818.919	27964
819.06	28082
819.2	28207
819.341	28329
819.481	28303
819.622	28459
819.762	28622
819.903	28565
820.043	28329
820.184	28432
820.324	28329
820.465	28417
820.605	28303
820.746	28295
820.886	28306
821.026	28398
821.167	28379
821.307	28447
821.447	28310
821.588	28154
821.728	28109
821.868	27914
822.008	27854
822.149	27827
822.289	27542
822.429	27542
822.569	27519
822.709	27431
822.849	27256
822.99	27329
823.13	27249
823.27	27184
823.41	27138
823.55	26944
823.69	27154
823.83	27055
823.97	27058
824.11	26823
824.25	27013
824.389	26842
824.529	27017
824.669	26937
824.809	27173
824.949	26956
825.089	27047
825.228	26914
825.368	26727
825.508	26834
825.648	26876
825.787	26937
825.927	26918
826.067	26746
826.206	26762
826.346	26804
826.485	26773
826.625	26811
826.765	26975
826.904	27001
827.044	26571
827.183	26564
827.323	26564
827.462	26583
827.601	26530
827.741	26450
827.88	26450
828.02	26408
828.159	26636
828.298	26408
828.437	26549
828.577	26480
828.716	26621
828.855	26530
828.994	26252
829.134	26221
829.273	26214
829.412	26164
829.551	26195
829.69	26218
829.829	26088
829.968	26313
830.107	26298
830.246	26199
830.385	26050
830.524	26115
830.663	25959
830.802	25959
830.941	25746
831.08	25685
831.219	25803
831.357	25807
831.496	26058
831.635	25742
831.774	25639
831.913	25670
832.051	25666
832.19	25628
832.329	25578
832.467	25597
832.606	25426
832.744	25529
832.883	25483
833.022	25400
833.16	25487
833.299	25605
833.437	25506
833.576	25655
833.714	25582
833.852	25552
833.991	25674
834.129	25681
834.267	25571
834.406	25643
834.544	25506
834.682	25521
834.821	25571
834.959	25563
835.097	25525
835.235	25624
835.373	25620
835.511	25441
835.65	25518
835.788	25362
835.926	25278
836.064	25069
836.202	25148
836.34	25194
836.478	25369
836.615	25228
836.753	25445
836.891	25384
837.029	25331
837.167	25346
837.305	25354
837.443	25282
837.58	25057
837.718	25206
837.856	25327
837.993	25099
838.131	25209
838.269	25088
838.406	25046
838.544	25000
838.681	24779
838.819	24764
838.956	24681
839.094	24623
839.231	24722
839.369	24677
839.506	25118
839.643	24848
839.781	24612
839.918	24513
840.055	24661
840.193	24700
840.33	24593
840.467	24547
840.604	24582
840.742	24844
840.879	24410
841.016	24483
841.153	24464
841.29	24738
841.427	24536
841.564	24563
841.701	24456
841.838	24433
841.975	24342
842.112	24471
842.249	24456
842.385	24338
842.522	24627
842.659	24346
842.796	24289
842.933	24266
843.069	24254
843.206	24235
843.343	24334
843.479	24277
843.616	24277
843.752	24110
843.889	24140
844.025	24266
844.162	24060
844.298	24247
844.435	23961
844.571	24015
844.708	24266
844.844	24327
844.98	24144
845.117	24182
845.253	24038
845.389	23950
845.525	23980
845.661	23847
845.798	23771
845.934	23775
846.07	23684
846.206	23779
846.342	23942
846.478	23695
846.614	23687
846.75	23410
846.886	23554
847.022	23425
847.158	23634
847.294	23551
847.429	23672
847.565	23486
847.701	23665
847.837	23143
847.972	23189
848.108	23372
848.244	23372
848.379	23064
848.515	23128
848.65	23056
848.786	23075
848.921	23086
849.057	23261
849.192	23136
849.328	23105
849.463	23056
849.598	23044
849.734	23041
849.869	22995
850.004	22858
850.14	22824
850.275	22938
850.41	22816
850.545	22858
850.68	22968
850.815	22828
850.95	22862
851.085	23048
851.22	22889
851.355	22843
851.49	22820
851.625	22812
851.76	22885
851.895	22763
852.03	22748
852.165	22801
852.299	22877
852.434	22930
852.569	23003
852.703	22763
852.838	22847
852.973	23003
853.107	22972
853.242	22854
853.376	22580
853.511	22706
853.645	22653
853.78	22809
853.914	22744
854.048	22679
854.183	22588
854.317	22656
854.451	22805
854.585	22755
854.72	22599
854.854	22691
854.988	22812
855.122	22698
855.256	22626
855.39	22698
855.524	22831
855.658	22809
855.792	22660
855.926	22641
856.06	22523
856.194	22759
856.327	22656
856.461	22626
856.595	22622
856.729	22698
856.862	22805
856.996	22641
857.13	22744
857.263	22801
857.397	22721
857.53	22687
857.664	22771
857.797	22725
857.931	22729
858.064	22740
858.197	22626
858.331	22641
858.464	22580
858.597	22584
858.731	22504
858.864	22641
858.997	22615
859.13	22721
859.263	22694
859.396	22843
859.529	22641
859.662	22668
859.795	22607
859.928	22729
860.061	22938
860.194	22877
860.327	22733
860.46	22584
860.592	22820
860.725	22843
860.858	22710
860.99	22748
861.123	22592
861.256	22626
861.388	22664
861.521	23459
861.653	22516
861.786	22451
861.918	22462
862.05	22512
862.183	22573
862.315	22573
862.447	22687
862.58	22641
862.712	22367
862.844	22276
862.976	22428
863.108	22485
863.24	22660
863.372	22417
863.504	22325
863.636	22462
863.768	22485
863.9	22565
864.032	22314
864.164	22318
864.296	22405
864.428	22394
864.559	22409
864.691	22360
864.823	22337
864.954	22352
865.086	22390
865.217	22295
865.349	22185
865.48	22280
865.612	22204
865.743	22402
865.875	22344
866.006	22226
866.137	22382
866.269	22303
866.4	22299
866.531	22204
866.662	22086
866.793	22124
866.924	22261
867.055	22177
867.186	22185
867.317	22173
867.448	22017
867.579	22169
867.71	22048
867.841	22143
867.972	22147
868.103	22219
868.233	22234
868.364	22253
868.495	22257
868.625	22363
868.756	22508
868.886	22352
869.017	22341
869.147	22573
869.278	22580
869.408	22554
869.539	22428
869.669	22466
869.799	22424
869.929	22577
870.06	22516
870.19	22694
870.32	22713
870.45	22725
870.58	22896
870.71	22892
870.84	22961
870.97	22793
871.1	22835
871.23	23052
871.36	23003
871.489	22843
871.619	22999
871.749	22885
871.879	23124
872.008	23117
872.138	22972
872.267	23006
872.397	22904
872.526	22869
872.656	22862
872.785	22869
872.915	23166
873.044	23200
873.173	23064
873.303	23006
873.432	23140
873.561	23010
873.69	23067
873.819	23044
873.948	23060
874.077	23075
874.206	22911
874.335	23014
874.464	23075
874.593	23288
874.722	23284
874.851	23208
874.979	23235
875.108	23414
875.237	23181
875.365	23079
875.494	23258
875.623	23356
875.751	23216
875.88	23254
876.008	23307
876.136	23345
876.265	23630
876.393	23672
876.521	23722
876.65	23710
876.778	23619
876.906	23627
877.034	23547
877.162	23581
877.29	23482
877.418	23459
877.546	23714
877.674	23577
877.802	23630
877.93	23573
878.058	23505
878.185	23471
878.313	23554
878.441	23691
878.568	23551
878.696	23459
878.824	23722
878.951	23661
879.079	23809
879.206	24011
879.333	23653
879.461	23509
879.588	23729
879.715	23718
879.842	23741
879.97	23680
880.097	23391
880.224	23414
880.351	23459
880.478	23322
880.605	23345
880.732	23509
880.859	23665
880.986	23471
881.112	23417
881.239	23143
881.366	23140
881.493	23124
881.619	22946
881.746	22961
881.872	22968
881.999	22946
882.125	22854
882.252	23022
882.378	23022
882.505	23105
882.631	22809
882.757	22607
882.883	22664
883.01	22755
883.136	22691
883.262	22459
883.388	22660
883.514	22660
883.64	22603
883.766	22546
883.892	22413
884.018	22504
884.143	22466
884.269	22592
884.395	22246
884.52	22070
884.646	22246
884.772	22150
884.897	22211
885.023	22314
885.148	22405
885.274	22424
885.399	22337
885.524	22135
885.65	22417
885.775	22265
885.9	22249
886.025	22394
886.15	22200
886.275	22169
886.4	22128
886.525	22219
886.65	22284
886.775	22253
886.9	22337
887.025	22474
887.149	22253
887.274	22032
887.399	21937
887.523	22120
887.648	22013
887.773	21968
887.897	22078
888.021	22082
888.146	21956
888.27	22093
888.395	22158
888.519	22021
888.643	21960
888.767	22036
888.891	21880
889.015	21903
889.139	21903
889.263	21762
889.387	21857
889.511	22063
889.635	21926
889.759	21770
889.883	21781
890.006	21831
890.13	21983
890.254	21713
890.377	21766
890.501	21603
890.624	21583
890.748	21606
890.871	21492
890.995	21393
891.118	21249
891.241	21393
891.364	21549
891.488	21462
891.611	21454
891.734	21264
891.857	21393
891.98	21298
892.103	21401
892.226	21306
892.349	21252
892.471	21214
892.594	21313
892.717	21260
892.839	21306
892.962	21313
893.085	21272
893.207	21325
893.33	21093
893.452	21161
893.575	21302
893.697	21260
893.819	21408
893.941	21466
894.064	21336
894.186	21211
894.308	21195
894.43	21405
894.552	21363
894.674	21306
894.796	21195
894.918	21294
895.04	21230
895.161	21245
895.283	21294
895.405	21154
895.526	21294
895.648	21313
895.769	21283
895.891	21351
896.012	21275
896.134	21165
896.255	21154
896.376	21249
896.498	21218
896.619	21252
896.74	21207
896.861	21260
896.982	21408
897.103	21671
897.224	21469
897.345	21428
897.466	21344
897.587	21428
897.708	21568
897.828	21458
897.949	21382
898.07	21127
898.19	21397
898.311	21549
898.431	21370
898.552	21412
898.672	21477
898.792	21504
898.913	21405
899.033	21283
899.153	21176
899.273	21066
899.393	21256
899.513	21287
899.633	21123
899.753	21233
899.873	21142
899.993	21233
900.113	21032
900.232	21192
900.352	21077
900.472	21058
900.591	20914
900.711	20971
900.83	20967
900.95	21051
901.069	20994
901.189	20781
901.308	20598
901.427	20499
901.546	20609
901.665	20518
901.784	20469
901.904	20347
902.023	20347
902.141	20054
902.26	20058
902.379	20069
902.498	19928
902.617	19944
902.735	19936
902.854	19967
902.973	19906
903.091	19658
903.21	19723
903.328	19693
903.446	19567
903.565	19487
903.683	19487
903.801	19438
903.919	19350
904.038	19339
904.156	19240
904.274	19270
904.392	19206
904.51	19126
904.627	19095
904.745	19236
904.863	19213
904.981	18928
905.098	18909
905.216	18878
905.334	18928
905.451	18973
905.569	18810
905.686	18897
905.803	18795
905.921	18684
906.038	18749
906.155	18768
906.272	18544
906.389	18642
906.506	18323
906.623	18365
906.74	18388
906.857	18258
906.974	18388
907.091	18448
907.208	18502
907.324	18376
907.441	18391
907.557	18117
907.674	18247
907.79	18049
907.907	18114
908.023	18125
908.139	18098
908.256	18007
908.372	17988
908.488	17954
908.604	17722
908.72	17790
908.836	17904
908.952	17798
909.068	17889
909.184	17965
909.3	17771
909.415	17889
909.531	17691
909.647	17589
909.762	17512
909.878	17501
909.993	17604
910.108	17558
910.224	17425
910.339	17501
910.454	17474
910.57	17288
910.685	17166
910.8	17532
910.915	17493
911.03	17292
911.145	17155
911.259	17117
911.374	17136
911.489	17041
911.604	16965
911.718	16881
911.833	16889
911.947	16763
912.062	16736
912.176	16904
912.291	16835
912.405	16854
912.519	17060
912.633	16949
912.748	16877
912.862	16850
912.976	16668
913.09	16634
913.204	16538
913.318	16588
913.431	16729
913.545	16694
913.659	16755
913.772	16580
913.886	16462
914	16413
914.113	16516
914.226	16554
914.34	16455
914.453	16314
914.566	16402
914.68	16314
914.793	16257
914.906	16272
915.019	16074
915.132	15922
915.245	15964
915.358	15994
915.47	15994
915.583	16017
915.696	16097
915.809	16211
915.921	16055
916.034	15968
916.146	15937
916.259	15911
916.371	15953
916.483	15880
916.595	15922
916.708	15751
916.82	15800
916.932	15873
917.044	15736
917.156	15679
917.268	15606
917.38	15686
917.491	15576
917.603	15610
917.715	15690
917.826	15739
917.938	15553
918.049	15458
918.161	15401
918.272	15633
918.384	15701
918.495	15572
918.606	15272
918.717	15245
918.828	15454
918.939	15492
919.05	15268
919.161	15386
919.272	15085
919.383	15192
919.494	15564
919.604	15526
919.715	15393
919.826	15252
919.936	15272
920.047	15340
920.157	15291
920.267	15458
920.378	15344
920.488	15294
920.598	15667
920.708	15553
920.818	15393
920.928	15485
921.038	15549
921.148	15504
921.258	15336
921.368	15123
921.477	15001
921.587	15104
921.697	15036
921.806	15028
921.916	14800
922.025	14773
922.134	14689
922.244	14537
922.353	14750
922.462	14545
922.571	14583
922.68	14305
922.789	14328
922.898	14377
923.007	14256
923.116	14313
923.224	14351
923.333	14256
923.442	14065
923.55	14126
923.659	14157
923.767	14256
923.876	14081
923.984	14161
924.092	14092
924.201	14107
924.309	14058
924.417	14050
924.525	13860
924.633	13967
924.741	14712
924.849	13788
924.956	13928
925.064	13693
925.172	13655
925.279	13666
925.387	13769
925.494	13738
925.602	13841
925.709	13681
925.816	13548
925.924	13658
926.031	13647
926.138	13586
926.245	13658
926.352	13495
926.459	13719
926.566	13715
926.673	13567
926.779	13472
926.886	13369
926.993	13346
927.099	13255
927.206	13278
927.312	13187
927.419	13308
927.525	13141
927.631	13251
927.737	13084
927.843	13053
927.95	12970
928.056	13076
928.162	13027
928.267	13015
928.373	13715
928.479	13053
928.585	12817
928.69	12951
928.796	12985
928.901	12913
929.007	12741
929.112	12817
929.218	12840
929.323	12795
929.428	12684
929.533	12867
929.638	12639
929.743	12677
929.848	12719
929.953	12608
930.058	12593
930.163	12403
930.267	12456
930.372	12490
930.477	12414
930.581	12631
930.685	12448
930.79	12262
930.894	12414
930.998	12228
931.103	12407
931.207	11958
931.311	11912
931.415	11874
931.519	11657
931.623	11611
