Data from test_V78500241_2175.txt Node
Date: Fri Mar 25 15:56:52 CST 2022
User: usil
Spectrometer: V785-0024
Trigger mode: 0
Integration Time (sec): 4.000000E-1
Scans to average: 1
Nonlinearity correction enabled: false
Boxcar width: 0
Storing dark spectrum: false
XAxis mode: Wavelengths
Number of Pixels in Spectrum: 1024
>>>>>Begin Spectral Data<<<<<
801.071	28900
801.214	28771
801.356	28672
801.499	28592
801.641	28424
801.783	28550
801.926	28660
802.068	28405
802.211	28405
802.353	28405
802.496	28291
802.638	28173
802.78	28188
802.923	28070
803.065	28086
803.208	28131
803.35	28226
803.492	28356
803.635	28466
803.777	28341
803.919	28409
804.061	28771
804.204	28440
804.346	28436
804.488	28474
804.63	28371
804.773	28287
804.915	28573
805.057	28573
805.199	28432
805.341	28508
805.483	28447
805.626	28839
805.768	28531
805.91	28641
806.052	28615
806.194	28607
806.336	28691
806.478	28577
806.62	28546
806.762	28706
806.904	28968
807.046	29124
807.188	29060
807.33	29025
807.472	28949
807.614	28980
807.756	29067
807.898	28881
808.04	28828
808.182	28793
808.324	29003
808.465	28995
808.607	29239
808.749	29284
808.891	29368
809.033	29410
809.174	29417
809.316	29239
809.458	29326
809.6	29360
809.741	29406
809.883	29288
810.025	29611
810.166	29535
810.308	29570
810.45	29486
810.591	29387
810.733	29455
810.875	29315
811.016	29265
811.158	29162
811.299	29387
811.441	29474
811.582	29490
811.724	29250
811.865	29326
812.007	29368
812.148	29375
812.29	29474
812.431	29547
812.573	29634
812.714	29707
812.855	29824
812.997	29988
813.138	30129
813.279	29885
813.421	29821
813.562	29676
813.703	29558
813.845	29520
813.986	29292
814.127	29155
814.268	29105
814.41	29204
814.551	29109
814.692	29220
814.833	28968
814.974	29075
815.115	29102
815.256	28858
815.397	28972
815.539	28888
815.68	28831
815.821	28736
815.962	28744
816.103	28862
816.244	28713
816.385	28481
816.526	28550
816.666	28443
816.807	28322
816.948	28382
817.089	28523
817.23	28394
817.371	28405
817.512	28485
817.653	28367
817.793	28215
817.934	28299
818.075	28360
818.216	28284
818.356	28382
818.497	28188
818.638	28051
818.778	28158
818.919	28120
819.06	28211
819.2	28226
819.341	28413
819.481	28504
819.622	28630
819.762	28702
819.903	28653
820.043	28611
820.184	28550
820.324	28569
820.465	28599
820.605	28478
820.746	28603
820.886	28470
821.026	28386
821.167	28485
821.307	28535
821.447	28451
821.588	28299
821.728	28215
821.868	28013
822.008	27941
822.149	27876
822.289	27857
822.429	27599
822.569	27412
822.709	27504
822.849	27416
822.99	27389
823.13	27245
823.27	27340
823.41	27184
823.55	26971
823.69	27089
823.83	27279
823.97	27081
824.11	26975
824.25	27020
824.389	27051
824.529	26952
824.669	27024
824.809	27135
824.949	27074
825.089	27180
825.228	27013
825.368	26815
825.508	26891
825.648	26967
825.787	26925
825.927	26971
826.067	26849
826.206	26823
826.346	26979
826.485	27001
826.625	26956
826.765	26940
826.904	26998
827.044	26606
827.183	26667
827.323	26541
827.462	26697
827.601	26689
827.741	26590
827.88	26648
828.02	26575
828.159	26689
828.298	26621
828.437	26727
828.577	26537
828.716	26853
828.855	26461
828.994	26225
829.134	26339
829.273	26248
829.412	26168
829.551	26313
829.69	26164
829.829	26320
829.968	26317
830.107	26473
830.246	26290
830.385	26317
830.524	26320
830.663	26221
830.802	25989
830.941	25845
831.08	25807
831.219	25978
831.357	25944
831.496	26153
831.635	25875
831.774	25845
831.913	25791
832.051	25655
832.19	25624
832.329	25681
832.467	25674
832.606	25495
832.744	25479
832.883	25495
833.022	25518
833.16	25529
833.299	25628
833.437	25506
833.576	25723
833.714	25582
833.852	25624
833.991	25556
834.129	25814
834.267	25670
834.406	25674
834.544	25693
834.682	25548
834.821	25563
834.959	25780
835.097	25434
835.235	25582
835.373	25590
835.511	25689
835.65	25499
835.788	25407
835.926	25346
836.064	25346
836.202	25293
836.34	25426
836.478	25506
836.615	25460
836.753	25449
836.891	25529
837.029	25434
837.167	25525
837.305	25369
837.443	25297
837.58	25346
837.718	25384
837.856	25324
837.993	25194
838.131	25122
838.269	25122
838.406	25198
838.544	25118
838.681	24882
838.819	24875
838.956	24787
839.094	24882
839.231	24665
839.369	24768
839.506	25046
839.643	24962
839.781	24665
839.918	24593
840.055	24715
840.193	24734
840.33	24585
840.467	24715
840.604	24700
840.742	24859
840.879	24532
841.016	24547
841.153	24509
841.29	24722
841.427	24555
841.564	24719
841.701	24620
841.838	24540
841.975	24483
842.112	24532
842.249	24467
842.385	24365
842.522	24498
842.659	24528
842.796	24498
842.933	24357
843.069	24353
843.206	24266
843.343	24544
843.479	24251
843.616	24384
843.752	24262
843.889	24228
844.025	24361
844.162	24106
844.298	24205
844.435	24053
844.571	24190
844.708	24110
844.844	24350
844.98	24327
845.117	24372
845.253	24136
845.389	23973
845.525	24060
845.661	23912
845.798	23882
845.934	23824
846.07	23878
846.206	23843
846.342	24110
846.478	23954
846.614	23604
846.75	23687
846.886	23733
847.022	23634
847.158	23516
847.294	23680
847.429	23741
847.565	23611
847.701	23790
847.837	23250
847.972	23391
848.108	23505
848.244	23558
848.379	23307
848.515	23105
848.65	23326
848.786	23315
848.921	23239
849.057	23315
849.192	23185
849.328	23117
849.463	23204
849.598	23151
849.734	23231
849.869	23079
850.004	22987
850.14	23041
850.275	22972
850.41	22877
850.545	22911
850.68	22869
850.815	23041
850.95	22968
851.085	23071
851.22	23086
851.355	22957
851.49	22980
851.625	22949
851.76	23048
851.895	22843
852.03	22824
852.165	22915
852.299	23003
852.434	22965
852.569	22976
852.703	22953
852.838	22881
852.973	23090
853.107	23022
853.242	22881
853.376	22869
853.511	22698
853.645	22683
853.78	22831
853.914	22748
854.048	22748
854.183	22774
854.317	22843
854.451	22965
854.585	22824
854.72	22816
854.854	22748
854.988	22687
855.122	22847
855.256	22607
855.39	22801
855.524	22900
855.658	23041
855.792	22725
855.926	22759
856.06	22805
856.194	22843
856.327	22847
856.461	22687
856.595	22706
856.729	22809
856.862	22839
856.996	22831
857.13	22877
857.263	22881
857.397	22816
857.53	22717
857.664	22786
857.797	22904
857.931	22949
858.064	22831
858.197	22919
858.331	22816
858.464	22599
858.597	22687
858.731	22702
858.864	22645
858.997	22740
859.13	22710
859.263	22828
859.396	22904
859.529	22812
859.662	22736
859.795	22839
859.928	22786
860.061	22968
860.194	22915
860.327	22862
860.46	22713
860.592	22896
860.725	22934
860.858	22889
860.99	22809
861.123	22634
861.256	22687
861.388	22755
861.521	23592
861.653	22736
861.786	22500
861.918	22569
862.05	22702
862.183	22706
862.315	22706
862.447	22828
862.58	22557
862.712	22596
862.844	22519
862.976	22523
863.108	22481
863.24	23041
863.372	22504
863.504	22474
863.636	22531
863.768	22584
863.9	22504
864.032	22440
864.164	22512
864.296	22497
864.428	22630
864.559	22504
864.691	22516
864.823	22508
864.954	22436
865.086	22371
865.217	22451
865.349	22265
865.48	22337
865.612	22413
865.743	22538
865.875	22451
866.006	22325
866.137	22440
866.269	22371
866.4	22314
866.531	22219
866.662	22318
866.793	22196
866.924	22337
867.055	22268
867.186	22322
867.317	22284
867.448	22257
867.579	22238
867.71	22314
867.841	22188
867.972	22322
868.103	22143
868.233	22268
868.364	22246
868.495	22356
868.625	22504
868.756	22580
868.886	22440
869.017	22481
869.147	22565
869.278	22725
869.408	22577
869.539	22542
869.669	22687
869.799	22440
869.929	22622
870.06	22679
870.19	22843
870.32	22725
870.45	22984
870.58	23064
870.71	23025
870.84	22934
870.97	22904
871.1	22946
871.23	23060
871.36	23166
871.489	23010
871.619	23033
871.749	23102
871.879	23041
872.008	23189
872.138	23113
872.267	23140
872.397	23006
872.526	22911
872.656	22881
872.785	22976
872.915	23292
873.044	23258
873.173	23208
873.303	23208
873.432	23162
873.561	23212
873.69	23159
873.819	23060
873.948	23128
874.077	23079
874.206	23060
874.335	23143
874.464	23246
874.593	23505
874.722	23334
874.851	23444
874.979	23334
875.108	23570
875.237	23334
875.365	23326
875.494	23356
875.623	23406
875.751	23337
875.88	23349
876.008	23459
876.136	23585
876.265	23608
876.393	23851
876.521	23847
876.65	23798
876.778	23733
876.906	23703
877.034	23653
877.162	23680
877.29	23653
877.418	23619
877.546	23608
877.674	23665
877.802	23710
877.93	23646
878.058	23554
878.185	23570
878.313	23649
878.441	23710
878.568	23452
878.696	23554
878.824	23634
878.951	23805
879.079	23817
879.206	23935
879.333	23855
879.461	23630
879.588	23775
879.715	23840
879.842	23927
879.97	23722
880.097	23577
880.224	23520
880.351	23501
880.478	23608
880.605	23440
880.732	23471
880.859	23699
880.986	23474
881.112	23452
881.239	23387
881.366	23162
881.493	23064
881.619	23037
881.746	23155
881.872	23037
881.999	23136
882.125	23079
882.252	23029
882.378	23010
882.505	23071
882.631	22824
882.757	22763
882.883	22839
883.01	22687
883.136	22664
883.262	22607
883.388	22691
883.514	22771
883.64	22740
883.766	22687
883.892	22508
884.018	22531
884.143	22706
884.269	22615
884.395	22371
884.52	22398
884.646	22394
884.772	22211
884.897	22356
885.023	22379
885.148	22417
885.274	22504
885.399	22402
885.524	22329
885.65	22386
885.775	22394
885.9	22394
886.025	22466
886.15	22436
886.275	22257
886.4	22265
886.525	22344
886.65	22287
886.775	22257
886.9	22428
887.025	22694
887.149	22268
887.274	22238
887.399	22006
887.523	22109
887.648	22082
887.773	21960
887.897	22097
888.021	22204
888.146	22044
888.27	22143
888.395	22036
888.519	22029
888.643	22234
888.767	22051
888.891	22070
889.015	21922
889.139	22044
889.263	21865
889.387	22070
889.511	22036
889.635	21960
889.759	21888
889.883	21846
890.006	21972
890.13	21930
890.254	21892
890.377	21884
890.501	21751
890.624	21553
890.748	21591
890.871	21599
890.995	21420
891.118	21348
891.241	21500
891.364	21462
891.488	21572
891.611	21545
891.734	21416
891.857	21420
891.98	21500
892.103	21466
892.226	21583
892.349	21382
892.471	21237
892.594	21397
892.717	21336
892.839	21370
892.962	21310
893.085	21294
893.207	21370
893.33	21093
893.452	21310
893.575	21477
893.697	21252
893.819	21549
893.941	21504
894.064	21515
894.186	21275
894.308	21298
894.43	21485
894.552	21389
894.674	21313
894.796	21252
894.918	21272
895.04	21161
895.161	21412
895.283	21230
895.405	21260
895.526	21245
895.648	21279
895.769	21329
895.891	21252
896.012	21386
896.134	21359
896.255	21245
896.376	21287
896.498	21241
896.619	21245
896.74	21230
896.861	21294
896.982	21648
897.103	21652
897.224	21580
897.345	21443
897.466	21488
897.587	21534
897.708	21679
897.828	21603
897.949	21545
898.07	21321
898.19	21351
898.311	21538
898.431	21519
898.552	21321
898.672	21462
898.792	21599
898.913	21416
899.033	21359
899.153	21256
899.273	21154
899.393	21123
899.513	21252
899.633	21279
899.753	21119
899.873	21268
899.993	21268
900.113	21096
900.232	21161
900.352	21039
900.472	20967
900.591	21024
900.711	20906
900.83	20876
900.95	21074
901.069	21070
901.189	20857
901.308	20674
901.427	20598
901.546	20621
901.665	20575
901.784	20522
901.904	20438
902.023	20324
902.141	20172
902.26	20119
902.379	20259
902.498	20039
902.617	19856
902.735	20180
902.854	20027
902.973	19917
903.091	19666
903.21	19639
903.328	19594
903.446	19635
903.565	19525
903.683	19506
903.801	19438
903.919	19407
904.038	19460
904.156	19255
904.274	19266
904.392	19259
904.51	19232
904.627	19183
904.745	19266
904.863	19301
904.981	19069
905.098	18909
905.216	18928
905.334	18905
905.451	18951
905.569	18916
905.686	18935
905.803	18932
905.921	18840
906.038	18791
906.155	18814
906.272	18738
906.389	18544
906.506	18483
906.623	18429
906.74	18566
906.857	18243
906.974	18330
907.091	18418
907.208	18509
907.324	18635
907.441	18357
907.557	18159
907.674	18205
907.79	18022
907.907	18110
908.023	18163
908.139	18235
908.256	18083
908.372	18060
908.488	18053
908.604	17889
908.72	17817
908.836	17878
908.952	17863
909.068	17847
909.184	17969
909.3	17904
909.415	17950
909.531	17779
909.647	17581
909.762	17482
909.878	17570
909.993	17611
910.108	17406
910.224	17490
910.339	17440
910.454	17455
910.57	17296
910.685	17356
910.8	17505
910.915	17566
911.03	17296
911.145	17067
911.259	17159
911.374	17258
911.489	16999
911.604	17079
911.718	16889
911.833	16889
911.947	16771
912.062	16721
912.176	16877
912.291	16850
912.405	16854
912.519	17060
912.633	17075
912.748	16930
912.862	16919
912.976	16611
913.09	16565
913.204	16519
913.318	16706
913.431	16740
913.545	16759
913.659	16809
913.772	16698
913.886	16527
914	16436
914.113	16489
914.226	16504
914.34	16508
914.453	16341
914.566	16459
914.68	16390
914.793	16325
914.906	16105
915.019	16006
915.132	15994
915.245	16044
915.358	16105
915.47	16002
915.583	16055
915.696	16101
915.809	16166
915.921	16257
916.034	15953
916.146	15915
916.259	15888
916.371	16017
916.483	16093
916.595	15823
916.708	15941
916.82	15876
916.932	15812
917.044	15812
917.156	15766
917.268	15675
917.38	15690
917.491	15698
917.603	15679
917.715	15728
917.826	15736
917.938	15633
918.049	15462
918.161	15618
918.272	15743
918.384	15705
918.495	15572
918.606	15420
918.717	15397
918.828	15405
918.939	15519
919.05	15416
919.161	15443
919.272	15237
919.383	15256
919.494	15542
919.604	15587
919.715	15405
919.826	15272
919.936	15260
920.047	15454
920.157	15439
920.267	15526
920.378	15351
920.488	15397
920.598	15488
920.708	15591
920.818	15458
920.928	15462
921.038	15686
921.148	15447
921.258	15382
921.368	15192
921.477	15100
921.587	14990
921.697	14887
921.806	15146
921.916	14891
922.025	14735
922.134	14686
922.244	14541
922.353	14720
922.462	14583
922.571	14389
922.68	14370
922.789	14301
922.898	14404
923.007	14267
923.116	14343
923.224	14351
923.333	14305
923.442	14138
923.55	14149
923.659	14153
923.767	14286
923.876	14084
923.984	14199
924.092	14065
924.201	14031
924.309	14016
924.417	14046
924.525	13875
924.633	13997
924.741	14750
924.849	13727
924.956	13852
925.064	13791
925.172	13795
925.279	13723
925.387	13712
925.494	13753
925.602	13890
925.709	13708
925.816	13658
925.924	13655
926.031	13715
926.138	13708
926.245	13658
926.352	13575
926.459	13624
926.566	13666
926.673	13575
926.779	13468
926.886	13472
926.993	13282
927.099	13213
927.206	13145
927.312	13129
927.419	13236
927.525	13202
927.631	13301
927.737	13129
927.843	13050
927.95	12966
928.056	13019
928.162	13069
928.267	13042
928.373	13681
928.479	13160
928.585	12935
928.69	13069
928.796	13000
928.901	12932
929.007	12730
929.112	12859
929.218	12897
929.323	12825
929.428	12757
929.533	12871
929.638	12627
929.743	12684
929.848	12734
929.953	12700
930.058	12616
930.163	12441
930.267	12494
930.372	12544
930.477	12346
930.581	12669
930.685	12384
930.79	12330
930.894	12285
930.998	12270
931.103	12369
931.207	12045
931.311	12019
931.415	11908
931.519	11745
931.623	11604
