Data from test_V78500241_970.txt Node
Date: Fri Mar 25 15:48:31 CST 2022
User: usil
Spectrometer: V785-0024
Trigger mode: 0
Integration Time (sec): 4.000000E-1
Scans to average: 1
Nonlinearity correction enabled: false
Boxcar width: 0
Storing dark spectrum: false
XAxis mode: Wavelengths
Number of Pixels in Spectrum: 1024
>>>>>Begin Spectral Data<<<<<
801.071	28306
801.214	28493
801.356	28124
801.499	28048
801.641	27869
801.783	28032
801.926	28147
802.068	27907
802.211	27884
802.353	27812
802.496	27644
802.638	27553
802.78	27610
802.923	27492
803.065	27481
803.208	27564
803.35	27625
803.492	27770
803.635	27804
803.777	27739
803.919	27831
804.061	28044
804.204	27968
804.346	27793
804.488	27827
804.63	27876
804.773	27656
804.915	27911
805.057	27911
805.199	27869
805.341	28036
805.483	28040
805.626	27869
805.768	27766
805.91	27888
806.052	27926
806.194	27953
806.336	28128
806.478	28109
806.62	28055
806.762	28082
806.904	28337
807.046	28588
807.188	28447
807.33	28497
807.472	28622
807.614	28493
807.756	28303
807.898	28413
808.04	28432
808.182	28382
808.324	28382
808.465	28291
808.607	28519
808.749	28565
808.891	28801
809.033	28793
809.174	28683
809.316	28588
809.458	28793
809.6	28805
809.741	28763
809.883	28835
810.025	29006
810.166	28869
810.308	29060
810.45	28953
810.591	28839
810.733	28713
810.875	28611
811.016	28443
811.158	28611
811.299	28790
811.441	28831
811.582	29010
811.724	28755
811.865	28580
812.007	28694
812.148	28744
812.29	28599
812.431	28915
812.573	29094
812.714	29261
812.855	29200
812.997	29391
813.138	29474
813.279	29189
813.421	29269
813.562	29242
813.703	29067
813.845	28930
813.986	28698
814.127	28489
814.268	28428
814.41	28382
814.551	28405
814.692	28546
814.833	28196
814.974	28363
815.115	28382
815.256	28249
815.397	28268
815.539	28169
815.68	28120
815.821	28143
815.962	28162
816.103	28101
816.244	28143
816.385	28017
816.526	28051
816.666	27781
816.807	27667
816.948	27880
817.089	27743
817.23	27789
817.371	27838
817.512	27793
817.653	27762
817.793	27720
817.934	27831
818.075	27759
818.216	27842
818.356	27618
818.497	27633
818.638	27435
818.778	27496
818.919	27553
819.06	27587
819.2	27675
819.341	27648
819.481	27720
819.622	27846
819.762	28010
819.903	27964
820.043	28124
820.184	27857
820.324	27812
820.465	27922
820.605	27922
820.746	27876
820.886	27690
821.026	27823
821.167	27751
821.307	27914
821.447	27713
821.588	27629
821.728	27485
821.868	27378
822.008	27180
822.149	27146
822.289	27192
822.429	26849
822.569	26804
822.709	26960
822.849	26655
822.99	26716
823.13	26682
823.27	26651
823.41	26598
823.55	26393
823.69	26625
823.83	26613
823.97	26514
824.11	26366
824.25	26229
824.389	26332
824.529	26507
824.669	26336
824.809	26511
824.949	26377
825.089	26396
825.228	26332
825.368	26240
825.508	26336
825.648	26195
825.787	26290
825.927	26259
826.067	26096
826.206	26229
826.346	26229
826.485	26313
826.625	26161
826.765	26218
826.904	26233
827.044	25966
827.183	26001
827.323	25944
827.462	26168
827.601	26008
827.741	25871
827.88	25974
828.02	25944
828.159	25906
828.298	25963
828.437	25966
828.577	26024
828.716	26115
828.855	25890
828.994	25540
829.134	25685
829.273	25628
829.412	25597
829.551	25681
829.69	25655
829.829	25537
829.968	25742
830.107	25784
830.246	25693
830.385	25651
830.524	25460
830.663	25537
830.802	25343
830.941	25373
831.08	25103
831.219	25206
831.357	25388
831.496	25525
831.635	25400
831.774	25084
831.913	25133
832.051	24939
832.19	25038
832.329	25076
832.467	24947
832.606	24798
832.744	24856
832.883	24878
833.022	24859
833.16	24886
833.299	24989
833.437	24897
833.576	24962
833.714	25008
833.852	24970
833.991	24924
834.129	25008
834.267	25015
834.406	25015
834.544	25076
834.682	24966
834.821	24954
834.959	25209
835.097	24920
835.235	24939
835.373	25069
835.511	24848
835.65	24802
835.788	24840
835.926	24722
836.064	24684
836.202	24635
836.34	24779
836.478	24806
836.615	24817
836.753	24882
836.891	24863
837.029	24787
837.167	24760
837.305	24745
837.443	24582
837.58	24661
837.718	24738
837.856	24741
837.993	24475
838.131	24631
838.269	24494
838.406	24585
838.544	24357
838.681	24334
838.819	24213
838.956	24114
839.094	24060
839.231	24098
839.369	24292
839.506	24376
839.643	24429
839.781	24034
839.918	24060
840.055	24106
840.193	24045
840.33	23920
840.467	23988
840.604	24155
840.742	24281
840.879	23870
841.016	24068
841.153	23821
841.29	24087
841.427	23931
841.564	24087
841.701	24091
841.838	23977
841.975	23878
842.112	23885
842.249	23824
842.385	23802
842.522	23973
842.659	23783
842.796	23817
842.933	23646
843.069	23638
843.206	23657
843.343	23775
843.479	23779
843.616	23672
843.752	23573
843.889	23433
844.025	23642
844.162	23512
844.298	23577
844.435	23448
844.571	23573
844.708	23539
844.844	23638
844.98	23752
845.117	23661
845.253	23364
845.389	23429
845.525	23440
845.661	23315
845.798	23231
845.934	23258
846.07	23280
846.206	23345
846.342	23410
846.478	23174
846.614	22919
846.75	22892
846.886	22911
847.022	23056
847.158	23033
847.294	23018
847.429	23018
847.565	22847
847.701	23212
847.837	22778
847.972	22668
848.108	22812
848.244	22759
848.379	22721
848.515	22573
848.65	22573
848.786	22607
848.921	22516
849.057	22535
849.192	22752
849.328	22626
849.463	22596
849.598	22519
849.734	22481
849.869	22489
850.004	22344
850.14	22356
850.275	22462
850.41	22253
850.545	22280
850.68	22257
850.815	22276
850.95	22352
851.085	22607
851.22	22504
851.355	22386
851.49	22413
851.625	22325
851.76	22322
851.895	22291
852.03	22280
852.165	22246
852.299	22333
852.434	22455
852.569	22348
852.703	22428
852.838	22481
852.973	22550
853.107	22443
853.242	22257
853.376	22162
853.511	21998
853.645	22090
853.78	22215
853.914	22177
854.048	22162
854.183	22154
854.317	22185
854.451	22363
854.585	22070
854.72	22226
854.854	22238
854.988	22010
855.122	22090
855.256	21998
855.39	22131
855.524	22265
855.658	22101
855.792	22234
855.926	22101
856.06	22097
856.194	22329
856.327	22109
856.461	22131
856.595	22150
856.729	22154
856.862	22253
856.996	22196
857.13	22280
857.263	22280
857.397	22166
857.53	22112
857.664	22185
857.797	22226
857.931	22169
858.064	22173
858.197	22234
858.331	22128
858.464	22135
858.597	22044
858.731	22154
858.864	22040
858.997	22154
859.13	22120
859.263	22150
859.396	22234
859.529	22082
859.662	22002
859.795	22112
859.928	22166
860.061	22257
860.194	22310
860.327	22158
860.46	22249
860.592	22287
860.725	22379
860.858	22379
860.99	22143
861.123	22021
861.256	22029
861.388	22158
861.521	22873
861.653	22078
861.786	22036
861.918	22013
862.05	22055
862.183	22006
862.315	22063
862.447	22112
862.58	22029
862.712	21816
862.844	21873
862.976	21994
863.108	21956
863.24	22147
863.372	21755
863.504	21838
863.636	21850
863.768	21842
863.9	21827
864.032	21785
864.164	21873
864.296	21785
864.428	22006
864.559	21842
864.691	21884
864.823	21797
864.954	21857
865.086	21667
865.217	21755
865.349	21766
865.48	21720
865.612	21701
865.743	21899
865.875	21770
866.006	21781
866.137	21762
866.269	21797
866.4	21667
866.531	21652
866.662	21629
866.793	21686
866.924	21717
867.055	21679
867.186	21690
867.317	21530
867.448	21663
867.579	21622
867.71	21519
867.841	21545
867.972	21591
868.103	21652
868.233	21614
868.364	21690
868.495	21736
868.625	21880
868.756	21968
868.886	21831
869.017	21816
869.147	21956
869.278	22070
869.408	21994
869.539	21937
869.669	22040
869.799	21949
869.929	22029
870.06	22093
870.19	22211
870.32	22059
870.45	22192
870.58	22249
870.71	22409
870.84	22531
870.97	22352
871.1	22322
871.23	22557
871.36	22424
871.489	22295
871.619	22325
871.749	22519
871.879	22371
872.008	22550
872.138	22588
872.267	22497
872.397	22405
872.526	22379
872.656	22322
872.785	22272
872.915	22561
873.044	22516
873.173	22417
873.303	22637
873.432	22668
873.561	22698
873.69	22531
873.819	22489
873.948	22474
874.077	22428
874.206	22413
874.335	22550
874.464	22733
874.593	22793
874.722	22744
874.851	22774
874.979	22869
875.108	22771
875.237	22645
875.365	22580
875.494	22710
875.623	22812
875.751	22717
875.88	22660
876.008	22930
876.136	22942
876.265	23250
876.393	23109
876.521	23220
876.65	23132
876.778	23136
876.906	23048
877.034	23155
877.162	23006
877.29	23109
877.418	23147
877.546	23121
877.674	23022
877.802	23105
877.93	23155
878.058	23018
878.185	22866
878.313	22949
878.441	22949
878.568	22987
878.696	22984
878.824	23113
878.951	23143
879.079	23250
879.206	23341
879.333	23265
879.461	23147
879.588	23277
879.715	23223
879.842	23406
879.97	23208
880.097	22896
880.224	22869
880.351	22930
880.478	23025
880.605	22835
880.732	22740
880.859	23178
880.986	22828
881.112	22953
881.239	22835
881.366	22459
881.493	22580
881.619	22481
881.746	22352
881.872	22409
881.999	22459
882.125	22500
882.252	22535
882.378	22371
882.505	22523
882.631	22284
882.757	22128
882.883	22310
883.01	22135
883.136	22017
883.262	22029
883.388	21808
883.514	22097
883.64	22070
883.766	22029
883.892	21869
884.018	21998
884.143	21926
884.269	22093
884.395	21899
884.52	21766
884.646	21831
884.772	21736
884.897	21694
885.023	21793
885.148	21781
885.274	22013
885.399	21812
885.524	21793
885.65	21892
885.775	21823
885.9	21732
886.025	21785
886.15	21934
886.275	21808
886.4	21576
886.525	21778
886.65	21774
886.775	21698
886.9	21804
887.025	21899
887.149	21831
887.274	21591
887.399	21561
887.523	21530
887.648	21492
887.773	21507
887.897	21629
888.021	21492
888.146	21485
888.27	21781
888.395	21587
888.519	21610
888.643	21583
888.767	21504
888.891	21492
889.015	21359
889.139	21443
889.263	21317
889.387	21492
889.511	21557
889.635	21454
889.759	21245
889.883	21336
890.006	21416
890.13	21401
890.254	21230
890.377	21173
890.501	21104
890.624	21013
890.748	21047
890.871	20975
890.995	20967
891.118	20739
891.241	20990
891.364	20899
891.488	21047
891.611	20815
891.734	21062
891.857	20982
891.98	21009
892.103	20880
892.226	20872
892.349	20853
892.471	20731
892.594	20788
892.717	20834
892.839	20872
892.962	20872
893.085	20792
893.207	20773
893.33	20636
893.452	20788
893.575	20754
893.697	20659
893.819	21032
893.941	21043
894.064	20941
894.186	20670
894.308	20621
894.43	20834
894.552	20838
894.674	20842
894.796	20682
894.918	20765
895.04	20648
895.161	20914
895.283	20762
895.405	20705
895.526	20693
895.648	20811
895.769	20762
895.891	20811
896.012	20902
896.134	20758
896.255	20686
896.376	20674
896.498	20724
896.619	20845
896.74	20632
896.861	20792
896.982	21100
897.103	21211
897.224	21085
897.345	21036
897.466	20883
897.587	21009
897.708	21184
897.828	20929
897.949	20864
898.07	20838
898.19	20727
898.311	20971
898.431	20921
898.552	20906
898.672	20990
898.792	21039
898.913	21017
899.033	20788
899.153	20891
899.273	20762
899.393	20670
899.513	20777
899.633	20655
899.753	20648
899.873	20583
899.993	20678
900.113	20476
900.232	20636
900.352	20518
900.472	20556
900.591	20526
900.711	20454
900.83	20419
900.95	20442
901.069	20598
901.189	20457
901.308	20199
901.427	20100
901.546	20092
901.665	20107
901.784	20073
901.904	19963
902.023	19723
902.141	19601
902.26	19571
902.379	19624
902.498	19624
902.617	19468
902.735	19510
902.854	19632
902.973	19476
903.091	19312
903.21	19316
903.328	19099
903.446	19129
903.565	18928
903.683	18966
903.801	18863
903.919	18989
904.038	19027
904.156	18783
904.274	18875
904.392	18802
904.51	18772
904.627	18734
904.745	18772
904.863	18875
904.981	18528
905.098	18528
905.216	18460
905.334	18589
905.451	18418
905.569	18414
905.686	18483
905.803	18422
905.921	18262
906.038	18315
906.155	18216
906.272	18125
906.389	18136
906.506	17969
906.623	18003
906.74	17802
906.857	17828
906.974	17893
907.091	18083
907.208	18152
907.324	18053
907.441	17847
907.557	17741
907.674	17729
907.79	17570
907.907	17638
908.023	17733
908.139	17752
908.256	17695
908.372	17558
908.488	17512
908.604	17383
908.72	17383
908.836	17391
908.952	17353
909.068	17490
909.184	17539
909.3	17379
909.415	17471
909.531	17311
909.647	17193
909.762	17178
909.878	17124
909.993	17094
910.108	17086
910.224	17022
910.339	17071
910.454	16923
910.57	16999
910.685	16839
910.8	17045
910.915	17045
911.03	16938
911.145	16771
911.259	16656
911.374	16679
911.489	16615
911.604	16512
911.718	16402
911.833	16375
911.947	16287
912.062	16246
912.176	16303
912.291	16375
912.405	16337
912.519	16660
912.633	16569
912.748	16500
912.862	16462
912.976	16234
913.09	16181
913.204	16147
913.318	16226
913.431	16318
913.545	16379
913.659	16295
913.772	16242
913.886	16013
914	16131
914.113	15987
914.226	16120
914.34	16139
914.453	16051
914.566	16135
914.68	15827
914.793	15918
914.906	15622
915.019	15698
915.132	15507
915.245	15667
915.358	15720
915.47	15584
915.583	15709
915.696	15701
915.809	15762
915.921	15793
916.034	15580
916.146	15500
916.259	15481
916.371	15641
916.483	15618
916.595	15473
916.708	15519
916.82	15469
916.932	15351
917.044	15431
917.156	15367
917.268	15291
917.38	15279
917.491	15222
917.603	15275
917.715	15370
917.826	15412
917.938	15218
918.049	15123
918.161	15268
918.272	15526
918.384	15370
918.495	15233
918.606	15036
918.717	14986
918.828	15047
918.939	15188
919.05	14929
919.161	14971
919.272	14800
919.383	14883
919.494	15074
919.604	15264
919.715	14998
919.826	14861
919.936	14963
920.047	14944
920.157	15089
920.267	15131
920.378	15013
920.488	15028
920.598	15093
920.708	15275
920.818	15116
920.928	15203
921.038	15313
921.148	15199
921.258	14971
921.368	14815
921.477	14765
921.587	14712
921.697	14587
921.806	14724
921.916	14552
922.025	14358
922.134	14355
922.244	14298
922.353	14351
922.462	14275
922.571	14134
922.68	13959
922.789	14024
922.898	13967
923.007	13947
923.116	13944
923.224	14001
923.333	13993
923.442	13868
923.55	13784
923.659	13921
923.767	13849
923.876	13750
923.984	13864
924.092	13769
924.201	13803
924.309	13696
924.417	13826
924.525	13651
924.633	13616
924.741	14610
924.849	13483
924.956	13548
925.064	13411
925.172	13445
925.279	13411
925.387	13407
925.494	13339
925.602	13460
925.709	13476
925.816	13354
925.924	13304
926.031	13419
926.138	13373
926.245	13453
926.352	13152
926.459	13441
926.566	13354
926.673	13194
926.779	13156
926.886	13160
926.993	12981
927.099	12954
927.206	12928
927.312	12981
927.419	12973
927.525	12981
927.631	12856
927.737	12776
927.843	12764
927.95	12734
928.056	12768
928.162	12703
928.267	12806
928.373	13316
928.479	12776
928.585	12559
928.69	12715
928.796	12764
928.901	12612
929.007	12521
929.112	12654
929.218	12475
929.323	12544
929.428	12475
929.533	12597
929.638	12391
929.743	12414
929.848	12426
929.953	12403
930.058	12361
930.163	12182
930.267	12144
930.372	12289
930.477	12167
930.581	12292
930.685	12201
930.79	11999
930.894	11996
930.998	12011
931.103	12083
931.207	11748
931.311	11691
931.415	11589
931.519	11406
931.623	11315
