Data from test_V78500241_9.txt Node
Date: Fri Mar 25 15:41:51 CST 2022
User: usil
Spectrometer: V785-0024
Trigger mode: 0
Integration Time (sec): 4.000000E-1
Scans to average: 1
Nonlinearity correction enabled: false
Boxcar width: 0
Storing dark spectrum: false
XAxis mode: Wavelengths
Number of Pixels in Spectrum: 1024
>>>>>Begin Spectral Data<<<<<
801.071	27100
801.214	26963
801.356	26910
801.499	26556
801.641	26590
801.783	26556
801.926	26537
802.068	26362
802.211	26267
802.353	26199
802.496	26016
802.638	26103
802.78	25986
802.923	26035
803.065	26012
803.208	25894
803.35	25868
803.492	26122
803.635	26119
803.777	26103
803.919	26062
804.061	26469
804.204	26062
804.346	25811
804.488	25852
804.63	25833
804.773	25708
804.915	25871
805.057	26008
805.199	25715
805.341	26001
805.483	26073
805.626	25986
805.768	25826
805.91	26012
806.052	25978
806.194	25936
806.336	26195
806.478	26012
806.62	26031
806.762	26005
806.904	26187
807.046	26389
807.188	26229
807.33	26252
807.472	26438
807.614	26233
807.756	26218
807.898	26122
808.04	26149
808.182	25997
808.324	26073
808.465	26039
808.607	26191
808.749	26267
808.891	26423
809.033	26514
809.174	26400
809.316	26271
809.458	26469
809.6	26290
809.741	26412
809.883	26450
810.025	26659
810.166	26590
810.308	26533
810.45	26590
810.591	26530
810.733	26511
810.875	26305
811.016	26142
811.158	26164
811.299	26393
811.441	26362
811.582	26427
811.724	26275
811.865	26134
812.007	26309
812.148	26191
812.29	26138
812.431	26355
812.573	26613
812.714	26533
812.855	26735
812.997	26796
813.138	26963
813.279	26769
813.421	26864
813.562	26762
813.703	26499
813.845	26248
813.986	26111
814.127	25944
814.268	25814
814.41	25868
814.551	25791
814.692	25925
814.833	25746
814.974	25765
815.115	25700
815.256	25613
815.397	25491
815.539	25556
815.68	25487
815.821	25415
815.962	25495
816.103	25533
816.244	25350
816.385	25217
816.526	25198
816.666	25000
816.807	24825
816.948	24909
817.089	25015
817.23	24875
817.371	24719
817.512	24886
817.653	24738
817.793	24821
817.934	24852
818.075	24738
818.216	24791
818.356	24715
818.497	24684
818.638	24486
818.778	24521
818.919	24422
819.06	24414
819.2	24669
819.341	24719
819.481	24642
819.622	24844
819.762	25065
819.903	25012
820.043	24848
820.184	24837
820.324	24760
820.465	24867
820.605	24776
820.746	24722
820.886	24673
821.026	24726
821.167	24787
821.307	24821
821.447	24661
821.588	24681
821.728	24410
821.868	24254
822.008	24102
822.149	24076
822.289	24110
822.429	23927
822.569	23752
822.709	23897
822.849	23573
822.99	23653
823.13	23459
823.27	23368
823.41	23493
823.55	23303
823.69	23322
823.83	23349
823.97	23334
824.11	23155
824.25	23067
824.389	22889
824.529	23280
824.669	23071
824.809	23299
824.949	23117
825.089	23193
825.228	23048
825.368	22961
825.508	22908
825.648	22847
825.787	22763
825.927	22961
826.067	22767
826.206	22748
826.346	22942
826.485	23006
826.625	22843
826.765	22949
826.904	22930
827.044	22645
827.183	22637
827.323	22413
827.462	22580
827.601	22519
827.741	22436
827.88	22508
828.02	22398
828.159	22538
828.298	22474
828.437	22565
828.577	22527
828.716	22493
828.855	22428
828.994	22246
829.134	22348
829.273	22234
829.412	22226
829.551	22181
829.69	22211
829.829	22124
829.968	22215
830.107	22128
830.246	22185
830.385	22078
830.524	22013
830.663	22128
830.802	21865
830.941	21747
831.08	21797
831.219	21861
831.357	21835
831.496	21880
831.635	21739
831.774	21656
831.913	21751
832.051	21519
832.19	21507
832.329	21583
832.467	21439
832.606	21241
832.744	21344
832.883	21355
833.022	21408
833.16	21359
833.299	21405
833.437	21405
833.576	21500
833.714	21408
833.852	21454
833.991	21481
834.129	21393
834.267	21462
834.406	21397
834.544	21264
834.682	21256
834.821	21355
834.959	21526
835.097	21222
835.235	21336
835.373	21329
835.511	21355
835.65	21203
835.788	21241
835.926	21085
836.064	21096
836.202	21005
836.34	21321
836.478	21310
836.615	21207
836.753	21165
836.891	21291
837.029	21367
837.167	21222
837.305	21036
837.443	21116
837.58	20918
837.718	21131
837.856	21089
837.993	21001
838.131	20994
838.269	20899
838.406	20952
838.544	20864
838.681	20834
838.819	20720
838.956	20476
839.094	20522
839.231	20438
839.369	20705
839.506	20823
839.643	20735
839.781	20545
839.918	20434
840.055	20495
840.193	20533
840.33	20419
840.467	20450
840.604	20461
840.742	20682
840.879	20294
841.016	20351
841.153	20412
841.29	20465
841.427	20431
841.564	20393
841.701	20351
841.838	20408
841.975	20347
842.112	20290
842.249	20164
842.385	20119
842.522	20336
842.659	20183
842.796	20062
842.933	20058
843.069	19967
843.206	19989
843.343	20267
843.479	20058
843.616	20035
843.752	19803
843.889	19864
844.025	20058
844.162	19822
844.298	19951
844.435	19780
844.571	19769
844.708	19772
844.844	19967
844.98	19978
845.117	19936
845.253	19761
845.389	19628
845.525	19696
845.661	19666
845.798	19537
845.934	19723
846.07	19563
846.206	19624
846.342	19689
846.478	19552
846.614	19460
846.75	19255
846.886	19335
847.022	19411
847.158	19324
847.294	19301
847.429	19381
847.565	19282
847.701	19472
847.837	19091
847.972	18993
848.108	19099
848.244	19065
848.379	18905
848.515	18859
848.65	18890
848.786	18825
848.921	18924
849.057	18897
849.192	18905
849.328	18783
849.463	18837
849.598	18890
849.734	18757
849.869	18779
850.004	18528
850.14	18608
850.275	18578
850.41	18467
850.545	18570
850.68	18486
850.815	18597
850.95	18547
851.085	18867
851.22	18661
851.355	18604
851.49	18445
851.625	18509
851.76	18509
851.895	18467
852.03	18559
852.165	18502
852.299	18722
852.434	18734
852.569	18471
852.703	18521
852.838	18616
852.973	18582
853.107	18677
853.242	18437
853.376	18327
853.511	18300
853.645	18289
853.78	18384
853.914	18456
854.048	18296
854.183	18361
854.317	18342
854.451	18494
854.585	18342
854.72	18350
854.854	18429
854.988	18209
855.122	18395
855.256	18186
855.39	18380
855.524	18517
855.658	18395
855.792	18464
855.926	18270
856.06	18456
856.194	18479
856.327	18296
856.461	18323
856.595	18372
856.729	18418
856.862	18407
856.996	18422
857.13	18426
857.263	18426
857.397	18300
857.53	18407
857.664	18418
857.797	18338
857.931	18551
858.064	18346
858.197	18418
858.331	18262
858.464	18281
858.597	18239
858.731	18346
858.864	18262
858.997	18232
859.13	18285
859.263	18315
859.396	18277
859.529	18277
859.662	18334
859.795	18201
859.928	18384
860.061	18483
860.194	18357
860.327	18239
860.46	18281
860.592	18376
860.725	18353
860.858	18323
860.99	18201
861.123	18201
861.256	18178
861.388	18323
861.521	18825
861.653	18095
861.786	18087
861.918	18110
862.05	18327
862.183	18300
862.315	18414
862.447	18433
862.58	18357
862.712	18114
862.844	18068
862.976	18087
863.108	18125
863.24	18277
863.372	17946
863.504	17942
863.636	18030
863.768	18007
863.9	17931
864.032	17885
864.164	17874
864.296	18011
864.428	18251
864.559	18049
864.691	18125
864.823	18003
864.954	18019
865.086	18007
865.217	17897
865.349	17790
865.48	17893
865.612	17912
865.743	18015
865.875	17965
866.006	17760
866.137	17931
866.269	17939
866.4	17958
866.531	17977
866.662	17927
866.793	17817
866.924	17764
867.055	17954
867.186	17939
867.317	17798
867.448	17687
867.579	17885
867.71	17748
867.841	17809
867.972	17870
868.103	17832
868.233	17893
868.364	17893
868.495	17836
868.625	18129
868.756	18095
868.886	18011
869.017	18049
869.147	18209
869.278	18205
869.408	18133
869.539	17984
869.669	18079
869.799	18140
869.929	18228
870.06	18213
870.19	18426
870.32	18289
870.45	18460
870.58	18464
870.71	18563
870.84	18631
870.97	18437
871.1	18502
871.23	18620
871.36	18669
871.489	18631
871.619	18669
871.749	18783
871.879	18711
872.008	18837
872.138	18791
872.267	18692
872.397	18604
872.526	18544
872.656	18578
872.785	18483
872.915	18627
873.044	18837
873.173	18806
873.303	18776
873.432	18749
873.561	18840
873.69	18844
873.819	18700
873.948	18886
874.077	18776
874.206	18726
874.335	18810
874.464	18905
874.593	19050
874.722	18878
874.851	19072
874.979	18996
875.108	19095
875.237	18928
875.365	18996
875.494	18977
875.623	19095
875.751	19103
875.88	19000
876.008	19072
876.136	19343
876.265	19422
876.393	19552
876.521	19514
876.65	19529
876.778	19476
876.906	19510
877.034	19312
877.162	19434
877.29	19320
877.418	19472
877.546	19365
877.674	19449
877.802	19426
877.93	19354
878.058	19476
878.185	19202
878.313	19559
878.441	19415
878.568	19183
878.696	19293
878.824	19556
878.951	19468
879.079	19540
879.206	19769
879.333	19605
879.461	19464
879.588	19605
879.715	19575
879.842	19704
879.97	19506
880.097	19255
880.224	19304
880.351	19354
880.478	19308
880.605	19206
880.732	19228
880.859	19449
880.986	19384
881.112	19213
881.239	19141
881.366	19061
881.493	19008
881.619	18856
881.746	18913
881.872	18825
881.999	18791
882.125	18840
882.252	18871
882.378	19012
882.505	18970
882.631	18806
882.757	18658
882.883	18658
883.01	18631
883.136	18578
883.262	18532
883.388	18509
883.514	18620
883.64	18810
883.766	18597
883.892	18388
884.018	18570
884.143	18646
884.269	18642
884.395	18437
884.52	18273
884.646	18308
884.772	18117
884.897	18205
885.023	18323
885.148	18361
885.274	18429
885.399	18429
885.524	18410
885.65	18380
885.775	18357
885.9	18273
886.025	18410
886.15	18323
886.275	18152
886.4	18167
886.525	18163
886.65	18228
886.775	18197
886.9	18441
887.025	18479
887.149	18289
887.274	18068
887.399	18121
887.523	18019
887.648	18022
887.773	17988
887.897	18057
888.021	18133
888.146	17992
888.27	18095
888.395	18117
888.519	18125
888.643	18148
888.767	18114
888.891	17965
889.015	17984
889.139	17988
889.263	17843
889.387	18091
889.511	18136
889.635	17992
889.759	17798
889.883	17859
890.006	17901
890.13	17832
890.254	17817
890.377	17775
890.501	17672
890.624	17558
890.748	17619
890.871	17516
890.995	17528
891.118	17520
891.241	17528
891.364	17554
891.488	17657
891.611	17558
891.734	17577
891.857	17566
891.98	17482
892.103	17585
892.226	17554
892.349	17478
892.471	17353
892.594	17505
892.717	17512
892.839	17474
892.962	17444
893.085	17512
893.207	17398
893.33	17311
893.452	17387
893.575	17532
893.697	17455
893.819	17596
893.941	17703
894.064	17600
894.186	17326
894.308	17376
894.43	17634
894.552	17634
894.674	17642
894.796	17444
894.918	17501
895.04	17425
895.161	17490
895.283	17642
895.405	17368
895.526	17577
895.648	17440
895.769	17471
895.891	17596
896.012	17630
896.134	17619
896.255	17615
896.376	17562
896.498	17611
896.619	17558
896.74	17592
896.861	17630
896.982	18011
897.103	18205
897.224	17912
897.345	17836
897.466	17760
897.587	17851
897.708	17958
897.828	17874
897.949	17775
898.07	17619
898.19	17786
898.311	17965
898.431	17748
898.552	17794
898.672	17961
898.792	17843
898.913	17817
899.033	17653
899.153	17573
899.273	17589
899.393	17433
899.513	17627
899.633	17493
899.753	17615
899.873	17585
899.993	17611
900.113	17482
900.232	17604
900.352	17558
900.472	17493
900.591	17326
900.711	17349
900.83	17417
900.95	17562
901.069	17539
901.189	17345
901.308	17067
901.427	17006
901.546	17075
901.665	17048
901.784	17071
901.904	16900
902.023	16793
902.141	16645
902.26	16558
902.379	16664
902.498	16512
902.617	16466
902.735	16645
902.854	16443
902.973	16443
903.091	16287
903.21	16249
903.328	16105
903.446	16131
903.565	16150
903.683	16032
903.801	15960
903.919	15964
904.038	16109
904.156	15937
904.274	15899
904.392	15774
904.51	15838
904.627	15861
904.745	15945
904.863	15884
904.981	15679
905.098	15523
905.216	15553
905.334	15507
905.451	15511
905.569	15469
905.686	15553
905.803	15485
905.921	15351
906.038	15439
906.155	15325
906.272	15245
906.389	15214
906.506	15180
906.623	15005
906.74	15009
906.857	14883
906.974	14956
907.091	15199
907.208	15180
907.324	15116
907.441	14956
907.557	14864
907.674	14701
907.79	14682
907.907	14697
908.023	14777
908.139	14651
908.256	14701
908.372	14686
908.488	14667
908.604	14503
908.72	14442
908.836	14568
908.952	14370
909.068	14442
909.184	14602
909.3	14473
909.415	14514
909.531	14294
909.647	14176
909.762	14210
909.878	14081
909.993	14157
910.108	14142
910.224	14168
910.339	14149
910.454	14077
910.57	14001
910.685	13780
910.8	14221
910.915	14172
911.03	14043
911.145	13818
911.259	13769
911.374	13803
911.489	13738
911.604	13746
911.718	13594
911.833	13499
911.947	13457
912.062	13392
912.176	13533
912.291	13689
912.405	13506
912.519	13761
912.633	13769
912.748	13624
912.862	13540
912.976	13384
913.09	13194
913.204	13434
913.318	13312
913.431	13457
913.545	13438
913.659	13533
913.772	13327
913.886	13289
914	13133
914.113	13175
914.226	13324
914.34	13285
914.453	13027
914.566	13236
914.68	13126
914.793	12970
914.906	12859
915.019	12783
915.132	12821
915.245	12905
915.358	12909
915.47	12875
915.583	12901
915.696	12993
915.809	12962
915.921	13023
916.034	12829
916.146	12776
916.259	12768
916.371	12901
916.483	12844
916.595	12776
916.708	12738
916.82	12779
916.932	12738
917.044	12749
917.156	12741
917.268	12620
917.38	12715
917.491	12601
917.603	12646
917.715	12677
917.826	12722
917.938	12620
918.049	12467
918.161	12616
918.272	12696
918.384	12779
918.495	12612
918.606	12445
918.717	12338
918.828	12509
918.939	12456
919.05	12311
919.161	12460
919.272	12163
919.383	12281
919.494	12365
919.604	12616
919.715	12418
919.826	12304
919.936	12327
920.047	12437
920.157	12429
920.267	12658
920.378	12422
920.488	12391
920.598	12551
920.708	12673
920.818	12597
920.928	12528
921.038	12772
921.148	12547
921.258	12338
921.368	12277
921.477	12159
921.587	12079
921.697	12038
921.806	12182
921.916	12053
922.025	11939
922.134	11851
922.244	11832
922.353	11786
922.462	11786
922.571	11691
922.68	11474
922.789	11478
922.898	11452
923.007	11414
923.116	11524
923.224	11376
923.333	11505
923.442	11280
923.55	11376
923.659	11292
923.767	11383
923.876	11303
923.984	11383
924.092	11261
924.201	11258
924.309	11318
924.417	11261
924.525	11185
924.633	11284
924.741	12148
924.849	10984
924.956	11201
925.064	10995
925.172	10915
925.279	10991
925.387	11045
925.494	11018
925.602	11159
925.709	11128
925.816	10987
925.924	10957
926.031	11086
926.138	11025
926.245	11060
926.352	10915
926.459	11010
926.566	11159
926.673	10957
926.779	10809
926.886	10892
926.993	10634
927.099	10679
927.206	10618
927.312	10516
927.419	10721
927.525	10675
927.631	10687
927.737	10531
927.843	10546
927.95	10462
928.056	10428
928.162	10470
928.267	10607
928.373	11170
928.479	10618
928.585	10295
928.69	10462
928.796	10527
928.901	10390
929.007	10268
929.112	10424
929.218	10356
929.323	10238
929.428	10207
929.533	10421
929.638	10242
929.743	10227
929.848	10295
929.953	10173
930.058	10090
930.163	9956
930.267	10067
930.372	10071
930.477	9930
930.581	10135
930.685	10032
930.79	9949
930.894	9850
930.998	9835
931.103	10029
931.207	9656
931.311	9584
931.415	9568
931.519	9367
931.623	9272
