Data from test_V78500241_639.txt Node
Date: Fri Mar 25 15:46:13 CST 2022
User: usil
Spectrometer: V785-0024
Trigger mode: 0
Integration Time (sec): 4.000000E-1
Scans to average: 1
Nonlinearity correction enabled: false
Boxcar width: 0
Storing dark spectrum: false
XAxis mode: Wavelengths
Number of Pixels in Spectrum: 1024
>>>>>Begin Spectral Data<<<<<
801.071	27606
801.214	27519
801.356	27077
801.499	27009
801.641	27055
801.783	26940
801.926	27032
802.068	26929
802.211	26857
802.353	26708
802.496	26667
802.638	26518
802.78	26689
802.923	26438
803.065	26587
803.208	26552
803.35	26530
803.492	26636
803.635	26781
803.777	26579
803.919	26842
804.061	27066
804.204	26769
804.346	26720
804.488	26674
804.63	26613
804.773	26434
804.915	26663
805.057	26731
805.199	26697
805.341	26902
805.483	26944
805.626	26883
805.768	26746
805.91	26880
806.052	26986
806.194	26792
806.336	26971
806.478	26902
806.62	26952
806.762	27017
806.904	27218
807.046	27268
807.188	27344
807.33	27329
807.472	27310
807.614	27165
807.756	27325
807.898	27237
808.04	27047
808.182	26979
808.324	27146
808.465	27104
808.607	27485
808.749	27473
808.891	27698
809.033	27667
809.174	27591
809.316	27458
809.458	27587
809.6	27591
809.741	27622
809.883	27656
810.025	27816
810.166	27648
810.308	27755
810.45	27679
810.591	27667
810.733	27523
810.875	27397
811.016	27416
811.158	27386
811.299	27591
811.441	27568
811.582	27534
811.724	27469
811.865	27389
812.007	27416
812.148	27526
812.29	27534
812.431	27679
812.573	27797
812.714	27892
812.855	27759
812.997	28196
813.138	28124
813.279	28097
813.421	28051
813.562	27907
813.703	27880
813.845	27671
813.986	27393
814.127	27222
814.268	27252
814.41	27176
814.551	27173
814.692	27279
814.833	27150
814.974	27055
815.115	27036
815.256	27058
815.397	26971
815.539	26944
815.68	26918
815.821	26781
815.962	26864
816.103	26788
816.244	27001
816.385	26617
816.526	26731
816.666	26549
816.807	26469
816.948	26598
817.089	26636
817.23	26453
817.371	26434
817.512	26469
817.653	26473
817.793	26370
817.934	26381
818.075	26552
818.216	26419
818.356	26488
818.497	26271
818.638	26119
818.778	26096
818.919	26084
819.06	26271
819.2	26309
819.341	26442
819.481	26381
819.622	26438
819.762	26667
819.903	26712
820.043	26514
820.184	26507
820.324	26689
820.465	26461
820.605	26446
820.746	26453
820.886	26290
821.026	26457
821.167	26526
821.307	26442
821.447	26355
821.588	26206
821.728	26278
821.868	26012
822.008	25932
822.149	26035
822.289	25849
822.429	25696
822.569	25544
822.709	25422
822.849	25407
822.99	25392
823.13	25369
823.27	25411
823.41	25297
823.55	25084
823.69	25206
823.83	25282
823.97	25015
824.11	25015
824.25	24939
824.389	25038
824.529	25080
824.669	24951
824.809	25209
824.949	25019
825.089	24989
825.228	25141
825.368	24757
825.508	24760
825.648	24806
825.787	24829
825.927	24989
826.067	24779
826.206	24696
826.346	24856
826.485	24970
826.625	24798
826.765	24833
826.904	24856
827.044	24536
827.183	24696
827.323	24654
827.462	24673
827.601	24505
827.741	24650
827.88	24646
828.02	24490
828.159	24604
828.298	24604
828.437	24692
828.577	24559
828.716	24570
828.855	24437
828.994	24262
829.134	24289
829.273	24327
829.412	24190
829.551	24224
829.69	24232
829.829	24270
829.968	24365
830.107	24403
830.246	24304
830.385	24144
830.524	24106
830.663	24079
830.802	24045
830.941	23912
831.08	23824
831.219	24007
831.357	23832
831.496	24060
831.635	23935
831.774	23817
831.913	23847
832.051	23653
832.19	23710
832.329	23786
832.467	23512
832.606	23417
832.744	23505
832.883	23600
833.022	23585
833.16	23551
833.299	23687
833.437	23615
833.576	23729
833.714	23634
833.852	23718
833.991	23604
834.129	23680
834.267	23733
834.406	23547
834.544	23551
834.682	23573
834.821	23585
834.959	23699
835.097	23509
835.235	23592
835.373	23573
835.511	23501
835.65	23337
835.788	23440
835.926	23345
836.064	23284
836.202	23239
836.34	23543
836.478	23387
836.615	23486
836.753	23459
836.891	23417
837.029	23379
837.167	23486
837.305	23429
837.443	23345
837.58	23303
837.718	23387
837.856	23379
837.993	23200
838.131	23258
838.269	23216
838.406	23162
838.544	23022
838.681	22915
838.819	22961
838.956	22694
839.094	22729
839.231	22778
839.369	23018
839.506	23128
839.643	23052
839.781	22885
839.918	22771
840.055	22812
840.193	22637
840.33	22580
840.467	22660
840.604	22713
840.742	23018
840.879	22485
841.016	22656
841.153	22603
841.29	22869
841.427	22698
841.564	22615
841.701	22717
841.838	22607
841.975	22618
842.112	22649
842.249	22417
842.385	22348
842.522	22630
842.659	22573
842.796	22455
842.933	22379
843.069	22348
843.206	22489
843.343	22546
843.479	22455
843.616	22402
843.752	22257
843.889	22181
844.025	22367
844.162	22303
844.298	22299
844.435	22139
844.571	22177
844.708	22169
844.844	22398
844.98	22333
845.117	22299
845.253	22101
845.389	22078
845.525	22013
845.661	22070
845.798	21850
845.934	21979
846.07	21888
846.206	21987
846.342	21949
846.478	21907
846.614	21682
846.75	21720
846.886	21641
847.022	21785
847.158	21667
847.294	21652
847.429	21804
847.565	21629
847.701	21861
847.837	21443
847.972	21332
848.108	21507
848.244	21469
848.379	21287
848.515	21287
848.65	21279
848.786	21165
848.921	21150
849.057	21310
849.192	21370
849.328	21298
849.463	21287
849.598	21081
849.734	21123
849.869	21116
850.004	21157
850.14	21093
850.275	21112
850.41	20986
850.545	20906
850.68	21005
850.815	20971
850.95	20960
851.085	21165
851.22	21100
851.355	21058
851.49	20990
851.625	21070
851.76	21074
851.895	20944
852.03	20956
852.165	20952
852.299	21036
852.434	21127
852.569	21123
852.703	21005
852.838	21127
852.973	21154
853.107	21180
853.242	20963
853.376	20880
853.511	20811
853.645	20777
853.78	20975
853.914	20834
854.048	20807
854.183	20842
854.317	20872
854.451	20986
854.585	20868
854.72	20902
854.854	20902
854.988	20739
855.122	20834
855.256	20758
855.39	20842
855.524	20872
855.658	20807
855.792	20853
855.926	20788
856.06	20921
856.194	20902
856.327	20971
856.461	20811
856.595	20750
856.729	20880
856.862	20998
856.996	20883
857.13	20902
857.263	20941
857.397	21043
857.53	20883
857.664	20925
857.797	20994
857.931	20899
858.064	20857
858.197	20990
858.331	20883
858.464	20701
858.597	20670
858.731	20777
858.864	20826
858.997	20807
859.13	20758
859.263	20842
859.396	20998
859.529	20842
859.662	20769
859.795	20735
859.928	20914
860.061	20921
860.194	21108
860.327	20845
860.46	20868
860.592	20887
860.725	20952
860.858	20956
860.99	20838
861.123	20701
861.256	20861
861.388	20910
861.521	21500
861.653	20716
861.786	20693
861.918	20629
862.05	20667
862.183	20788
862.315	20731
862.447	20788
862.58	20716
862.712	20549
862.844	20541
862.976	20606
863.108	20644
863.24	20868
863.372	20587
863.504	20617
863.636	20609
863.768	20602
863.9	20530
864.032	20507
864.164	20530
864.296	20644
864.428	20720
864.559	20697
864.691	20583
864.823	20556
864.954	20552
865.086	20549
865.217	20480
865.349	20530
865.48	20347
865.612	20530
865.743	20541
865.875	20518
866.006	20507
866.137	20480
866.269	20434
866.4	20511
866.531	20454
866.662	20309
866.793	20377
866.924	20370
867.055	20533
867.186	20457
867.317	20374
867.448	20225
867.579	20347
867.71	20313
867.841	20324
867.972	20457
868.103	20461
868.233	20454
868.364	20488
868.495	20560
868.625	20701
868.756	20663
868.886	20526
869.017	20590
869.147	20716
869.278	20804
869.408	20651
869.539	20568
869.669	20754
869.799	20735
869.929	20811
870.06	20804
870.19	20918
870.32	20929
870.45	20891
870.58	21070
870.71	21093
870.84	21150
870.97	21058
871.1	21043
871.23	21154
871.36	21275
871.489	21165
871.619	21089
871.749	21310
871.879	21218
872.008	21264
872.138	21252
872.267	21272
872.397	21142
872.526	21142
872.656	21154
872.785	21108
872.915	21382
873.044	21401
873.173	21336
873.303	21192
873.432	21222
873.561	21466
873.69	21256
873.819	21264
873.948	21367
874.077	21291
874.206	21268
874.335	21283
874.464	21481
874.593	21458
874.722	21416
874.851	21572
874.979	21507
875.108	21443
875.237	21454
875.365	21340
875.494	21462
875.623	21622
875.751	21561
875.88	21481
876.008	21583
876.136	21648
876.265	21926
876.393	22051
876.521	21930
876.65	22002
876.778	21930
876.906	21770
877.034	21865
877.162	21873
877.29	21827
877.418	21808
877.546	21903
877.674	21873
877.802	21785
877.93	21880
878.058	21873
878.185	21724
878.313	21838
878.441	21964
878.568	21576
878.696	21774
878.824	21812
878.951	21975
879.079	22074
879.206	22192
879.333	22044
879.461	21934
879.588	21945
879.715	21987
879.842	22093
879.97	22002
880.097	21800
880.224	21701
880.351	21736
880.478	21587
880.605	21663
880.732	21698
880.859	21907
880.986	21701
881.112	21720
881.239	21481
881.366	21382
881.493	21393
881.619	21336
881.746	21336
881.872	21321
881.999	21230
882.125	21165
882.252	21317
882.378	21332
882.505	21222
882.631	21127
882.757	21005
882.883	21119
883.01	20963
883.136	20887
883.262	20754
883.388	20754
883.514	20902
883.64	21039
883.766	20895
883.892	20686
884.018	20720
884.143	20891
884.269	20876
884.395	20697
884.52	20663
884.646	20587
884.772	20480
884.897	20533
885.023	20541
885.148	20815
885.274	20845
885.399	20697
885.524	20587
885.65	20533
885.775	20636
885.9	20583
886.025	20571
886.15	20705
886.275	20507
886.4	20499
886.525	20568
886.65	20473
886.775	20522
886.9	20701
887.025	20857
887.149	20549
887.274	20339
887.399	20400
887.523	20427
887.648	20244
887.773	20240
887.897	20347
888.021	20606
888.146	20256
888.27	20408
888.395	20362
888.519	20461
888.643	20446
888.767	20400
888.891	20370
889.015	20145
889.139	20103
889.263	20263
889.387	20347
889.511	20457
889.635	20362
889.759	20294
889.883	20039
890.006	20180
890.13	20309
890.254	20005
890.377	20149
890.501	19967
890.624	19955
890.748	19909
890.871	19887
890.995	19738
891.118	19677
891.241	19849
891.364	19727
891.488	19909
891.611	19753
891.734	19742
891.857	19753
891.98	19712
892.103	19860
892.226	19734
892.349	19769
892.471	19556
892.594	19704
892.717	19727
892.839	19635
892.962	19780
893.085	19693
893.207	19693
893.33	19552
893.452	19529
893.575	19628
893.697	19635
893.819	19795
893.941	19887
894.064	19887
894.186	19586
894.308	19601
894.43	19727
894.552	19818
894.674	19689
894.796	19571
894.918	19655
895.04	19601
895.161	19772
895.283	19795
895.405	19666
895.526	19712
895.648	19632
895.769	19761
895.891	19776
896.012	19799
896.134	19670
896.255	19765
896.376	19647
896.498	19666
896.619	19837
896.74	19753
896.861	19681
896.982	20020
897.103	20111
897.224	19989
897.345	19913
897.466	19856
897.587	19879
897.708	20073
897.828	20050
897.949	19887
898.07	19712
898.19	19833
898.311	20058
898.431	19822
898.552	19849
898.672	20065
898.792	20020
898.913	19989
899.033	19856
899.153	19734
899.273	19639
899.393	19647
899.513	19738
899.633	19761
899.753	19708
899.873	19624
899.993	19845
900.113	19567
900.232	19685
900.352	19578
900.472	19506
900.591	19556
900.711	19422
900.83	19426
900.95	19578
901.069	19544
901.189	19392
901.308	19198
901.427	19034
901.546	19069
901.665	19141
901.784	19107
901.904	18856
902.023	18821
902.141	18669
902.26	18551
902.379	18741
902.498	18536
902.617	18585
902.735	18578
902.854	18540
902.973	18498
903.091	18300
903.21	18163
903.328	18247
903.446	18125
903.565	18098
903.683	18072
903.801	17874
903.919	17954
904.038	17958
904.156	17813
904.274	17912
904.392	17783
904.51	17923
904.627	17760
904.745	17874
904.863	17859
904.981	17619
905.098	17528
905.216	17512
905.334	17539
905.451	17573
905.569	17436
905.686	17414
905.803	17444
905.921	17265
906.038	17471
906.155	17288
906.272	17246
906.389	17273
906.506	16900
906.623	17041
906.74	17010
906.857	16949
906.974	16953
907.091	17029
907.208	17056
907.324	17037
907.441	17025
907.557	16713
907.674	16672
907.79	16603
907.907	16710
908.023	16713
908.139	16748
908.256	16725
908.372	16607
908.488	16611
908.604	16565
908.72	16462
908.836	16470
908.952	16459
909.068	16478
909.184	16493
909.3	16421
909.415	16588
909.531	16390
909.647	16181
909.762	16207
909.878	16196
909.993	16215
910.108	16253
910.224	16116
910.339	16112
910.454	16063
910.57	15937
910.685	15941
910.8	16284
910.915	16154
911.03	16059
911.145	15774
911.259	15728
911.374	15819
911.489	15732
911.604	15629
911.718	15466
911.833	15595
911.947	15526
912.062	15424
912.176	15641
912.291	15584
912.405	15557
912.519	15736
912.633	15705
912.748	15580
912.862	15485
912.976	15340
913.09	15192
913.204	15241
913.318	15355
913.431	15424
913.545	15370
913.659	15408
913.772	15230
913.886	15188
914	15180
914.113	15233
914.226	15317
914.34	15123
914.453	15047
914.566	15226
914.68	15077
914.793	15032
914.906	14777
915.019	14853
915.132	14815
915.245	14781
915.358	14727
915.47	14823
915.583	14758
915.696	14887
915.809	14937
915.921	14929
916.034	14777
916.146	14648
916.259	14640
916.371	14724
916.483	14800
916.595	14602
916.708	14667
916.82	14617
916.932	14587
917.044	14625
917.156	14492
917.268	14461
917.38	14507
917.491	14389
917.603	14560
917.715	14552
917.826	14522
917.938	14339
918.049	14332
918.161	14522
918.272	14568
918.384	14484
918.495	14404
918.606	14225
918.717	14157
918.828	14252
918.939	14317
919.05	14073
919.161	14214
919.272	14008
919.383	14054
919.494	14115
919.604	14339
919.715	14180
919.826	14100
919.936	14115
920.047	14263
920.157	14271
920.267	14351
920.378	14142
920.488	14161
920.598	14305
920.708	14503
920.818	14347
920.928	14282
921.038	14408
921.148	14404
921.258	14149
921.368	14103
921.477	13890
921.587	13868
921.697	13795
921.806	13955
921.916	13765
922.025	13708
922.134	13533
922.244	13643
922.353	13567
922.462	13415
922.571	13407
922.68	13301
922.789	13244
922.898	13244
923.007	13183
923.116	13240
923.224	13141
923.333	13221
923.442	13027
923.55	13076
923.659	13076
923.767	13084
923.876	12951
923.984	13061
924.092	12886
924.201	12966
924.309	12996
924.417	12920
924.525	12886
924.633	12894
924.741	13742
924.849	12669
924.956	12856
925.064	12677
925.172	12646
925.279	12681
925.387	12620
925.494	12604
925.602	12741
925.709	12696
925.816	12540
925.924	12585
926.031	12745
926.138	12566
926.245	12650
926.352	12498
926.459	12658
926.566	12582
926.673	12494
926.779	12372
926.886	12433
926.993	12243
927.099	12289
927.206	12186
927.312	12114
927.419	12205
927.525	12251
927.631	12239
927.737	12220
927.843	12072
927.95	11958
928.056	12110
928.162	12091
928.267	12133
928.373	12715
928.479	12152
928.585	11927
928.69	11973
928.796	12057
928.901	11935
929.007	11794
929.112	11969
929.218	11859
929.323	11802
929.428	11767
929.533	11882
929.638	11710
929.743	11718
929.848	11767
929.953	11802
930.058	11665
930.163	11444
930.267	11554
930.372	11596
930.477	11467
930.581	11646
930.685	11516
930.79	11376
930.894	11395
930.998	11364
931.103	11543
931.207	11102
931.311	11045
931.415	11018
931.519	10782
931.623	10896
