Data from test_V78500241_404.txt Node
Date: Fri Mar 25 15:44:36 CST 2022
User: usil
Spectrometer: V785-0024
Trigger mode: 0
Integration Time (sec): 4.000000E-1
Scans to average: 1
Nonlinearity correction enabled: false
Boxcar width: 0
Storing dark spectrum: false
XAxis mode: Wavelengths
Number of Pixels in Spectrum: 1024
>>>>>Begin Spectral Data<<<<<
801.071	28721
801.214	28736
801.356	28417
801.499	28379
801.641	28325
801.783	28356
801.926	28314
802.068	28322
802.211	28120
802.353	28135
802.496	27975
802.638	27983
802.78	28017
802.923	27987
803.065	27926
803.208	27831
803.35	27975
803.492	27930
803.635	28021
803.777	27994
803.919	28032
804.061	28417
804.204	28067
804.346	28017
804.488	28006
804.63	28051
804.773	28025
804.915	28128
805.057	28200
805.199	28074
805.341	28124
805.483	28185
805.626	28223
805.768	28188
805.91	28207
806.052	28143
806.194	28135
806.336	28360
806.478	28215
806.62	28109
806.762	28379
806.904	28462
807.046	28885
807.188	28694
807.33	28485
807.472	28584
807.614	28519
807.756	28615
807.898	28356
808.04	28474
808.182	28436
808.324	28318
808.465	28421
808.607	28546
808.749	28835
808.891	28820
809.033	29071
809.174	28953
809.316	28850
809.458	28847
809.6	28809
809.741	28949
809.883	28942
810.025	29052
810.166	29014
810.308	29174
810.45	29193
810.591	29044
810.733	28831
810.875	28809
811.016	28820
811.158	28752
811.299	28976
811.441	28908
811.582	29006
811.724	28790
811.865	28725
812.007	28771
812.148	28752
812.29	28763
812.431	28888
812.573	29269
812.714	29200
812.855	29277
812.997	29315
813.138	29501
813.279	29410
813.421	29303
813.562	29235
813.703	29098
813.845	28991
813.986	28755
814.127	28577
814.268	28523
814.41	28405
814.551	28436
814.692	28584
814.833	28466
814.974	28417
815.115	28489
815.256	28303
815.397	28363
815.539	28337
815.68	28325
815.821	28059
815.962	28287
816.103	28314
816.244	28158
816.385	27914
816.526	27934
816.666	27880
816.807	27561
816.948	27789
817.089	27743
817.23	27709
817.371	27625
817.512	27629
817.653	27549
817.793	27580
817.934	27679
818.075	27743
818.216	27686
818.356	27713
818.497	27538
818.638	27542
818.778	27485
818.919	27504
819.06	27450
819.2	27572
819.341	27637
819.481	27690
819.622	27838
819.762	28044
819.903	27812
820.043	27778
820.184	27869
820.324	27728
820.465	27827
820.605	27865
820.746	27591
820.886	27679
821.026	27739
821.167	27644
821.307	27705
821.447	27591
821.588	27580
821.728	27477
821.868	27169
822.008	27154
822.149	26975
822.289	27089
822.429	26956
822.569	26731
822.709	26765
822.849	26651
822.99	26484
823.13	26427
823.27	26434
823.41	26282
823.55	26138
823.69	26385
823.83	26412
823.97	26328
824.11	26256
824.25	26084
824.389	26069
824.529	26233
824.669	26218
824.809	26309
824.949	26256
825.089	26423
825.228	26282
825.368	25986
825.508	26130
825.648	26145
825.787	26096
825.927	26020
826.067	26035
826.206	25947
826.346	26176
826.485	26107
826.625	26027
826.765	26069
826.904	26039
827.044	25670
827.183	25742
827.323	25643
827.462	25708
827.601	25757
827.741	25628
827.88	25818
828.02	25586
828.159	25753
828.298	25624
828.437	25803
828.577	25750
828.716	25757
828.855	25590
828.994	25491
829.134	25502
829.273	25434
829.412	25270
829.551	25285
829.69	25335
829.829	25449
829.968	25556
830.107	25502
830.246	25373
830.385	25255
830.524	25209
830.663	25240
830.802	25141
830.941	24977
831.08	24958
831.219	25145
831.357	25088
831.496	25171
831.635	25019
831.774	24932
831.913	24787
832.051	24776
832.19	24852
832.329	24665
832.467	24760
832.606	24585
832.744	24578
832.883	24665
833.022	24608
833.16	24658
833.299	24715
833.437	24578
833.576	24642
833.714	24593
833.852	24772
833.991	24760
834.129	24844
834.267	24741
834.406	24654
834.544	24730
834.682	24631
834.821	24719
834.959	24776
835.097	24593
835.235	24612
835.373	24661
835.511	24540
835.65	24464
835.788	24486
835.926	24334
836.064	24216
836.202	24281
836.34	24471
836.478	24547
836.615	24456
836.753	24418
836.891	24509
837.029	24323
837.167	24525
837.305	24357
837.443	24323
837.58	24243
837.718	24353
837.856	24327
837.993	24277
838.131	24266
838.269	24194
838.406	24239
838.544	24121
838.681	23916
838.819	23878
838.956	23767
839.094	23786
839.231	23817
839.369	23973
839.506	24098
839.643	23961
839.781	23733
839.918	23592
840.055	23623
840.193	23642
840.33	23611
840.467	23710
840.604	23680
840.742	23805
840.879	23551
841.016	23554
841.153	23554
841.29	23630
841.427	23558
841.564	23642
841.701	23714
841.838	23577
841.975	23528
842.112	23493
842.249	23490
842.385	23341
842.522	23573
842.659	23452
842.796	23269
842.933	23410
843.069	23216
843.206	23311
843.343	23372
843.479	23349
843.616	23330
843.752	23048
843.889	23090
844.025	23185
844.162	23052
844.298	23178
844.435	23041
844.571	23064
844.708	23094
844.844	23189
844.98	23170
845.117	23117
845.253	23048
845.389	22889
845.525	22972
845.661	22869
845.798	22862
845.934	22877
846.07	22835
846.206	22877
846.342	22881
846.478	22786
846.614	22687
846.75	22443
846.886	22421
847.022	22557
847.158	22645
847.294	22470
847.429	22428
847.565	22573
847.701	22793
847.837	22276
847.972	22196
848.108	22367
848.244	22242
848.379	22276
848.515	22230
848.65	22059
848.786	22143
848.921	22105
849.057	22215
849.192	22230
849.328	22173
849.463	22093
849.598	21960
849.734	22006
849.869	22040
850.004	21865
850.14	21766
850.275	21968
850.41	21869
850.545	21747
850.68	21789
850.815	21861
850.95	21819
851.085	22109
851.22	21964
851.355	21850
851.49	21899
851.625	21797
851.76	21861
851.895	21816
852.03	21766
852.165	21770
852.299	21922
852.434	21918
852.569	21850
852.703	21937
852.838	21903
852.973	21926
853.107	21960
853.242	21793
853.376	21595
853.511	21606
853.645	21686
853.78	21587
853.914	21709
854.048	21515
854.183	21705
854.317	21629
854.451	21766
854.585	21652
854.72	21736
854.854	21755
854.988	21587
855.122	21679
855.256	21553
855.39	21599
855.524	21648
855.658	21580
855.792	21694
855.926	21720
856.06	21667
856.194	21709
856.327	21709
856.461	21610
856.595	21770
856.729	21622
856.862	21797
856.996	21694
857.13	21759
857.263	21789
857.397	21713
857.53	21618
857.664	21629
857.797	21656
857.931	21739
858.064	21648
858.197	21823
858.331	21488
858.464	21603
858.597	21545
858.731	21576
858.864	21523
858.997	21488
859.13	21694
859.263	21591
859.396	21679
859.529	21637
859.662	21610
859.795	21644
859.928	21610
860.061	21614
860.194	21846
860.327	21618
860.46	21682
860.592	21743
860.725	21797
860.858	21766
860.99	21682
861.123	21515
861.256	21530
861.388	21591
861.521	22177
861.653	21469
861.786	21416
861.918	21530
862.05	21504
862.183	21610
862.315	21568
862.447	21660
862.58	21576
862.712	21374
862.844	21252
862.976	21245
863.108	21321
863.24	21789
863.372	21275
863.504	21310
863.636	21355
863.768	21230
863.9	21340
864.032	21268
864.164	21317
864.296	21222
864.428	21435
864.559	21462
864.691	21469
864.823	21363
864.954	21237
865.086	21313
865.217	21188
865.349	21127
865.48	21116
865.612	21135
865.743	21302
865.875	21195
866.006	21112
866.137	21207
866.269	21112
866.4	21188
866.531	21192
866.662	21100
866.793	21119
866.924	21058
867.055	21233
867.186	21123
867.317	21150
867.448	21001
867.579	21055
867.71	21017
867.841	21066
867.972	21108
868.103	21131
868.233	21180
868.364	21051
868.495	21230
868.625	21382
868.756	21435
868.886	21226
869.017	21268
869.147	21439
869.278	21405
869.408	21428
869.539	21382
869.669	21336
869.799	21393
869.929	21473
870.06	21431
870.19	21648
870.32	21679
870.45	21603
870.58	21694
870.71	21762
870.84	21857
870.97	21781
871.1	21644
871.23	21876
871.36	22002
871.489	21907
871.619	21968
871.749	21972
871.879	21892
872.008	22109
872.138	22090
872.267	21911
872.397	21869
872.526	21652
872.656	21770
872.785	21876
872.915	21888
873.044	22082
873.173	21873
873.303	21983
873.432	21956
873.561	22059
873.69	21987
873.819	21964
873.948	22055
874.077	21949
874.206	21880
874.335	21838
874.464	22017
874.593	22242
874.722	22177
874.851	22284
874.979	22135
875.108	22246
875.237	22112
875.365	22036
875.494	22006
875.623	22177
875.751	22219
875.88	22169
876.008	22379
876.136	22417
876.265	22607
876.393	22698
876.521	22615
876.65	22626
876.778	22546
876.906	22561
877.034	22580
877.162	22584
877.29	22462
877.418	22653
877.546	22512
877.674	22603
877.802	22554
877.93	22500
878.058	22542
878.185	22481
878.313	22379
878.441	22645
878.568	22466
878.696	22440
878.824	22504
878.951	22615
879.079	22637
879.206	22831
879.333	22729
879.461	22637
879.588	22721
879.715	22637
879.842	22691
879.97	22626
880.097	22447
880.224	22413
880.351	22325
880.478	22272
880.605	22276
880.732	22459
880.859	22592
880.986	22405
881.112	22280
881.239	22215
881.366	22082
881.493	22029
881.619	21922
881.746	22017
881.872	21998
881.999	21831
882.125	21876
882.252	21918
882.378	21865
882.505	22090
882.631	21857
882.757	21694
882.883	21629
883.01	21686
883.136	21507
883.262	21538
883.388	21583
883.514	21667
883.64	21667
883.766	21488
883.892	21420
884.018	21408
884.143	21603
884.269	21629
884.395	21336
884.52	21211
884.646	21298
884.772	21260
884.897	21127
885.023	21287
885.148	21344
885.274	21401
885.399	21310
885.524	21279
885.65	21230
885.775	21287
885.9	21226
886.025	21340
886.15	21351
886.275	21291
886.4	21188
886.525	21188
886.65	21199
886.775	21188
886.9	21344
887.025	21481
887.149	21211
887.274	21028
887.399	20941
887.523	21028
887.648	20861
887.773	20853
887.897	21081
888.021	21055
888.146	20933
888.27	21100
888.395	21032
888.519	21036
888.643	21009
888.767	20975
888.891	20883
889.015	20804
889.139	20819
889.263	20708
889.387	20864
889.511	21009
889.635	20853
889.759	20830
889.883	20773
890.006	20914
890.13	20845
890.254	20739
890.377	20727
890.501	20587
890.624	20454
890.748	20560
890.871	20537
890.995	20248
891.118	20256
891.241	20370
891.364	20385
891.488	20590
891.611	20396
891.734	20278
891.857	20450
891.98	20336
892.103	20419
892.226	20434
892.349	20400
892.471	20168
892.594	20332
892.717	20355
892.839	20210
892.962	20305
893.085	20336
893.207	20286
893.33	20126
893.452	20107
893.575	20336
893.697	20278
893.819	20324
893.941	20545
894.064	20476
894.186	20240
894.308	20180
894.43	20396
894.552	20404
894.674	20320
894.796	20221
894.918	20320
895.04	20161
895.161	20320
895.283	20267
895.405	20256
895.526	20343
895.648	20172
895.769	20431
895.891	20339
896.012	20423
896.134	20412
896.255	20404
896.376	20317
896.498	20282
896.619	20381
896.74	20370
896.861	20393
896.982	20564
897.103	20762
897.224	20674
897.345	20507
897.466	20480
897.587	20545
897.708	20571
897.828	20571
897.949	20484
898.07	20431
898.19	20476
898.311	20431
898.431	20415
898.552	20469
898.672	20537
898.792	20533
898.913	20484
899.033	20294
899.153	20317
899.273	20168
899.393	20309
899.513	20278
899.633	20218
899.753	20225
899.873	20176
899.993	20393
900.113	20210
900.232	20138
900.352	20191
900.472	20077
900.591	19970
900.711	19947
900.83	20027
900.95	20157
901.069	20024
901.189	19947
901.308	19651
901.427	19677
901.546	19616
901.665	19643
901.784	19655
901.904	19601
902.023	19316
902.141	19282
902.26	19133
902.379	19122
902.498	19091
902.617	19023
902.735	19183
902.854	19057
902.973	19084
903.091	18669
903.21	18757
903.328	18776
903.446	18646
903.565	18582
903.683	18692
903.801	18395
903.919	18544
904.038	18479
904.156	18448
904.274	18372
904.392	18334
904.51	18235
904.627	18391
904.745	18448
904.863	18372
904.981	18174
905.098	18049
905.216	17927
905.334	18076
905.451	18019
905.569	18007
905.686	18076
905.803	17969
905.921	17760
906.038	17942
906.155	17866
906.272	17634
906.389	17737
906.506	17512
906.623	17600
906.74	17417
906.857	17395
906.974	17436
907.091	17554
907.208	17573
907.324	17532
907.441	17356
907.557	17220
907.674	17216
907.79	17174
907.907	17231
908.023	17242
908.139	17337
908.256	17174
908.372	17079
908.488	17048
908.604	17029
908.72	16934
908.836	16984
908.952	16877
909.068	16835
909.184	16984
909.3	16839
909.415	17003
909.531	16854
909.647	16649
909.762	16660
909.878	16519
909.993	16554
910.108	16561
910.224	16573
910.339	16721
910.454	16440
910.57	16443
910.685	16367
910.8	16653
910.915	16580
911.03	16394
911.145	16215
911.259	16150
911.374	16036
911.489	16112
911.604	15941
911.718	15926
911.833	15979
911.947	15918
912.062	15835
912.176	15960
912.291	15994
912.405	15937
912.519	16124
912.633	16086
912.748	15838
912.862	15880
912.976	15743
913.09	15743
913.204	15713
913.318	15808
913.431	15816
913.545	15865
913.659	15911
913.772	15747
913.886	15663
914	15477
914.113	15751
914.226	15572
914.34	15526
914.453	15447
914.566	15663
914.68	15431
914.793	15454
914.906	15165
915.019	15150
915.132	15207
915.245	15146
915.358	15150
915.47	15249
915.583	15100
915.696	15146
915.809	15298
915.921	15241
916.034	15161
916.146	15043
916.259	15074
916.371	15165
916.483	15043
916.595	14956
916.708	15001
916.82	15066
916.932	14963
917.044	14880
917.156	14861
917.268	14811
917.38	14739
917.491	14857
917.603	14800
917.715	14861
917.826	14864
917.938	14678
918.049	14644
918.161	14689
918.272	14864
918.384	14849
918.495	14689
918.606	14613
918.717	14507
918.828	14655
918.939	14537
919.05	14465
919.161	14446
919.272	14339
919.383	14389
919.494	14598
919.604	14746
919.715	14499
919.826	14446
919.936	14495
920.047	14545
920.157	14541
920.267	14708
920.378	14526
920.488	14514
920.598	14663
920.708	14781
920.818	14556
920.928	14594
921.038	14674
921.148	14708
921.258	14492
921.368	14320
921.477	14305
921.587	14259
921.697	14107
921.806	14233
921.916	14149
922.025	13947
922.134	13868
922.244	13921
922.353	13970
922.462	13746
922.571	13696
922.68	13575
922.789	13601
922.898	13548
923.007	13449
923.116	13556
923.224	13502
923.333	13480
923.442	13297
923.55	13312
923.659	13415
923.767	13384
923.876	13346
923.984	13350
924.092	13236
924.201	13312
924.309	13304
924.417	13152
924.525	13217
924.633	13247
924.741	14012
924.849	13069
924.956	13133
925.064	13027
925.172	12897
925.279	12947
925.387	12935
925.494	12935
925.602	13103
925.709	13004
925.816	12863
925.924	12886
926.031	13042
926.138	12833
926.245	12924
926.352	12829
926.459	12943
926.566	12924
926.673	12703
926.779	12719
926.886	12646
926.993	12528
927.099	12506
927.206	12460
927.312	12403
927.419	12502
927.525	12566
927.631	12498
927.737	12471
927.843	12338
927.95	12232
928.056	12403
928.162	12353
928.267	12403
928.373	12996
928.479	12395
928.585	12239
928.69	12239
928.796	12353
928.901	12216
929.007	12072
929.112	12247
929.218	12098
929.323	12144
929.428	12041
929.533	12083
929.638	12019
929.743	12007
929.848	11969
929.953	12007
930.058	11851
930.163	11866
930.267	11726
930.372	11866
930.477	11638
930.581	11874
930.685	11813
930.79	11619
930.894	11661
930.998	11615
931.103	11691
931.207	11277
931.311	11273
931.415	11201
931.519	10957
931.623	10980
