Data from test_V78500241_3283.txt Node
Date: Fri Mar 25 16:04:32 CST 2022
User: usil
Spectrometer: V785-0024
Trigger mode: 0
Integration Time (sec): 4.000000E-1
Scans to average: 1
Nonlinearity correction enabled: false
Boxcar width: 0
Storing dark spectrum: false
XAxis mode: Wavelengths
Number of Pixels in Spectrum: 1024
>>>>>Begin Spectral Data<<<<<
801.071	28733
801.214	28679
801.356	28424
801.499	28413
801.641	28257
801.783	28280
801.926	28459
802.068	28268
802.211	28169
802.353	28223
802.496	28025
802.638	27987
802.78	27934
802.923	27800
803.065	27838
803.208	27930
803.35	27907
803.492	28169
803.635	28226
803.777	28124
803.919	28223
804.061	28459
804.204	28211
804.346	28188
804.488	28093
804.63	28154
804.773	28109
804.915	28230
805.057	28280
805.199	28204
805.341	28261
805.483	28508
805.626	28211
805.768	28158
805.91	28360
806.052	28325
806.194	28280
806.336	28478
806.478	28325
806.62	28371
806.762	28462
806.904	28660
807.046	28816
807.188	28626
807.33	28694
807.472	28930
807.614	28778
807.756	28793
807.898	28645
808.04	28550
808.182	28607
808.324	28569
808.465	28592
808.607	28999
808.749	29121
808.891	29075
809.033	29136
809.174	29132
809.316	29140
809.458	29128
809.6	29018
809.741	29185
809.883	29231
810.025	29227
810.166	29284
810.308	29353
810.45	29395
810.591	29239
810.733	29079
810.875	29200
811.016	29025
811.158	29086
811.299	29140
811.441	29197
811.582	29197
811.724	29117
811.865	28980
812.007	28968
812.148	29098
812.29	29143
812.431	29398
812.573	29372
812.714	29474
812.855	29558
812.997	29748
813.138	29745
813.279	29638
813.421	29627
813.562	29463
813.703	29296
813.845	29223
813.986	29185
814.127	28930
814.268	28858
814.41	28850
814.551	28755
814.692	28790
814.833	28710
814.974	28592
815.115	28771
815.256	28702
815.397	28675
815.539	28854
815.68	28653
815.821	28550
815.962	28683
816.103	28618
816.244	28516
816.385	28382
816.526	28287
816.666	28192
816.807	28063
816.948	28166
817.089	28280
817.23	28017
817.371	28211
817.512	27888
817.653	28112
817.793	28078
817.934	28055
818.075	28055
818.216	28200
818.356	28128
818.497	28101
818.638	27800
818.778	27850
818.919	27793
819.06	27956
819.2	27975
819.341	28230
819.481	28112
819.622	28162
819.762	28489
819.903	28405
820.043	28333
820.184	28405
820.324	28196
820.465	28295
820.605	28325
820.746	28150
820.886	28093
821.026	28169
821.167	28036
821.307	28363
821.447	28063
821.588	28181
821.728	27876
821.868	27663
822.008	27656
822.149	27610
822.289	27644
822.429	27283
822.569	27279
822.709	27283
822.849	27218
822.99	27032
823.13	27195
823.27	27142
823.41	26792
823.55	26830
823.69	26899
823.83	26963
823.97	26792
824.11	26682
824.25	26731
824.389	26781
824.529	26864
824.669	26773
824.809	26739
824.949	26857
825.089	26758
825.228	26746
825.368	26575
825.508	26522
825.648	26686
825.787	26712
825.927	26667
826.067	26530
826.206	26533
826.346	26659
826.485	26708
826.625	26621
826.765	26651
826.904	26590
827.044	26537
827.183	26343
827.323	26362
827.462	26423
827.601	26320
827.741	26290
827.88	26355
828.02	26244
828.159	26347
828.298	26408
828.437	26450
828.577	26240
828.716	26415
828.855	26134
828.994	26005
829.134	26054
829.273	26107
829.412	25944
829.551	25871
829.69	26130
829.829	26096
829.968	26084
830.107	26069
830.246	26069
830.385	26084
830.524	25944
830.663	25902
830.802	25833
830.941	25677
831.08	25578
831.219	25780
831.357	25613
831.496	25845
831.635	25769
831.774	25674
831.913	25529
832.051	25472
832.19	25449
832.329	25491
832.467	25384
832.606	25160
832.744	25274
832.883	25209
833.022	25251
833.16	25301
833.299	25384
833.437	25327
833.576	25487
833.714	25259
833.852	25407
833.991	25491
834.129	25491
834.267	25419
834.406	25373
834.544	25422
834.682	25369
834.821	25407
834.959	25487
835.097	25343
835.235	25266
835.373	25343
835.511	25472
835.65	25228
835.788	25270
835.926	25114
836.064	25084
836.202	25057
836.34	25274
836.478	25247
836.615	25206
836.753	25137
836.891	25266
837.029	25190
837.167	25194
837.305	25148
837.443	25095
837.58	25061
837.718	25069
837.856	24916
837.993	25000
838.131	25088
838.269	24738
838.406	24916
838.544	24875
838.681	24639
838.819	24582
838.956	24437
839.094	24426
839.231	24490
839.369	24627
839.506	24924
839.643	24848
839.781	24521
839.918	24464
840.055	24445
840.193	24467
840.33	24517
840.467	24357
840.604	24483
840.742	24806
840.879	24079
841.016	24346
841.153	24159
841.29	24471
841.427	24277
841.564	24547
841.701	24365
841.838	24369
841.975	24300
842.112	24228
842.249	24304
842.385	24216
842.522	24403
842.659	24201
842.796	23988
842.933	24125
843.069	24174
843.206	24064
843.343	24114
843.479	24289
843.616	24030
843.752	23897
843.889	23946
844.025	24030
844.162	23927
844.298	23984
844.435	23920
844.571	23927
844.708	23942
844.844	24087
844.98	24125
845.117	23999
845.253	23885
845.389	23794
845.525	23904
845.661	23733
845.798	23543
845.934	23581
846.07	23619
846.206	23726
846.342	23729
846.478	23657
846.614	23455
846.75	23368
846.886	23398
847.022	23448
847.158	23349
847.294	23448
847.429	23455
847.565	23315
847.701	23642
847.837	23132
847.972	23086
848.108	23303
848.244	23200
848.379	23033
848.515	23056
848.65	22896
848.786	22984
848.921	22896
849.057	23170
849.192	23083
849.328	23052
849.463	23025
849.598	23018
849.734	22820
849.869	22820
850.004	22645
850.14	22790
850.275	22736
850.41	22729
850.545	22641
850.68	22721
850.815	22725
850.95	22812
851.085	22915
851.22	22816
851.355	22771
851.49	22771
851.625	22664
851.76	22759
851.895	22607
852.03	22649
852.165	22820
852.299	22854
852.434	22820
852.569	22729
852.703	22767
852.838	22892
852.973	22889
853.107	22965
853.242	22660
853.376	22584
853.511	22519
853.645	22675
853.78	22702
853.914	22580
854.048	22550
854.183	22603
854.317	22622
854.451	22744
854.585	22637
854.72	22497
854.854	22538
854.988	22573
855.122	22542
855.256	22375
855.39	22531
855.524	22653
855.658	22626
855.792	22653
855.926	22573
856.06	22622
856.194	22603
856.327	22508
856.461	22523
856.595	22379
856.729	22611
856.862	22622
856.996	22542
857.13	22698
857.263	22516
857.397	22660
857.53	22516
857.664	22481
857.797	22474
857.931	22710
858.064	22607
858.197	22702
858.331	22736
858.464	22440
858.597	22573
858.731	22615
858.864	22489
858.997	22519
859.13	22588
859.263	22584
859.396	22687
859.529	22535
859.662	22485
859.795	22424
859.928	22588
860.061	22618
860.194	22782
860.327	22584
860.46	22615
860.592	22668
860.725	22679
860.858	22702
860.99	22615
861.123	22584
861.256	22599
861.388	22580
861.521	23181
861.653	22508
861.786	22318
861.918	22508
862.05	22500
862.183	22497
862.315	22451
862.447	22447
862.58	22497
862.712	22299
862.844	22230
862.976	22421
863.108	22318
863.24	22771
863.372	22150
863.504	22291
863.636	22306
863.768	22295
863.9	22249
864.032	22116
864.164	22257
864.296	22333
864.428	22390
864.559	22272
864.691	22379
864.823	22223
864.954	22242
865.086	22082
865.217	22188
865.349	22226
865.48	22219
865.612	22230
865.743	22276
865.875	22177
866.006	22093
866.137	22116
866.269	22082
866.4	22169
866.531	22067
866.662	22036
866.793	22105
866.924	22116
867.055	21987
867.186	22097
867.317	22124
867.448	22051
867.579	22006
867.71	21941
867.841	21998
867.972	21987
868.103	22044
868.233	22082
868.364	22207
868.495	22246
868.625	22306
868.756	22390
868.886	22287
869.017	22325
869.147	22424
869.278	22413
869.408	22249
869.539	22306
869.669	22329
869.799	22398
869.929	22413
870.06	22527
870.19	22694
870.32	22607
870.45	22702
870.58	22717
870.71	22881
870.84	22725
870.97	22752
871.1	22694
871.23	22812
871.36	22919
871.489	22820
871.619	22786
871.749	22881
871.879	22953
872.008	23048
872.138	22976
872.267	22828
872.397	22809
872.526	22790
872.656	22706
872.785	22706
872.915	22889
873.044	22976
873.173	22938
873.303	23025
873.432	22930
873.561	23155
873.69	23044
873.819	22953
873.948	23079
874.077	23025
874.206	22927
874.335	22972
874.464	23166
874.593	23117
874.722	23102
874.851	23136
874.979	23193
875.108	23212
875.237	23143
875.365	23056
875.494	23189
875.623	23178
875.751	23140
875.88	23216
876.008	23227
876.136	23429
876.265	23615
876.393	23642
876.521	23638
876.65	23638
876.778	23497
876.906	23478
877.034	23474
877.162	23326
877.29	23421
877.418	23433
877.546	23573
877.674	23459
877.802	23448
877.93	23490
878.058	23303
878.185	23322
878.313	23341
878.441	23425
878.568	23113
878.696	23364
878.824	23459
878.951	23596
879.079	23771
879.206	23623
879.333	23589
879.461	23490
879.588	23707
879.715	23570
879.842	23745
879.97	23417
880.097	23280
880.224	23307
880.351	23337
880.478	23345
880.605	23330
880.732	23231
880.859	23455
880.986	23356
881.112	23311
881.239	23197
881.366	23124
881.493	22938
881.619	22915
881.746	22812
881.872	22949
881.999	22873
882.125	22801
882.252	22904
882.378	22930
882.505	22942
882.631	22725
882.757	22599
882.883	22596
883.01	22497
883.136	22432
883.262	22550
883.388	22284
883.514	22573
883.64	22573
883.766	22405
883.892	22318
884.018	22344
884.143	22382
884.269	22607
884.395	22280
884.52	22112
884.646	22169
884.772	22101
884.897	22105
885.023	22185
885.148	22310
885.274	22306
885.399	22303
885.524	22143
885.65	22249
885.775	22261
885.9	22044
886.025	22143
886.15	22230
886.275	22128
886.4	22070
886.525	22162
886.65	22078
886.775	22124
886.9	22234
887.025	22234
887.149	22177
887.274	22010
887.399	21899
887.523	21975
887.648	21911
887.773	21838
887.897	22051
888.021	22067
888.146	21907
888.27	22025
888.395	21941
888.519	22021
888.643	22048
888.767	21926
888.891	21781
889.015	21553
889.139	21876
889.263	21652
889.387	21827
889.511	21922
889.635	21861
889.759	21739
889.883	21701
890.006	21793
890.13	21835
890.254	21713
890.377	21568
890.501	21515
890.624	21462
890.748	21492
890.871	21287
890.995	21195
891.118	21233
891.241	21264
891.364	21332
891.488	21382
891.611	21241
891.734	21291
891.857	21222
891.98	21355
892.103	21378
892.226	21218
892.349	21169
892.471	21051
892.594	21173
892.717	21332
892.839	21165
892.962	21195
893.085	21287
893.207	21131
893.33	21036
893.452	20971
893.575	21161
893.697	21017
893.819	21279
893.941	21283
894.064	21298
894.186	21070
894.308	21085
894.43	21154
894.552	21321
894.674	21272
894.796	20899
894.918	21070
895.04	21131
895.161	21310
895.283	21173
895.405	20963
895.526	21252
895.648	21123
895.769	21142
895.891	21230
896.012	21230
896.134	21180
896.255	21214
896.376	20952
896.498	21096
896.619	21188
896.74	21093
896.861	21085
896.982	21454
897.103	21545
897.224	21428
897.345	21386
897.466	21154
897.587	21351
897.708	21393
897.828	21355
897.949	21317
898.07	21116
898.19	21237
898.311	21428
898.431	21416
898.552	21336
898.672	21401
898.792	21412
898.913	21336
899.033	21252
899.153	21116
899.273	21001
899.393	20921
899.513	21020
899.633	21112
899.753	21104
899.873	21013
899.993	21104
900.113	20990
900.232	21005
900.352	21036
900.472	20823
900.591	20758
900.711	20792
900.83	20727
900.95	20800
901.069	20895
901.189	20735
901.308	20503
901.427	20461
901.546	20404
901.665	20442
901.784	20408
901.904	20294
902.023	20084
902.141	20164
902.26	19906
902.379	19944
902.498	19871
902.617	19856
902.735	19978
902.854	19776
902.973	19868
903.091	19445
903.21	19567
903.328	19609
903.446	19392
903.565	19365
903.683	19354
903.801	19236
903.919	19301
904.038	19255
904.156	19110
904.274	19240
904.392	19118
904.51	19042
904.627	19160
904.745	19190
904.863	19141
904.981	18897
905.098	18837
905.216	18764
905.334	19019
905.451	18856
905.569	18814
905.686	18833
905.803	18673
905.921	18566
906.038	18623
906.155	18517
906.272	18578
906.389	18540
906.506	18395
906.623	18342
906.74	18205
906.857	18148
906.974	18262
907.091	18369
907.208	18407
907.324	18357
907.441	18186
907.557	18041
907.674	18015
907.79	18019
907.907	17878
908.023	18030
908.139	18064
908.256	17961
908.372	17946
908.488	17893
908.604	17809
908.72	17764
908.836	17699
908.952	17695
909.068	17672
909.184	17775
909.3	17821
909.415	17821
909.531	17767
909.647	17539
909.762	17410
909.878	17398
909.993	17440
910.108	17379
910.224	17189
910.339	17353
910.454	17261
910.57	17280
910.685	17250
910.8	17649
910.915	17254
911.03	17254
911.145	17022
911.259	16927
911.374	16938
911.489	16919
911.604	16869
911.718	16786
911.833	16801
911.947	16599
912.062	16565
912.176	16744
912.291	16767
912.405	16778
912.519	16862
912.633	16881
912.748	16755
912.862	16687
912.976	16626
913.09	16531
913.204	16672
913.318	16470
913.431	16618
913.545	16767
913.659	16584
913.772	16485
913.886	16295
914	16344
914.113	16447
914.226	16417
914.34	16379
914.453	16284
914.566	16360
914.68	16188
914.793	16188
914.906	15998
915.019	15975
915.132	15930
915.245	15903
915.358	15987
915.47	15926
915.583	15979
915.696	15835
915.809	16006
915.921	16029
916.034	15934
916.146	15804
916.259	15732
916.371	15892
916.483	15846
916.595	15812
916.708	15774
916.82	15732
916.932	15762
917.044	15686
917.156	15591
917.268	15557
917.38	15606
917.491	15618
917.603	15549
917.715	15629
917.826	15591
917.938	15572
918.049	15264
918.161	15397
918.272	15492
918.384	15675
918.495	15488
918.606	15302
918.717	15287
918.828	15176
918.939	15317
919.05	15081
919.161	15241
919.272	14929
919.383	15142
919.494	15351
919.604	15389
919.715	15264
919.826	15218
919.936	15279
920.047	15294
920.157	15222
920.267	15542
920.378	15256
920.488	15207
920.598	15424
920.708	15477
920.818	15329
920.928	15321
921.038	15408
921.148	15344
921.258	15230
921.368	15074
921.477	14967
921.587	14952
921.697	14838
921.806	14944
921.916	14739
922.025	14663
922.134	14648
922.244	14583
922.353	14697
922.462	14457
922.571	14377
922.68	14362
922.789	14214
922.898	14176
923.007	14149
923.116	14221
923.224	14153
923.333	14161
923.442	14077
923.55	14050
923.659	14084
923.767	14073
923.876	14016
923.984	13978
924.092	14012
924.201	13967
924.309	13951
924.417	13921
924.525	13921
924.633	13868
924.741	14587
924.849	13655
924.956	13860
925.064	13616
925.172	13540
925.279	13616
925.387	13639
925.494	13597
925.602	13761
925.709	13597
925.816	13476
925.924	13643
926.031	13537
926.138	13529
926.245	13609
926.352	13434
926.459	13681
926.566	13628
926.673	13396
926.779	13419
926.886	13312
926.993	13213
927.099	13171
927.206	13095
927.312	13156
927.419	13217
927.525	13103
927.631	13088
927.737	13072
927.843	13042
927.95	12916
928.056	12993
928.162	12996
928.267	13027
928.373	13521
928.479	13076
928.585	12863
928.69	12856
928.796	12985
928.901	12886
929.007	12665
929.112	12837
929.218	12753
929.323	12719
929.428	12696
929.533	12817
929.638	12635
929.743	12639
929.848	12787
929.953	12627
930.058	12555
930.163	12353
930.267	12388
930.372	12498
930.477	12285
930.581	12589
930.685	12429
930.79	12251
930.894	12376
930.998	12232
931.103	12376
931.207	11988
931.311	11855
931.415	11813
931.519	11661
931.623	11592
