Data from test_V78500241_554.txt Node
Date: Fri Mar 25 15:45:38 CST 2022
User: usil
Spectrometer: V785-0024
Trigger mode: 0
Integration Time (sec): 4.000000E-1
Scans to average: 1
Nonlinearity correction enabled: false
Boxcar width: 0
Storing dark spectrum: false
XAxis mode: Wavelengths
Number of Pixels in Spectrum: 1024
>>>>>Begin Spectral Data<<<<<
801.071	27374
801.214	27363
801.356	27165
801.499	26998
801.641	26979
801.783	26990
801.926	26914
802.068	27070
802.211	26861
802.353	26670
802.496	26453
802.638	26609
802.78	26503
802.923	26606
803.065	26271
803.208	26511
803.35	26613
803.492	26629
803.635	26716
803.777	26564
803.919	26792
804.061	26857
804.204	26773
804.346	26632
804.488	26609
804.63	26617
804.773	26488
804.915	26739
805.057	26743
805.199	26746
805.341	26735
805.483	26796
805.626	26868
805.768	26815
805.91	26921
806.052	26811
806.194	26629
806.336	27104
806.478	26830
806.62	26701
806.762	26842
806.904	27039
807.046	27279
807.188	27370
807.33	27135
807.472	27264
807.614	27013
807.756	27192
807.898	26952
808.04	27108
808.182	27017
808.324	27066
808.465	26979
808.607	27306
808.749	27454
808.891	27481
809.033	27534
809.174	27519
809.316	27629
809.458	27519
809.6	27473
809.741	27500
809.883	27458
810.025	27770
810.166	27675
810.308	27812
810.45	27644
810.591	27561
810.733	27382
810.875	27439
811.016	27351
811.158	27348
811.299	27599
811.441	27557
811.582	27599
811.724	27481
811.865	27424
812.007	27313
812.148	27310
812.29	27572
812.431	27622
812.573	27831
812.714	27766
812.855	27838
812.997	27956
813.138	28230
813.279	28006
813.421	27937
813.562	27979
813.703	27580
813.845	27511
813.986	27397
814.127	27161
814.268	27013
814.41	27138
814.551	26952
814.692	27055
814.833	27066
814.974	26982
815.115	27051
815.256	26929
815.397	26967
815.539	26891
815.68	26785
815.821	26902
815.962	26994
816.103	26880
816.244	26758
816.385	26629
816.526	26693
816.666	26473
816.807	26343
816.948	26453
817.089	26552
817.23	26332
817.371	26465
817.512	26412
817.653	26233
817.793	26339
817.934	26336
818.075	26400
818.216	26301
818.356	26313
818.497	26202
818.638	26107
818.778	26035
818.919	26103
819.06	25955
819.2	26145
819.341	26206
819.481	26164
819.622	26503
819.762	26609
819.903	26659
820.043	26480
820.184	26541
820.324	26412
820.465	26617
820.605	26210
820.746	26358
820.886	26328
821.026	26450
821.167	26484
821.307	26526
821.447	26328
821.588	26286
821.728	26043
821.868	26062
822.008	25830
822.149	25791
822.289	25803
822.429	25445
822.569	25396
822.709	25521
822.849	25316
822.99	25274
823.13	25285
823.27	25263
823.41	25141
823.55	25084
823.69	25129
823.83	25148
823.97	25175
824.11	24894
824.25	24943
824.389	24966
824.529	24939
824.669	24989
824.809	25095
824.949	25122
825.089	24954
825.228	25160
825.368	24886
825.508	24909
825.648	24852
825.787	24875
825.927	24833
826.067	24783
826.206	24852
826.346	24840
826.485	24935
826.625	24814
826.765	24943
826.904	24966
827.044	24635
827.183	24574
827.323	24452
827.462	24726
827.601	24460
827.741	24403
827.88	24452
828.02	24350
828.159	24460
828.298	24574
828.437	24555
828.577	24505
828.716	24574
828.855	24410
828.994	24232
829.134	24205
829.273	24289
829.412	24015
829.551	24155
829.69	24117
829.829	24216
829.968	24262
830.107	24369
830.246	24254
830.385	24072
830.524	24163
830.663	24038
830.802	23866
830.941	23771
831.08	23752
831.219	23916
831.357	23916
831.496	24125
831.635	23790
831.774	23684
831.913	23767
832.051	23600
832.19	23665
832.329	23630
832.467	23604
832.606	23497
832.744	23364
832.883	23448
833.022	23414
833.16	23440
833.299	23501
833.437	23615
833.576	23501
833.714	23589
833.852	23604
833.991	23570
834.129	23634
834.267	23608
834.406	23695
834.544	23592
834.682	23665
834.821	23581
834.959	23562
835.097	23433
835.235	23604
835.373	23562
835.511	23539
835.65	23261
835.788	23486
835.926	23235
836.064	23220
836.202	23216
836.34	23376
836.478	23524
836.615	23379
836.753	23452
836.891	23444
837.029	23486
837.167	23436
837.305	23372
837.443	23261
837.58	23269
837.718	23254
837.856	23212
837.993	23086
838.131	23166
838.269	23124
838.406	23029
838.544	23060
838.681	22938
838.819	22869
838.956	22668
839.094	22683
839.231	22634
839.369	22854
839.506	23189
839.643	22911
839.781	22771
839.918	22588
840.055	22645
840.193	22618
840.33	22554
840.467	22694
840.604	22786
840.742	22961
840.879	22531
841.016	22459
841.153	22557
841.29	22729
841.427	22618
841.564	22656
841.701	22596
841.838	22653
841.975	22527
842.112	22538
842.249	22573
842.385	22390
842.522	22653
842.659	22325
842.796	22333
842.933	22405
843.069	22284
843.206	22284
843.343	22516
843.479	22500
843.616	22344
843.752	22249
843.889	22169
844.025	22226
844.162	22147
844.298	22215
844.435	22139
844.571	22185
844.708	22150
844.844	22280
844.98	22287
845.117	22371
845.253	22006
845.389	21949
845.525	22040
845.661	21956
845.798	21857
845.934	21953
846.07	21880
846.206	21892
846.342	21987
846.478	21800
846.614	21633
846.75	21587
846.886	21660
847.022	21644
847.158	21717
847.294	21580
847.429	21557
847.565	21519
847.701	21869
847.837	21443
847.972	21431
848.108	21488
848.244	21564
848.379	21272
848.515	21199
848.65	21131
848.786	21336
848.921	21138
849.057	21302
849.192	21412
849.328	21287
849.463	21268
849.598	21173
849.734	21108
849.869	21058
850.004	21070
850.14	21135
850.275	20902
850.41	20796
850.545	20937
850.68	20857
850.815	20967
850.95	20967
851.085	21135
851.22	21100
851.355	20956
851.49	20933
851.625	20990
851.76	20895
851.895	20933
852.03	20895
852.165	20941
852.299	21043
852.434	21039
852.569	20971
852.703	21089
852.838	21036
852.973	21085
853.107	20998
853.242	20902
853.376	20868
853.511	20708
853.645	20697
853.78	20864
853.914	20864
854.048	20773
854.183	20815
854.317	20815
854.451	21100
854.585	20804
854.72	20861
854.854	20830
854.988	20686
855.122	20689
855.256	20651
855.39	20758
855.524	20906
855.658	20731
855.792	20880
855.926	20765
856.06	20735
856.194	20994
856.327	20769
856.461	20629
856.595	20857
856.729	20838
856.862	20830
856.996	20906
857.13	20724
857.263	20994
857.397	20811
857.53	20689
857.664	20796
857.797	20861
857.931	20986
858.064	20815
858.197	20952
858.331	20765
858.464	20693
858.597	20777
858.731	20921
858.864	20773
858.997	20743
859.13	20758
859.263	20735
859.396	21043
859.529	20708
859.662	20861
859.795	20701
859.928	20781
860.061	21001
860.194	20883
860.327	20918
860.46	20777
860.592	20887
860.725	20986
860.858	20990
860.99	20815
861.123	20746
861.256	20708
861.388	20777
861.521	21329
861.653	20670
861.786	20442
861.918	20621
862.05	20549
862.183	20727
862.315	20762
862.447	20708
862.58	20697
862.712	20522
862.844	20389
862.976	20511
863.108	20480
863.24	21096
863.372	20446
863.504	20571
863.636	20484
863.768	20514
863.9	20499
864.032	20298
864.164	20434
864.296	20697
864.428	20575
864.559	20511
864.691	20594
864.823	20530
864.954	20499
865.086	20625
865.217	20495
865.349	20320
865.48	20408
865.612	20412
865.743	20484
865.875	20404
866.006	20412
866.137	20480
866.269	20309
866.4	20358
866.531	20370
866.662	20457
866.793	20366
866.924	20313
867.055	20381
867.186	20355
867.317	20286
867.448	20180
867.579	20355
867.71	20320
867.841	20271
867.972	20336
868.103	20282
868.233	20252
868.364	20393
868.495	20385
868.625	20552
868.756	20731
868.886	20541
869.017	20533
869.147	20712
869.278	20712
869.408	20640
869.539	20579
869.669	20651
869.799	20708
869.929	20663
870.06	20819
870.19	20952
870.32	20815
870.45	20986
870.58	21032
870.71	21123
870.84	21062
870.97	21024
871.1	21058
871.23	21062
871.36	21169
871.489	21085
871.619	21146
871.749	21279
871.879	21131
872.008	21279
872.138	21081
872.267	21184
872.397	21024
872.526	21001
872.656	21009
872.785	21081
872.915	21272
873.044	21226
873.173	21222
873.303	21268
873.432	21230
873.561	21336
873.69	21260
873.819	21214
873.948	21306
874.077	21199
874.206	21211
874.335	21089
874.464	21298
874.593	21389
874.722	21359
874.851	21496
874.979	21523
875.108	21534
875.237	21447
875.365	21252
875.494	21481
875.623	21523
875.751	21389
875.88	21542
876.008	21580
876.136	21549
876.265	21808
876.393	21975
876.521	21934
876.65	21895
876.778	21819
876.906	21793
877.034	21701
877.162	21854
877.29	21724
877.418	21831
877.546	21888
877.674	21857
877.802	21789
877.93	21903
878.058	21698
878.185	21759
878.313	21743
878.441	21698
878.568	21553
878.696	21778
878.824	21762
878.951	21979
879.079	22029
879.206	22032
879.333	21892
879.461	21930
879.588	22010
879.715	21926
879.842	22192
879.97	21842
880.097	21728
880.224	21568
880.351	21705
880.478	21591
880.605	21519
880.732	21599
880.859	21888
880.986	21660
881.112	21728
881.239	21431
881.366	21359
881.493	21382
881.619	21199
881.746	21302
881.872	21218
881.999	21218
882.125	21100
882.252	21264
882.378	21188
882.505	21306
882.631	21104
882.757	21047
882.883	21119
883.01	20933
883.136	20986
883.262	20712
883.388	20807
883.514	20895
883.64	21009
883.766	20861
883.892	20830
884.018	20781
884.143	20910
884.269	20937
884.395	20663
884.52	20522
884.646	20697
884.772	20495
884.897	20457
885.023	20552
885.148	20598
885.274	20670
885.399	20693
885.524	20602
885.65	20549
885.775	20575
885.9	20571
886.025	20746
886.15	20590
886.275	20533
886.4	20511
886.525	20446
886.65	20499
886.775	20412
886.9	20689
887.025	20674
887.149	20415
887.274	20377
887.399	20298
887.523	20301
887.648	20347
887.773	20282
887.897	20499
888.021	20438
888.146	20336
888.27	20495
888.395	20336
888.519	20332
888.643	20412
888.767	20362
888.891	20240
889.015	20233
889.139	20256
889.263	20157
889.387	20252
889.511	20404
889.635	20199
889.759	20153
889.883	20065
890.006	20134
890.13	20252
890.254	20096
890.377	20020
890.501	19982
890.624	19864
890.748	19932
890.871	19868
890.995	19651
891.118	19601
891.241	19742
891.364	19757
891.488	19917
891.611	19788
891.734	19643
891.857	19784
891.98	19841
892.103	19738
892.226	19708
892.349	19799
892.471	19643
892.594	19674
892.717	19586
892.839	19586
892.962	19674
893.085	19776
893.207	19582
893.33	19537
893.452	19620
893.575	19658
893.697	19594
893.819	19601
893.941	19811
894.064	19795
894.186	19548
894.308	19662
894.43	19837
894.552	19738
894.674	19693
894.796	19464
894.918	19582
895.04	19563
895.161	19723
895.283	19700
895.405	19567
895.526	19609
895.648	19635
895.769	19567
895.891	19681
896.012	19753
896.134	19666
896.255	19681
896.376	19613
896.498	19670
896.619	19780
896.74	19582
896.861	19651
896.982	20027
897.103	20145
897.224	19997
897.345	19932
897.466	19708
897.587	19894
897.708	19913
897.828	19967
897.949	19921
898.07	19780
898.19	19849
898.311	20043
898.431	19849
898.552	19932
898.672	20027
898.792	19967
898.913	19852
899.033	19795
899.153	19765
899.273	19529
899.393	19700
899.513	19624
899.633	19681
899.753	19750
899.873	19620
899.993	19563
900.113	19643
900.232	19643
900.352	19620
900.472	19354
900.591	19346
900.711	19548
900.83	19350
900.95	19472
901.069	19518
901.189	19301
901.308	19053
901.427	18954
901.546	19057
901.665	18951
901.784	19015
901.904	18859
902.023	18882
902.141	18589
902.26	18677
902.379	18601
902.498	18616
902.617	18353
902.735	18521
902.854	18479
902.973	18502
903.091	18266
903.21	18034
903.328	18205
903.446	18125
903.565	18038
903.683	18011
903.801	17954
903.919	18068
904.038	17840
904.156	17851
904.274	17965
904.392	17684
904.51	17756
904.627	17722
904.745	17726
904.863	17783
904.981	17581
905.098	17566
905.216	17482
905.334	17478
905.451	17543
905.569	17520
905.686	17604
905.803	17356
905.921	17220
906.038	17372
906.155	17330
906.272	17075
906.389	17136
906.506	17079
906.623	17075
906.74	16942
906.857	16946
906.974	16828
907.091	17083
907.208	17227
907.324	16995
907.441	16991
907.557	16790
907.674	16698
907.79	16672
907.907	16740
908.023	16679
908.139	16630
908.256	16626
908.372	16618
908.488	16584
908.604	16603
908.72	16394
908.836	16512
908.952	16402
909.068	16485
909.184	16512
909.3	16440
909.415	16512
909.531	16405
909.647	16204
909.762	16215
909.878	16154
909.993	16078
910.108	15998
910.224	16177
910.339	16093
910.454	16067
910.57	15994
910.685	15854
910.8	16215
910.915	16124
911.03	15915
911.145	15755
911.259	15751
911.374	15755
911.489	15656
911.604	15667
911.718	15450
911.833	15561
911.947	15412
912.062	15344
912.176	15466
912.291	15530
912.405	15511
912.519	15679
912.633	15641
912.748	15515
912.862	15530
912.976	15306
913.09	15245
913.204	15283
913.318	15306
913.431	15317
913.545	15378
913.659	15408
913.772	15325
913.886	15211
914	15138
914.113	15230
914.226	15256
914.34	15245
914.453	15081
914.566	15165
914.68	14971
914.793	14971
914.906	14807
915.019	14682
915.132	14739
915.245	14648
915.358	14815
915.47	14777
915.583	14769
915.696	14739
915.809	14929
915.921	14845
916.034	14651
916.146	14648
916.259	14670
916.371	14708
916.483	14598
916.595	14530
916.708	14587
916.82	14583
916.932	14537
917.044	14518
917.156	14545
917.268	14343
917.38	14412
917.491	14358
917.603	14480
917.715	14518
917.826	14415
917.938	14328
918.049	14271
918.161	14389
918.272	14549
918.384	14533
918.495	14393
918.606	14214
918.717	14092
918.828	14195
918.939	14252
919.05	14081
919.161	14130
919.272	13974
919.383	14069
919.494	14161
919.604	14343
919.715	14180
919.826	14001
919.936	14123
920.047	14244
920.157	14210
920.267	14305
920.378	14199
920.488	14058
920.598	14324
920.708	14484
920.818	14244
920.928	14278
921.038	14473
921.148	14366
921.258	14084
921.368	14054
921.477	13887
921.587	14012
921.697	13807
921.806	13883
921.916	13791
922.025	13575
922.134	13537
922.244	13533
922.353	13597
922.462	13430
922.571	13362
922.68	13187
922.789	13133
922.898	13133
923.007	13145
923.116	13164
923.224	13213
923.333	13114
923.442	13065
923.55	13008
923.659	13038
923.767	13034
923.876	13072
923.984	12966
924.092	12886
924.201	12920
924.309	12977
924.417	12954
924.525	12966
924.633	12848
924.741	13894
924.849	12715
924.956	12837
925.064	12639
925.172	12627
925.279	12684
925.387	12578
925.494	12597
925.602	12734
925.709	12589
925.816	12502
925.924	12551
926.031	12650
926.138	12612
926.245	12566
926.352	12418
926.459	12616
926.566	12654
926.673	12544
926.779	12407
926.886	12399
926.993	12235
927.099	12186
927.206	12136
927.312	12220
927.419	12201
927.525	12232
927.631	12155
927.737	12076
927.843	12045
927.95	11923
928.056	12079
928.162	12026
928.267	12038
928.373	12722
928.479	12098
928.585	11874
928.69	11980
928.796	11988
928.901	11863
929.007	11893
929.112	11912
929.218	11885
929.323	11767
929.428	11786
929.533	11878
929.638	11722
929.743	11684
929.848	11832
929.953	11771
930.058	11589
930.163	11505
930.267	11440
930.372	11573
930.477	11433
930.581	11646
930.685	11585
930.79	11402
930.894	11440
930.998	11353
931.103	11505
931.207	11178
931.311	11003
931.415	10942
931.519	10835
931.623	10759
