Data from test_V78500241_785.txt Node
Date: Fri Mar 25 15:47:14 CST 2022
User: usil
Spectrometer: V785-0024
Trigger mode: 0
Integration Time (sec): 4.000000E-1
Scans to average: 1
Nonlinearity correction enabled: false
Boxcar width: 0
Storing dark spectrum: false
XAxis mode: Wavelengths
Number of Pixels in Spectrum: 1024
>>>>>Begin Spectral Data<<<<<
801.071	27146
801.214	27146
801.356	26746
801.499	26861
801.641	26568
801.783	26644
801.926	26716
802.068	26655
802.211	26686
802.353	26476
802.496	26278
802.638	26248
802.78	26218
802.923	26134
803.065	26195
803.208	26180
803.35	26298
803.492	26214
803.635	26446
803.777	26313
803.919	26488
804.061	26762
804.204	26419
804.346	26358
804.488	26377
804.63	26347
804.773	26336
804.915	26362
805.057	26602
805.199	26286
805.341	26492
805.483	26545
805.626	26571
805.768	26385
805.91	26469
806.052	26629
806.194	26320
806.336	26769
806.478	26507
806.62	26526
806.762	26549
806.904	26773
807.046	27089
807.188	26963
807.33	26994
807.472	26921
807.614	26910
807.756	26819
807.898	26819
808.04	26762
808.182	26670
808.324	26823
808.465	26842
808.607	26921
808.749	26940
808.891	27249
809.033	27336
809.174	27211
809.316	27161
809.458	27135
809.6	27211
809.741	27245
809.883	27568
810.025	27340
810.166	27393
810.308	27332
810.45	27291
810.591	27047
810.733	27165
810.875	27077
811.016	27001
811.158	27051
811.299	27264
811.441	27374
811.582	27287
811.724	27173
811.865	27142
812.007	27013
812.148	27218
812.29	27081
812.431	27268
812.573	27412
812.714	27568
812.855	27667
812.997	27751
813.138	27800
813.279	27774
813.421	27606
813.562	27561
813.703	27481
813.845	27287
813.986	27085
814.127	26834
814.268	26788
814.41	26746
814.551	26815
814.692	26857
814.833	26724
814.974	26743
815.115	26754
815.256	26575
815.397	26686
815.539	26762
815.68	26438
815.821	26450
815.962	26530
816.103	26522
816.244	26396
816.385	26263
816.526	26431
816.666	26157
816.807	26073
816.948	26153
817.089	26126
817.23	26073
817.371	26088
817.512	25944
817.653	26100
817.793	25963
817.934	26153
818.075	26039
818.216	26054
818.356	26069
818.497	25909
818.638	25738
818.778	25780
818.919	25818
819.06	25860
819.2	25902
819.341	25940
819.481	26012
819.622	26286
819.762	26218
819.903	26453
820.043	26244
820.184	26218
820.324	26043
820.465	26168
820.605	26153
820.746	26039
820.886	25989
821.026	26161
821.167	26115
821.307	26206
821.447	26043
821.588	25776
821.728	26050
821.868	25685
822.008	25643
822.149	25548
822.289	25422
822.429	25247
822.569	25251
822.709	25221
822.849	25057
822.99	25088
823.13	24951
823.27	25015
823.41	24779
823.55	24730
823.69	24996
823.83	24673
823.97	24833
824.11	24635
824.25	24582
824.389	24707
824.529	24681
824.669	24654
824.809	24844
824.949	24715
825.089	24859
825.228	24688
825.368	24593
825.508	24540
825.648	24547
825.787	24646
825.927	24669
826.067	24578
826.206	24498
826.346	24631
826.485	24665
826.625	24513
826.765	24665
826.904	24498
827.044	24296
827.183	24262
827.323	24114
827.462	24258
827.601	24224
827.741	24053
827.88	24228
828.02	24167
828.159	24148
828.298	24285
828.437	24353
828.577	24197
828.716	24410
828.855	24030
828.994	23882
829.134	23996
829.273	23984
829.412	23904
829.551	23767
829.69	24011
829.829	23908
829.968	23996
830.107	23935
830.246	23874
830.385	23821
830.524	23748
830.663	23691
830.802	23657
830.941	23398
831.08	23543
831.219	23657
831.357	23558
831.496	23729
831.635	23528
831.774	23444
831.913	23505
832.051	23322
832.19	23269
832.329	23303
832.467	23197
832.606	23223
832.744	23181
832.883	23318
833.022	23147
833.16	23250
833.299	23239
833.437	23242
833.576	23280
833.714	23204
833.852	23261
833.991	23322
834.129	23444
834.267	23296
834.406	23212
834.544	23254
834.682	23235
834.821	23265
834.959	23326
835.097	23223
835.235	23197
835.373	23197
835.511	23277
835.65	23102
835.788	23098
835.926	22957
836.064	22987
836.202	22972
836.34	23121
836.478	23113
836.615	23105
836.753	23044
836.891	23258
837.029	23121
837.167	23231
837.305	23212
837.443	23029
837.58	22953
837.718	22999
837.856	23052
837.993	22767
838.131	23018
838.269	22980
838.406	22862
838.544	22729
838.681	22618
838.819	22611
838.956	22405
839.094	22348
839.231	22504
839.369	22596
839.506	22797
839.643	22755
839.781	22523
839.918	22382
840.055	22432
840.193	22371
840.33	22322
840.467	22459
840.604	22329
840.742	22713
840.879	22284
841.016	22344
841.153	22192
841.29	22489
841.427	22265
841.564	22299
841.701	22226
841.838	22341
841.975	22287
842.112	22234
842.249	22158
842.385	22154
842.522	22348
842.659	22124
842.796	22131
842.933	22029
843.069	22070
843.206	22036
843.343	22120
843.479	22131
843.616	22090
843.752	22002
843.889	21934
844.025	21873
844.162	21972
844.298	21854
844.435	21827
844.571	21903
844.708	21846
844.844	22051
844.98	21941
845.117	21922
845.253	21755
845.389	21705
845.525	21831
845.661	21781
845.798	21660
845.934	21713
846.07	21526
846.206	21637
846.342	21759
846.478	21652
846.614	21340
846.75	21287
846.886	21287
847.022	21389
847.158	21473
847.294	21408
847.429	21264
847.565	21351
847.701	21530
847.837	21093
847.972	21119
848.108	21127
848.244	21188
848.379	20944
848.515	20906
848.65	20960
848.786	21005
848.921	21024
849.057	21055
849.192	21009
849.328	20944
849.463	20982
849.598	20948
849.734	20868
849.869	20811
850.004	20758
850.14	20708
850.275	20788
850.41	20762
850.545	20568
850.68	20705
850.815	20735
850.95	20560
851.085	20929
851.22	20754
851.355	20682
851.49	20693
851.625	20727
851.76	20632
851.895	20731
852.03	20644
852.165	20758
852.299	20773
852.434	20674
852.569	20629
852.703	20609
852.838	20800
852.973	20777
853.107	20967
853.242	20773
853.376	20632
853.511	20503
853.645	20549
853.78	20587
853.914	20552
854.048	20476
854.183	20492
854.317	20587
854.451	20682
854.585	20545
854.72	20488
854.854	20609
854.988	20389
855.122	20480
855.256	20419
855.39	20518
855.524	20625
855.658	20480
855.792	20571
855.926	20549
856.06	20518
856.194	20606
856.327	20514
856.461	20461
856.595	20480
856.729	20541
856.862	20659
856.996	20663
857.13	20648
857.263	20693
857.397	20659
857.53	20552
857.664	20648
857.797	20705
857.931	20670
858.064	20594
858.197	20575
858.331	20400
858.464	20545
858.597	20370
858.731	20442
858.864	20545
858.997	20522
859.13	20579
859.263	20522
859.396	20568
859.529	20431
859.662	20358
859.795	20522
859.928	20594
860.061	20678
860.194	20800
860.327	20583
860.46	20526
860.592	20560
860.725	20739
860.858	20693
860.99	20629
861.123	20461
861.256	20423
861.388	20617
861.521	21119
861.653	20393
861.786	20434
861.918	20450
862.05	20389
862.183	20560
862.315	20537
862.447	20533
862.58	20355
862.712	20252
862.844	20187
862.976	20343
863.108	20320
863.24	20720
863.372	20244
863.504	20301
863.636	20233
863.768	20252
863.9	20336
864.032	20191
864.164	20164
864.296	20233
864.428	20358
864.559	20347
864.691	20343
864.823	20301
864.954	20248
865.086	20210
865.217	20259
865.349	20191
865.48	20153
865.612	20161
865.743	20294
865.875	20138
866.006	20005
866.137	20263
866.269	20122
866.4	20149
866.531	20142
866.662	20073
866.793	20062
866.924	20069
867.055	20164
867.186	20012
867.317	20168
867.448	20024
867.579	20024
867.71	20020
867.841	20077
867.972	19993
868.103	20081
868.233	20084
868.364	19967
868.495	20168
868.625	20362
868.756	20381
868.886	20240
869.017	20244
869.147	20480
869.278	20339
869.408	20374
869.539	20290
869.669	20377
869.799	20438
869.929	20431
870.06	20454
870.19	20613
870.32	20507
870.45	20686
870.58	20758
870.71	20838
870.84	20804
870.97	20693
871.1	20663
871.23	21089
871.36	20929
871.489	20902
871.619	20952
871.749	20872
871.879	20963
872.008	21131
872.138	20929
872.267	20857
872.397	20838
872.526	20735
872.656	20796
872.785	20853
872.915	20952
873.044	20979
873.173	20975
873.303	20998
873.432	20883
873.561	21055
873.69	21055
873.819	20883
873.948	21108
874.077	21074
874.206	21058
874.335	21077
874.464	21127
874.593	21264
874.722	21161
874.851	21264
874.979	21214
875.108	21260
875.237	21161
875.365	21024
875.494	21321
875.623	21313
875.751	21207
875.88	21249
876.008	21291
876.136	21485
876.265	21637
876.393	21694
876.521	21671
876.65	21625
876.778	21595
876.906	21553
877.034	21591
877.162	21580
877.29	21568
877.418	21511
877.546	21549
877.674	21572
877.802	21591
877.93	21511
878.058	21587
878.185	21557
878.313	21447
878.441	21504
878.568	21500
878.696	21454
878.824	21591
878.951	21648
879.079	21671
879.206	21781
879.333	21686
879.461	21591
879.588	21690
879.715	21766
879.842	21812
879.97	21606
880.097	21405
880.224	21279
880.351	21389
880.478	21344
880.605	21420
880.732	21408
880.859	21610
880.986	21310
881.112	21294
881.239	21214
881.366	21123
881.493	21009
881.619	20914
881.746	20963
881.872	21009
881.999	20902
882.125	20914
882.252	21100
882.378	20944
882.505	21176
882.631	20925
882.757	20693
882.883	20594
883.01	20674
883.136	20731
883.262	20594
883.388	20613
883.514	20731
883.64	20682
883.766	20629
883.892	20476
884.018	20415
884.143	20590
884.269	20708
884.395	20374
884.52	20256
884.646	20385
884.772	20187
884.897	20229
885.023	20431
885.148	20423
885.274	20400
885.399	20374
885.524	20221
885.65	20259
885.775	20374
885.9	20351
886.025	20511
886.15	20408
886.275	20237
886.4	20237
886.525	20294
886.65	20374
886.775	20271
886.9	20423
887.025	20492
887.149	20271
887.274	20168
887.399	20199
887.523	20062
887.648	19993
887.773	19906
887.897	20145
888.021	20107
888.146	19989
888.27	20172
888.395	20126
888.519	20142
888.643	20077
888.767	20130
888.891	19967
889.015	19906
889.139	19989
889.263	19837
889.387	19978
889.511	20107
889.635	20016
889.759	19898
889.883	19917
890.006	19940
890.13	20016
890.254	19799
890.377	19837
890.501	19715
890.624	19662
890.748	19772
890.871	19746
890.995	19533
891.118	19453
891.241	19552
891.364	19567
891.488	19578
891.611	19495
891.734	19559
891.857	19514
891.98	19563
892.103	19514
892.226	19563
892.349	19457
892.471	19282
892.594	19483
892.717	19487
892.839	19495
892.962	19537
893.085	19453
893.207	19422
893.33	19339
893.452	19422
893.575	19575
893.697	19365
893.819	19506
893.941	19662
894.064	19567
894.186	19354
894.308	19384
894.43	19457
894.552	19582
894.674	19476
894.796	19392
894.918	19400
895.04	19354
895.161	19430
895.283	19537
895.405	19381
895.526	19495
895.648	19422
895.769	19468
895.891	19453
896.012	19449
896.134	19491
896.255	19556
896.376	19422
896.498	19430
896.619	19434
896.74	19540
896.861	19506
896.982	19833
897.103	19868
897.224	19677
897.345	19761
897.466	19643
897.587	19639
897.708	19761
897.828	19685
897.949	19723
898.07	19563
898.19	19613
898.311	19731
898.431	19613
898.552	19769
898.672	19757
898.792	19822
898.913	19898
899.033	19590
899.153	19689
899.273	19438
899.393	19457
899.513	19453
899.633	19499
899.753	19540
899.873	19457
899.993	19460
900.113	19506
900.232	19487
900.352	19510
900.472	19255
900.591	19324
900.711	19251
900.83	19194
900.95	19236
901.069	19293
901.189	19171
901.308	18894
901.427	18798
901.546	18814
901.665	18886
901.784	18894
901.904	18673
902.023	18635
902.141	18464
902.26	18319
902.379	18464
902.498	18395
902.617	18369
902.735	18445
902.854	18357
902.973	18197
903.091	18186
903.21	17988
903.328	17942
903.446	18015
903.565	17821
903.683	17942
903.801	17764
903.919	17821
904.038	17745
904.156	17615
904.274	17634
904.392	17543
904.51	17619
904.627	17627
904.745	17608
904.863	17649
904.981	17372
905.098	17315
905.216	17341
905.334	17334
905.451	17376
905.569	17277
905.686	17273
905.803	17254
905.921	17147
906.038	17136
906.155	17216
906.272	17086
906.389	17025
906.506	16850
906.623	16847
906.74	16767
906.857	16683
906.974	16725
907.091	16911
907.208	16869
907.324	16816
907.441	16706
907.557	16588
907.674	16630
907.79	16523
907.907	16603
908.023	16577
908.139	16554
908.256	16489
908.372	16417
908.488	16489
908.604	16360
908.72	16291
908.836	16219
908.952	16226
909.068	16261
909.184	16363
909.3	16265
909.415	16303
909.531	16223
909.647	16059
909.762	15884
909.878	15994
909.993	15987
910.108	15884
910.224	16010
910.339	15972
910.454	15873
910.57	15823
910.685	15690
910.8	16074
910.915	15884
911.03	15895
911.145	15690
911.259	15610
911.374	15629
911.489	15507
911.604	15504
911.718	15374
911.833	15298
911.947	15260
912.062	15279
912.176	15412
912.291	15336
912.405	15348
912.519	15500
912.633	15526
912.748	15378
912.862	15272
912.976	15108
913.09	15055
913.204	15127
913.318	15108
913.431	15245
913.545	15214
913.659	15294
913.772	15097
913.886	15077
914	14948
914.113	15165
914.226	15051
914.34	15043
914.453	14754
914.566	15013
914.68	14883
914.793	14861
914.906	14708
915.019	14648
915.132	14480
915.245	14640
915.358	14648
915.47	14640
915.583	14613
915.696	14655
915.809	14727
915.921	14705
916.034	14602
916.146	14545
916.259	14461
916.371	14541
916.483	14667
916.595	14541
916.708	14450
916.82	14514
916.932	14438
917.044	14404
917.156	14393
917.268	14298
917.38	14355
917.491	14199
917.603	14286
917.715	14366
917.826	14298
917.938	14218
918.049	14149
918.161	14240
918.272	14290
918.384	14294
918.495	14218
918.606	14050
918.717	14065
918.828	14096
918.939	14088
919.05	13928
919.161	13932
919.272	13769
919.383	13967
919.494	14142
919.604	14256
919.715	14077
919.826	13932
919.936	14001
920.047	14123
920.157	14084
920.267	14256
920.378	14058
920.488	13963
920.598	14187
920.708	14259
920.818	14142
920.928	14153
921.038	14278
921.148	14328
921.258	13932
921.368	13883
921.477	13822
921.587	13780
921.697	13715
921.806	13811
921.916	13677
922.025	13495
922.134	13388
922.244	13331
922.353	13472
922.462	13301
922.571	13225
922.68	13156
922.789	12989
922.898	13031
923.007	12977
923.116	13019
923.224	13133
923.333	13050
923.442	12798
923.55	12924
923.659	12859
923.767	12954
923.876	12738
923.984	12913
924.092	12875
924.201	12859
924.309	12837
924.417	12856
924.525	12772
924.633	12783
924.741	13636
924.849	12532
924.956	12700
925.064	12620
925.172	12437
925.279	12471
925.387	12494
925.494	12483
925.602	12646
925.709	12563
925.816	12372
925.924	12471
926.031	12460
926.138	12494
926.245	12486
926.352	12380
926.459	12437
926.566	12536
926.673	12380
926.779	12311
926.886	12327
926.993	12178
927.099	12155
927.206	12057
927.312	12034
927.419	12087
927.525	12060
927.631	12060
927.737	11988
927.843	11977
927.95	11855
928.056	11916
928.162	11908
928.267	12045
928.373	12551
928.479	12007
928.585	11783
928.69	11805
928.796	11999
928.901	11855
929.007	11646
929.112	11786
929.218	11771
929.323	11653
929.428	11649
929.533	11786
929.638	11649
929.743	11566
929.848	11611
929.953	11657
930.058	11589
930.163	11315
930.267	11376
930.372	11554
930.477	11303
930.581	11543
930.685	11395
930.79	11220
930.894	11231
930.998	11356
931.103	11349
931.207	11052
931.311	10968
931.415	10824
931.519	10656
931.623	10630
