Data from test_V78500241_3587.txt Node
Date: Fri Mar 25 16:06:39 CST 2022
User: usil
Spectrometer: V785-0024
Trigger mode: 0
Integration Time (sec): 4.000000E-1
Scans to average: 1
Nonlinearity correction enabled: false
Boxcar width: 0
Storing dark spectrum: false
XAxis mode: Wavelengths
Number of Pixels in Spectrum: 1024
>>>>>Begin Spectral Data<<<<<
801.071	28831
801.214	28634
801.356	28379
801.499	28394
801.641	28204
801.783	28268
801.926	28318
802.068	28409
802.211	28246
802.353	28287
802.496	28078
802.638	27998
802.78	28036
802.923	28044
803.065	27960
803.208	27956
803.35	28082
803.492	28196
803.635	28226
803.777	28059
803.919	28344
804.061	28447
804.204	28306
804.346	28207
804.488	28131
804.63	28196
804.773	28169
804.915	28238
805.057	28268
805.199	28249
805.341	28348
805.483	28466
805.626	28360
805.768	28303
805.91	28390
806.052	28337
806.194	28360
806.336	28615
806.478	28390
806.62	28329
806.762	28573
806.904	28793
807.046	28782
807.188	28938
807.33	28873
807.472	28915
807.614	28972
807.756	28820
807.898	28653
808.04	28542
808.182	28660
808.324	28748
808.465	28634
808.607	28934
808.749	29121
808.891	29109
809.033	29296
809.174	29151
809.316	28984
809.458	29159
809.6	29029
809.741	29193
809.883	29197
810.025	29402
810.166	29387
810.308	29356
810.45	29284
810.591	29356
810.733	29155
810.875	29265
811.016	28984
811.158	28934
811.299	29242
811.441	29322
811.582	29178
811.724	29094
811.865	29113
812.007	29044
812.148	29261
812.29	29185
812.431	29223
812.573	29455
812.714	29509
812.855	29592
812.997	29539
813.138	29851
813.279	29813
813.421	29718
813.562	29577
813.703	29448
813.845	29284
813.986	29086
814.127	29003
814.268	28854
814.41	28828
814.551	28831
814.692	28843
814.833	28748
814.974	28622
815.115	28774
815.256	28839
815.397	28698
815.539	28702
815.68	28694
815.821	28664
815.962	28649
816.103	28713
816.244	28481
816.385	28542
816.526	28421
816.666	28230
816.807	28223
816.948	28158
817.089	28207
817.23	28044
817.371	28188
817.512	28074
817.653	28162
817.793	27964
817.934	28112
818.075	28090
818.216	28090
818.356	28082
818.497	28120
818.638	27918
818.778	27876
818.919	27979
819.06	28097
819.2	28070
819.341	28021
819.481	28192
819.622	28360
819.762	28580
819.903	28443
820.043	28348
820.184	28329
820.324	28379
820.465	28500
820.605	28200
820.746	28234
820.886	28101
821.026	28173
821.167	28097
821.307	28230
821.447	28112
821.588	28105
821.728	27888
821.868	27698
822.008	27572
822.149	27690
822.289	27671
822.429	27306
822.569	27336
822.709	27374
822.849	27062
822.99	27165
823.13	27066
823.27	27062
823.41	26971
823.55	26937
823.69	26944
823.83	26807
823.97	27013
824.11	26765
824.25	26746
824.389	26819
824.529	26720
824.669	26724
824.809	26883
824.949	26758
825.089	26788
825.228	26579
825.368	26739
825.508	26644
825.648	26750
825.787	26765
825.927	26750
826.067	26667
826.206	26598
826.346	26743
826.485	26701
826.625	26708
826.765	26678
826.904	26644
827.044	26545
827.183	26568
827.323	26252
827.462	26381
827.601	26541
827.741	26355
827.88	26336
828.02	26324
828.159	26305
828.298	26248
828.437	26434
828.577	26313
828.716	26556
828.855	26244
828.994	26046
829.134	26100
829.273	26172
829.412	26122
829.551	25928
829.69	26111
829.829	26077
829.968	26180
830.107	26081
830.246	26096
830.385	26012
830.524	25917
830.663	25830
830.802	25742
830.941	25875
831.08	25628
831.219	25685
831.357	25681
831.496	25894
831.635	25746
831.774	25651
831.913	25552
832.051	25548
832.19	25343
832.329	25544
832.467	25259
832.606	25247
832.744	25202
832.883	25320
833.022	25240
833.16	25365
833.299	25377
833.437	25358
833.576	25479
833.714	25240
833.852	25472
833.991	25415
834.129	25381
834.267	25419
834.406	25438
834.544	25468
834.682	25483
834.821	25339
834.959	25407
835.097	25255
835.235	25521
835.373	25388
835.511	25343
835.65	25190
835.788	25202
835.926	25213
836.064	25023
836.202	25061
836.34	25327
836.478	25270
836.615	25141
836.753	25156
836.891	25274
837.029	25308
837.167	25114
837.305	25015
837.443	25107
837.58	25053
837.718	24989
837.856	25084
837.993	24985
838.131	25114
838.269	24844
838.406	24928
838.544	24943
838.681	24597
838.819	24677
838.956	24334
839.094	24441
839.231	24429
839.369	24783
839.506	24882
839.643	24791
839.781	24521
839.918	24471
840.055	24525
840.193	24464
840.33	24426
840.467	24486
840.604	24441
840.742	24696
840.879	24308
841.016	24319
841.153	24319
841.29	24528
841.427	24479
841.564	24536
841.701	24441
841.838	24369
841.975	24270
842.112	24323
842.249	24304
842.385	24216
842.522	24319
842.659	24201
842.796	24186
842.933	24171
843.069	24083
843.206	24129
843.343	24102
843.479	24049
843.616	24205
843.752	23920
843.889	24018
844.025	24060
844.162	23999
844.298	23882
844.435	23923
844.571	23859
844.708	23977
844.844	24095
844.98	24106
845.117	23992
845.253	23939
845.389	23745
845.525	23786
845.661	23805
845.798	23608
845.934	23760
846.07	23642
846.206	23676
846.342	23851
846.478	23748
846.614	23444
846.75	23486
846.886	23436
847.022	23493
847.158	23421
847.294	23482
847.429	23318
847.565	23417
847.701	23562
847.837	23121
847.972	23086
848.108	23151
848.244	23212
848.379	22911
848.515	23083
848.65	23075
848.786	22957
848.921	23037
849.057	23094
849.192	23037
849.328	22995
849.463	22991
849.598	22809
849.734	22915
849.869	22965
850.004	22873
850.14	22816
850.275	22679
850.41	22634
850.545	22782
850.68	22713
850.815	22904
850.95	22683
851.085	23010
851.22	22736
851.355	22626
851.49	22672
851.625	22687
851.76	22702
851.895	22725
852.03	22561
852.165	22866
852.299	22736
852.434	22877
852.569	22672
852.703	22782
852.838	22786
852.973	22717
853.107	22949
853.242	22748
853.376	22596
853.511	22398
853.645	22481
853.78	22713
853.914	22519
854.048	22462
854.183	22557
854.317	22702
854.451	22824
854.585	22535
854.72	22462
854.854	22611
854.988	22550
855.122	22641
855.256	22489
855.39	22592
855.524	22641
855.658	22736
855.792	22542
855.926	22596
856.06	22733
856.194	22611
856.327	22634
856.461	22626
856.595	22519
856.729	22588
856.862	22596
856.996	22736
857.13	22725
857.263	22725
857.397	22733
857.53	22497
857.664	22588
857.797	22710
857.931	22649
858.064	22535
858.197	22664
858.331	22577
858.464	22546
858.597	22459
858.731	22523
858.864	22516
858.997	22493
859.13	22588
859.263	22706
859.396	22774
859.529	22554
859.662	22462
859.795	22607
859.928	22535
860.061	22774
860.194	22763
860.327	22626
860.46	22538
860.592	22679
860.725	22786
860.858	22721
860.99	22630
861.123	22428
861.256	22519
861.388	22679
861.521	23220
861.653	22402
861.786	22447
861.918	22417
862.05	22478
862.183	22519
862.315	22512
862.447	22489
862.58	22519
862.712	22169
862.844	22253
862.976	22470
863.108	22284
863.24	22755
863.372	22242
863.504	22295
863.636	22371
863.768	22265
863.9	22367
864.032	22192
864.164	22188
864.296	22261
864.428	22337
864.559	22318
864.691	22306
864.823	22280
864.954	22261
865.086	22192
865.217	22223
865.349	22173
865.48	22139
865.612	22090
865.743	22356
865.875	22143
866.006	22048
866.137	22055
866.269	22154
866.4	22196
866.531	22223
866.662	22002
866.793	22169
866.924	22032
867.055	22116
867.186	22070
867.317	22188
867.448	21842
867.579	22048
867.71	22063
867.841	22017
867.972	22131
868.103	22044
868.233	22135
868.364	22177
868.495	22128
868.625	22352
868.756	22287
868.886	22272
869.017	22386
869.147	22462
869.278	22459
869.408	22394
869.539	22341
869.669	22363
869.799	22344
869.929	22421
870.06	22447
870.19	22694
870.32	22615
870.45	22584
870.58	22660
870.71	22820
870.84	22774
870.97	22797
871.1	22706
871.23	22980
871.36	22934
871.489	22790
871.619	22892
871.749	22938
871.879	22949
872.008	23113
872.138	23132
872.267	22873
872.397	22824
872.526	22828
872.656	22786
872.785	22748
872.915	22976
873.044	22976
873.173	23010
873.303	23052
873.432	23006
873.561	23098
873.69	22999
873.819	22923
873.948	22991
874.077	22987
874.206	22919
874.335	22957
874.464	23056
874.593	23220
874.722	23067
874.851	23296
874.979	23094
875.108	23193
875.237	23189
875.365	23105
875.494	23124
875.623	23280
875.751	23189
875.88	23124
876.008	23200
876.136	23288
876.265	23562
876.393	23642
876.521	23649
876.65	23573
876.778	23520
876.906	23535
877.034	23482
877.162	23455
877.29	23509
877.418	23539
877.546	23452
877.674	23463
877.802	23482
877.93	23436
878.058	23402
878.185	23379
878.313	23448
878.441	23524
878.568	23353
878.696	23471
878.824	23581
878.951	23604
879.079	23573
879.206	23771
879.333	23764
879.461	23573
879.588	23524
879.715	23604
879.842	23596
879.97	23558
880.097	23246
880.224	23391
880.351	23265
880.478	23322
880.605	23318
880.732	23372
880.859	23478
880.986	23307
881.112	23421
881.239	23155
881.366	23033
881.493	22961
881.619	22801
881.746	22934
881.872	22938
881.999	22797
882.125	22850
882.252	22824
882.378	22771
882.505	22915
882.631	22717
882.757	22611
882.883	22691
883.01	22481
883.136	22512
883.262	22432
883.388	22516
883.514	22550
883.64	22474
883.766	22573
883.892	22436
884.018	22299
884.143	22580
884.269	22557
884.395	22306
884.52	22112
884.646	22223
884.772	22139
884.897	22048
885.023	22272
885.148	22196
885.274	22306
885.399	22211
885.524	22154
885.65	22219
885.775	22181
885.9	22093
886.025	22226
886.15	22246
886.275	22101
886.4	22101
886.525	22215
886.65	22017
886.775	22120
886.9	22291
887.025	22424
887.149	22082
887.274	21979
887.399	21953
887.523	21797
887.648	21922
887.773	21690
887.897	21926
888.021	21975
888.146	21808
888.27	21994
888.395	22021
888.519	22013
888.643	21823
888.767	21994
888.891	21838
889.015	21728
889.139	21785
889.263	21675
889.387	21789
889.511	21880
889.635	21709
889.759	21686
889.883	21778
890.006	21778
890.13	21789
890.254	21743
890.377	21675
890.501	21538
890.624	21416
890.748	21507
890.871	21378
890.995	21370
891.118	21283
891.241	21298
891.364	21222
891.488	21431
891.611	21340
891.734	21135
891.857	21329
891.98	21306
892.103	21283
892.226	21363
892.349	21287
892.471	21150
892.594	21180
892.717	21112
892.839	21077
892.962	21214
893.085	21317
893.207	21188
893.33	21081
893.452	21039
893.575	21203
893.697	21233
893.819	21329
893.941	21336
894.064	21351
894.186	21089
894.308	21081
894.43	21218
894.552	21367
894.674	21245
894.796	21180
894.918	21275
895.04	21123
895.161	21176
895.283	21077
895.405	21032
895.526	21138
895.648	21142
895.769	21154
895.891	21157
896.012	21249
896.134	21173
896.255	21142
896.376	21051
896.498	21207
896.619	21176
896.74	21222
896.861	21272
896.982	21481
897.103	21618
897.224	21469
897.345	21256
897.466	21237
897.587	21344
897.708	21454
897.828	21344
897.949	21294
898.07	21066
898.19	21325
898.311	21534
898.431	21325
898.552	21252
898.672	21428
898.792	21564
898.913	21382
899.033	21233
899.153	21180
899.273	20975
899.393	20986
899.513	21112
899.633	21058
899.753	21104
899.873	21081
899.993	21184
900.113	20971
900.232	21062
900.352	20887
900.472	20994
900.591	20754
900.711	21024
900.83	20777
900.95	20971
901.069	20933
901.189	20750
901.308	20495
901.427	20434
901.546	20336
901.665	20415
901.784	20473
901.904	20317
902.023	20229
902.141	20092
902.26	19826
902.379	19974
902.498	19913
902.617	19944
902.735	19944
902.854	19807
902.973	19928
903.091	19518
903.21	19495
903.328	19613
903.446	19518
903.565	19350
903.683	19304
903.801	19285
903.919	19251
904.038	19301
904.156	19053
904.274	19282
904.392	19126
904.51	19168
904.627	19175
904.745	19236
904.863	19175
904.981	19012
905.098	18814
905.216	18738
905.334	18814
905.451	18707
905.569	18757
905.686	18909
905.803	18715
905.921	18623
906.038	18650
906.155	18551
906.272	18460
906.389	18540
906.506	18342
906.623	18350
906.74	18247
906.857	18171
906.974	18197
907.091	18323
907.208	18479
907.324	18296
907.441	18266
907.557	18068
907.674	18068
907.79	17996
907.907	17927
908.023	17916
908.139	17977
908.256	17912
908.372	17866
908.488	17908
908.604	17733
908.72	17653
908.836	17707
908.952	17718
909.068	17836
909.184	17870
909.3	17764
909.415	17771
909.531	17661
909.647	17493
909.762	17440
909.878	17467
909.993	17482
910.108	17433
910.224	17360
910.339	17364
910.454	17261
910.57	17231
910.685	17140
910.8	17402
910.915	17284
911.03	17193
911.145	17064
911.259	17189
911.374	17014
911.489	16987
911.604	16927
911.718	16694
911.833	16736
911.947	16645
912.062	16599
912.176	16805
912.291	16733
912.405	16763
912.519	16923
912.633	16953
912.748	16782
912.862	16706
912.976	16569
913.09	16421
913.204	16500
913.318	16554
913.431	16630
913.545	16641
913.659	16615
913.772	16466
913.886	16371
914	16325
914.113	16447
914.226	16424
914.34	16363
914.453	16200
914.566	16291
914.68	16177
914.793	16192
914.906	16017
915.019	15903
915.132	15816
915.245	15903
915.358	15915
915.47	15941
915.583	15968
915.696	15876
915.809	15983
915.921	16082
916.034	15983
916.146	15774
916.259	15762
916.371	15808
916.483	15709
916.595	15720
916.708	15804
916.82	15762
916.932	15656
917.044	15736
917.156	15648
917.268	15599
917.38	15580
917.491	15603
917.603	15648
917.715	15660
917.826	15610
917.938	15576
918.049	15416
918.161	15500
918.272	15660
918.384	15561
918.495	15447
918.606	15359
918.717	15287
918.828	15370
918.939	15332
919.05	15165
919.161	15203
919.272	15097
919.383	15150
919.494	15283
919.604	15435
919.715	15256
919.826	15233
919.936	15150
920.047	15355
920.157	15249
920.267	15439
920.378	15310
920.488	15165
920.598	15302
920.708	15443
920.818	15389
920.928	15268
921.038	15477
921.148	15469
921.258	15108
921.368	15150
921.477	14914
921.587	14956
921.697	14773
921.806	14994
921.916	14792
922.025	14610
922.134	14579
922.244	14594
922.353	14549
922.462	14518
922.571	14404
922.68	14343
922.789	14244
922.898	14218
923.007	14161
923.116	14313
923.224	14229
923.333	14161
923.442	14183
923.55	14024
923.659	14024
923.767	14191
923.876	13928
923.984	14157
924.092	13928
924.201	13959
924.309	13963
924.417	13967
924.525	13925
924.633	13925
924.741	14693
924.849	13662
924.956	13791
925.064	13666
925.172	13563
925.279	13548
925.387	13658
925.494	13616
925.602	13738
925.709	13590
925.816	13472
925.924	13525
926.031	13662
926.138	13537
926.245	13578
926.352	13438
926.459	13571
926.566	13544
926.673	13487
926.779	13384
926.886	13327
926.993	13278
927.099	13069
927.206	13133
927.312	13133
927.419	13251
927.525	13247
927.631	13198
927.737	13053
927.843	12977
927.95	12871
928.056	12924
928.162	13004
928.267	13053
928.373	13556
928.479	12970
928.585	12802
928.69	12894
928.796	12833
928.901	12795
929.007	12677
929.112	12814
929.218	12764
929.323	12639
929.428	12707
929.533	12821
929.638	12551
929.743	12688
929.848	12616
929.953	12635
930.058	12506
930.163	12262
930.267	12460
930.372	12506
930.477	12289
930.581	12528
930.685	12357
930.79	12254
930.894	12232
930.998	12144
931.103	12296
931.207	11996
931.311	11863
931.415	11764
931.519	11577
931.623	11467
