Data from test_V78500241_1637.txt Node
Date: Fri Mar 25 15:53:08 CST 2022
User: usil
Spectrometer: V785-0024
Trigger mode: 0
Integration Time (sec): 4.000000E-1
Scans to average: 1
Nonlinearity correction enabled: false
Boxcar width: 0
Storing dark spectrum: false
XAxis mode: Wavelengths
Number of Pixels in Spectrum: 1024
>>>>>Begin Spectral Data<<<<<
801.071	28356
801.214	28588
801.356	28124
801.499	28029
801.641	28090
801.783	28010
801.926	28048
802.068	28002
802.211	27956
802.353	27949
802.496	27854
802.638	27717
802.78	27728
802.923	27641
803.065	27538
803.208	27587
803.35	27595
803.492	27743
803.635	27922
803.777	27888
803.919	28059
804.061	28135
804.204	27960
804.346	27953
804.488	27823
804.63	27949
804.773	27914
804.915	28021
805.057	27968
805.199	27873
805.341	27956
805.483	28002
805.626	28135
805.768	27983
805.91	27994
806.052	28036
806.194	27987
806.336	28143
806.478	28158
806.62	28154
806.762	28207
806.904	28462
807.046	28557
807.188	28497
807.33	28478
807.472	28561
807.614	28500
807.756	28436
807.898	28493
808.04	28382
808.182	28424
808.324	28447
808.465	28401
808.607	28622
808.749	28786
808.891	28881
809.033	28771
809.174	28835
809.316	28828
809.458	28740
809.6	28759
809.741	28919
809.883	28911
810.025	29029
810.166	29113
810.308	28987
810.45	29044
810.591	28862
810.733	28759
810.875	28790
811.016	28706
811.158	28573
811.299	28824
811.441	28957
811.582	28972
811.724	28755
811.865	28790
812.007	28668
812.148	28748
812.29	28797
812.431	28930
812.573	29041
812.714	29159
812.855	29181
812.997	29440
813.138	29448
813.279	29326
813.421	29265
813.562	29269
813.703	29003
813.845	29010
813.986	28691
814.127	28538
814.268	28603
814.41	28390
814.551	28451
814.692	28584
814.833	28356
814.974	28466
815.115	28557
815.256	28276
815.397	28337
815.539	28268
815.68	28272
815.821	28169
815.962	28215
816.103	28181
816.244	28200
816.385	28036
816.526	28006
816.666	27770
816.807	27816
816.948	27865
817.089	27899
817.23	27755
817.371	27660
817.512	27709
817.653	27823
817.793	27854
817.934	27732
818.075	27785
818.216	27778
818.356	27762
818.497	27595
818.638	27580
818.778	27488
818.919	27443
819.06	27564
819.2	27606
819.341	27732
819.481	27743
819.622	27865
819.762	28051
819.903	28067
820.043	28002
820.184	27914
820.324	27964
820.465	28051
820.605	27888
820.746	27774
820.886	27633
821.026	27850
821.167	27816
821.307	27705
821.447	27724
821.588	27728
821.728	27603
821.868	27447
822.008	27332
822.149	27176
822.289	27192
822.429	27009
822.569	26807
822.709	26823
822.849	26781
822.99	26739
823.13	26644
823.27	26708
823.41	26629
823.55	26461
823.69	26537
823.83	26537
823.97	26492
824.11	26267
824.25	26298
824.389	26450
824.529	26488
824.669	26431
824.809	26511
824.949	26446
825.089	26404
825.228	26347
825.368	26096
825.508	26259
825.648	26191
825.787	26294
825.927	26328
826.067	26336
826.206	26233
826.346	26332
826.485	26339
826.625	26157
826.765	26206
826.904	26256
827.044	26126
827.183	26031
827.323	26039
827.462	26062
827.601	25997
827.741	25997
827.88	25932
828.02	26005
828.159	25902
828.298	25974
828.437	26016
828.577	25795
828.716	26096
828.855	25974
828.994	25624
829.134	25731
829.273	25643
829.412	25708
829.551	25594
829.69	25609
829.829	25578
829.968	25750
830.107	25746
830.246	25784
830.385	25693
830.524	25525
830.663	25426
830.802	25396
830.941	25270
831.08	25327
831.219	25343
831.357	25278
831.496	25495
831.635	25339
831.774	25156
831.913	25206
832.051	25042
832.19	25133
832.329	25126
832.467	24829
832.606	24913
832.744	24970
832.883	24901
833.022	24833
833.16	24871
833.299	25050
833.437	24798
833.576	24985
833.714	25015
833.852	25008
833.991	24977
834.129	25084
834.267	25072
834.406	24924
834.544	25008
834.682	24981
834.821	24985
834.959	25194
835.097	24924
835.235	25057
835.373	24992
835.511	24981
835.65	24814
835.788	24916
835.926	24688
836.064	24437
836.202	24604
836.34	24829
836.478	24894
836.615	24844
836.753	24913
836.891	24844
837.029	24977
837.167	24677
837.305	24700
837.443	24703
837.58	24536
837.718	24764
837.856	24669
837.993	24639
838.131	24658
838.269	24502
838.406	24563
838.544	24391
838.681	24266
838.819	24213
838.956	24167
839.094	24133
839.231	24022
839.369	24285
839.506	24486
839.643	24380
839.781	24155
839.918	24140
840.055	24091
840.193	24091
840.33	24133
840.467	24049
840.604	24083
840.742	24247
840.879	23836
841.016	24018
841.153	23931
841.29	24133
841.427	24060
841.564	24026
841.701	24026
841.838	24011
841.975	24007
842.112	23859
842.249	23855
842.385	23855
842.522	23969
842.659	23752
842.796	23836
842.933	23726
843.069	23756
843.206	23695
843.343	23771
843.479	23695
843.616	23813
843.752	23551
843.889	23535
844.025	23695
844.162	23531
844.298	23630
844.435	23634
844.571	23577
844.708	23615
844.844	23604
844.98	23634
845.117	23630
845.253	23467
845.389	23334
845.525	23452
845.661	23406
845.798	23113
845.934	23273
846.07	23315
846.206	23330
846.342	23292
846.478	23223
846.614	22991
846.75	22942
846.886	23029
847.022	23041
847.158	22995
847.294	23014
847.429	23037
847.565	22911
847.701	23322
847.837	22809
847.972	22649
848.108	22847
848.244	22759
848.379	22641
848.515	22622
848.65	22645
848.786	22596
848.921	22637
849.057	22729
849.192	22512
849.328	22729
849.463	22565
849.598	22497
849.734	22436
849.869	22363
850.004	22409
850.14	22417
850.275	22322
850.41	22356
850.545	22306
850.68	22325
850.815	22341
850.95	22421
851.085	22538
851.22	22375
851.355	22417
851.49	22265
851.625	22337
851.76	22474
851.895	22219
852.03	22242
852.165	22287
852.299	22367
852.434	22546
852.569	22352
852.703	22333
852.838	22386
852.973	22485
853.107	22238
853.242	22272
853.376	22291
853.511	22158
853.645	22223
853.78	22192
853.914	22284
854.048	22200
854.183	22242
854.317	22253
854.451	22295
854.585	22097
854.72	22196
854.854	22284
854.988	22177
855.122	22226
855.256	22025
855.39	22219
855.524	22181
855.658	22204
855.792	22207
855.926	22261
856.06	22192
856.194	22215
856.327	22105
856.461	21945
856.595	22169
856.729	22048
856.862	22253
856.996	22120
857.13	22105
857.263	22291
857.397	22272
857.53	22109
857.664	22253
857.797	22226
857.931	22413
858.064	22207
858.197	22329
858.331	22051
858.464	22166
858.597	22109
858.731	22067
858.864	22097
858.997	22044
859.13	22166
859.263	22268
859.396	22211
859.529	22070
859.662	22147
859.795	22147
859.928	22147
860.061	22322
860.194	22409
860.327	22230
860.46	22242
860.592	22325
860.725	22318
860.858	22379
860.99	22265
861.123	22112
861.256	22143
861.388	22181
861.521	22889
861.653	22063
861.786	21960
861.918	21930
862.05	21991
862.183	22086
862.315	22124
862.447	22207
862.58	22128
862.712	21972
862.844	21903
862.976	21884
863.108	21812
863.24	22276
863.372	21838
863.504	21983
863.636	21998
863.768	21922
863.9	21861
864.032	21755
864.164	21816
864.296	21934
864.428	22036
864.559	21941
864.691	21991
864.823	21835
864.954	21895
865.086	21854
865.217	21694
865.349	21724
865.48	21724
865.612	21660
865.743	21846
865.875	21766
866.006	21865
866.137	21804
866.269	21743
866.4	21648
866.531	21618
866.662	21660
866.793	21644
866.924	21774
867.055	21827
867.186	21770
867.317	21667
867.448	21690
867.579	21629
867.71	21595
867.841	21625
867.972	21603
868.103	21770
868.233	21660
868.364	21679
868.495	21797
868.625	21911
868.756	22082
868.886	21827
869.017	21850
869.147	22097
869.278	22086
869.408	21991
869.539	21903
869.669	22006
869.799	21983
869.929	21994
870.06	21941
870.19	22207
870.32	22223
870.45	22375
870.58	22207
870.71	22303
870.84	22367
870.97	22325
871.1	22200
871.23	22436
871.36	22504
871.489	22424
871.619	22470
871.749	22516
871.879	22493
872.008	22645
872.138	22542
872.267	22447
872.397	22261
872.526	22325
872.656	22246
872.785	22348
872.915	22565
873.044	22630
873.173	22615
873.303	22615
873.432	22573
873.561	22588
873.69	22550
873.819	22516
873.948	22618
874.077	22668
874.206	22542
874.335	22497
874.464	22660
874.593	22843
874.722	22721
874.851	22778
874.979	22847
875.108	22664
875.237	22721
875.365	22649
875.494	22767
875.623	22759
875.751	22736
875.88	22763
876.008	22987
876.136	22889
876.265	23250
876.393	23280
876.521	23121
876.65	23277
876.778	23220
876.906	23083
877.034	23041
877.162	22953
877.29	23056
877.418	23143
877.546	23029
877.674	23079
877.802	23254
877.93	23105
878.058	22995
878.185	23029
878.313	23109
878.441	22995
878.568	22930
878.696	23010
878.824	23159
878.951	23121
879.079	23227
879.206	23406
879.333	23349
879.461	23170
879.588	23235
879.715	23315
879.842	23360
879.97	23284
880.097	22980
880.224	22858
880.351	22953
880.478	22896
880.605	22812
880.732	22949
880.859	23060
880.986	22980
881.112	22828
881.239	22774
881.366	22634
881.493	22535
881.619	22523
881.746	22554
881.872	22489
881.999	22531
882.125	22413
882.252	22603
882.378	22333
882.505	22641
882.631	22371
882.757	22093
882.883	22287
883.01	22215
883.136	22166
883.262	22070
883.388	21949
883.514	22166
883.64	22177
883.766	22067
883.892	21888
884.018	21949
884.143	22017
884.269	22215
884.395	21835
884.52	21766
884.646	21922
884.772	21789
884.897	21698
885.023	21793
885.148	21876
885.274	21945
885.399	21850
885.524	21736
885.65	21800
885.775	21736
885.9	21873
886.025	21869
886.15	21857
886.275	21701
886.4	21770
886.525	21755
886.65	21808
886.775	21690
886.9	21861
887.025	22082
887.149	21770
887.274	21679
887.399	21603
887.523	21515
887.648	21485
887.773	21450
887.897	21701
888.021	21618
888.146	21511
888.27	21564
888.395	21637
888.519	21694
888.643	21614
888.767	21580
888.891	21450
889.015	21492
889.139	21386
889.263	21408
889.387	21397
889.511	21500
889.635	21401
889.759	21291
889.883	21351
890.006	21359
890.13	21412
890.254	21287
890.377	21233
890.501	21214
890.624	21135
890.748	21020
890.871	20967
890.995	21013
891.118	20994
891.241	20948
891.364	20868
891.488	21043
891.611	20864
891.734	20925
891.857	20986
891.98	20933
892.103	20918
892.226	20807
892.349	20811
892.471	20678
892.594	20693
892.717	20849
892.839	20773
892.962	20792
893.085	20796
893.207	20788
893.33	20716
893.452	20689
893.575	20868
893.697	20823
893.819	20815
893.941	21001
894.064	21009
894.186	20682
894.308	20811
894.43	20849
894.552	20925
894.674	20880
894.796	20785
894.918	20781
895.04	20765
895.161	20857
895.283	20876
895.405	20640
895.526	20693
895.648	20773
895.769	20864
895.891	20861
896.012	20914
896.134	20724
896.255	20762
896.376	20769
896.498	20724
896.619	20830
896.74	20720
896.861	20982
896.982	21146
897.103	21283
897.224	21104
897.345	20975
897.466	20914
897.587	21062
897.708	21047
897.828	21203
897.949	20811
898.07	20914
898.19	20845
898.311	21043
898.431	20864
898.552	20933
898.672	21013
898.792	20952
898.913	20952
899.033	20830
899.153	20872
899.273	20644
899.393	20746
899.513	20743
899.633	20697
899.753	20781
899.873	20743
899.993	20777
900.113	20716
900.232	20568
900.352	20674
900.472	20579
900.591	20556
900.711	20507
900.83	20587
900.95	20590
901.069	20552
901.189	20427
901.308	20286
901.427	20062
901.546	20111
901.665	20172
901.784	20111
901.904	20024
902.023	19818
902.141	19727
902.26	19685
902.379	19666
902.498	19510
902.617	19578
902.735	19582
902.854	19567
902.973	19472
903.091	19438
903.21	19217
903.328	19282
903.446	19198
903.565	18897
903.683	18989
903.801	18901
903.919	19000
904.038	19061
904.156	18776
904.274	18829
904.392	18833
904.51	18711
904.627	18772
904.745	18814
904.863	18768
904.981	18703
905.098	18494
905.216	18445
905.334	18551
905.451	18395
905.569	18570
905.686	18441
905.803	18464
905.921	18353
906.038	18353
906.155	18327
906.272	18129
906.389	18190
906.506	18167
906.623	17999
906.74	17996
906.857	17912
906.974	17775
907.091	17977
907.208	18064
907.324	17977
907.441	17912
907.557	17680
907.674	17737
907.79	17642
907.907	17653
908.023	17767
908.139	17729
908.256	17703
908.372	17512
908.488	17505
908.604	17379
908.72	17368
908.836	17509
908.952	17414
909.068	17311
909.184	17486
909.3	17463
909.415	17379
909.531	17383
909.647	17151
909.762	17102
909.878	17090
909.993	17174
910.108	17132
910.224	17098
910.339	17159
910.454	17033
910.57	17010
910.685	16820
910.8	17151
910.915	17109
911.03	16953
911.145	16698
911.259	16691
911.374	16706
911.489	16535
911.604	16550
911.718	16459
911.833	16440
911.947	16303
912.062	16356
912.176	16382
912.291	16508
912.405	16367
912.519	16634
912.633	16607
912.748	16424
912.862	16352
912.976	16276
913.09	16196
913.204	16207
913.318	16325
913.431	16398
913.545	16291
913.659	16226
913.772	16246
913.886	16090
914	16040
914.113	16074
914.226	16147
914.34	16086
914.453	15949
914.566	16074
914.68	16006
914.793	15804
914.906	15770
915.019	15618
915.132	15625
915.245	15618
915.358	15713
915.47	15641
915.583	15698
915.696	15660
915.809	15759
915.921	15785
916.034	15660
916.146	15511
916.259	15587
916.371	15652
916.483	15526
916.595	15485
916.708	15458
916.82	15481
916.932	15424
917.044	15420
917.156	15340
917.268	15294
917.38	15264
917.491	15222
917.603	15252
917.715	15348
917.826	15389
917.938	15184
918.049	15123
918.161	15169
918.272	15325
918.384	15275
918.495	15165
918.606	15100
918.717	14921
918.828	15001
918.939	15100
919.05	14986
919.161	14990
919.272	14769
919.383	14887
919.494	15017
919.604	15123
919.715	14982
919.826	14906
919.936	14830
920.047	15138
920.157	14982
920.267	15207
920.378	14941
920.488	14944
920.598	15077
920.708	15302
920.818	15032
920.928	15093
921.038	15298
921.148	15241
921.258	14967
921.368	14883
921.477	14785
921.587	14644
921.697	14552
921.806	14686
921.916	14530
922.025	14385
922.134	14419
922.244	14294
922.353	14313
922.462	14256
922.571	14115
922.68	14069
922.789	14039
922.898	13898
923.007	13932
923.116	13944
923.224	14012
923.333	14039
923.442	13826
923.55	13776
923.659	13852
923.767	13917
923.876	13731
923.984	13807
924.092	13674
924.201	13738
924.309	13765
924.417	13750
924.525	13636
924.633	13582
924.741	14343
924.849	13468
924.956	13529
925.064	13377
925.172	13407
925.279	13415
925.387	13407
925.494	13362
925.602	13499
925.709	13381
925.816	13240
925.924	13232
926.031	13434
926.138	13308
926.245	13350
926.352	13255
926.459	13316
926.566	13415
926.673	13183
926.779	13042
926.886	13164
926.993	12985
927.099	12913
927.206	12928
927.312	12825
927.419	13015
927.525	12848
927.631	12890
927.737	12962
927.843	12772
927.95	12711
928.056	12658
928.162	12711
928.267	12768
928.373	13453
928.479	12776
928.585	12532
928.69	12703
928.796	12764
928.901	12601
929.007	12475
929.112	12616
929.218	12525
929.323	12475
929.428	12467
929.533	12589
929.638	12445
929.743	12376
929.848	12418
929.953	12441
930.058	12281
930.163	12216
930.267	12133
930.372	12277
930.477	12087
930.581	12327
930.685	12152
930.79	12083
930.894	12064
930.998	12038
931.103	12102
931.207	11863
931.311	11707
931.415	11532
931.519	11349
931.623	11421
