Data from test_V78500241_2208.txt Node
Date: Fri Mar 25 15:57:05 CST 2022
User: usil
Spectrometer: V785-0024
Trigger mode: 0
Integration Time (sec): 4.000000E-1
Scans to average: 1
Nonlinearity correction enabled: false
Boxcar width: 0
Storing dark spectrum: false
XAxis mode: Wavelengths
Number of Pixels in Spectrum: 1024
>>>>>Begin Spectral Data<<<<<
801.071	29132
801.214	29155
801.356	28858
801.499	28748
801.641	28828
801.783	28645
801.926	28698
802.068	28706
802.211	28702
802.353	28557
802.496	28348
802.638	28291
802.78	28363
802.923	28223
803.065	28226
803.208	28519
803.35	28455
803.492	28649
803.635	28611
803.777	28508
803.919	28740
804.061	29056
804.204	28866
804.346	28615
804.488	28561
804.63	28569
804.773	28630
804.915	28675
805.057	28748
805.199	28675
805.341	28786
805.483	28911
805.626	28805
805.768	28790
805.91	28767
806.052	28828
806.194	28729
806.336	29075
806.478	28835
806.62	28816
806.762	29014
806.904	29235
807.046	29288
807.188	29372
807.33	29303
807.472	29345
807.614	29296
807.756	29254
807.898	29098
808.04	29117
808.182	29151
808.324	29296
808.465	29242
808.607	29436
808.749	29531
808.891	29577
809.033	29767
809.174	29691
809.316	29558
809.458	29634
809.6	29608
809.741	29703
809.883	29596
810.025	29752
810.166	29771
810.308	29885
810.45	29741
810.591	29657
810.733	29672
810.875	29638
811.016	29459
811.158	29554
811.299	29642
811.441	29729
811.582	29786
811.724	29687
811.865	29554
812.007	29657
812.148	29627
812.29	29619
812.431	29824
812.573	30015
812.714	29992
812.855	30091
812.997	30155
813.138	30262
813.279	30194
813.421	30178
813.562	29847
813.703	29862
813.845	29855
813.986	29543
814.127	29315
814.268	29288
814.41	29326
814.551	29242
814.692	29250
814.833	29280
814.974	29326
815.115	29440
815.256	29128
815.397	29208
815.539	29246
815.68	28991
815.821	29117
815.962	29090
816.103	29147
816.244	28991
816.385	28888
816.526	28797
816.666	28653
816.807	28531
816.948	28862
817.089	28812
817.23	28641
817.371	28554
817.512	28550
817.653	28531
817.793	28580
817.934	28656
818.075	28607
818.216	28664
818.356	28489
818.497	28424
818.638	28398
818.778	28230
818.919	28500
819.06	28337
819.2	28417
819.341	28546
819.481	28618
819.622	28816
819.762	28984
819.903	28942
820.043	28866
820.184	28828
820.324	28759
820.465	28748
820.605	28713
820.746	28687
820.886	28603
821.026	28672
821.167	28656
821.307	28706
821.447	28535
821.588	28542
821.728	28512
821.868	28223
822.008	27937
822.149	28093
822.289	28158
822.429	27808
822.569	27816
822.709	27922
822.849	27576
822.99	27667
823.13	27656
823.27	27564
823.41	27454
823.55	27287
823.69	27443
823.83	27644
823.97	27370
824.11	27180
824.25	27252
824.389	27348
824.529	27306
824.669	27275
824.809	27272
824.949	27397
825.089	27386
825.228	27374
825.368	27241
825.508	27146
825.648	26979
825.787	27173
825.927	27264
826.067	27123
826.206	27089
826.346	27161
826.485	27058
826.625	27226
826.765	27275
826.904	27317
827.044	26887
827.183	26967
827.323	26933
827.462	26918
827.601	26883
827.741	26762
827.88	26823
828.02	26887
828.159	26849
828.298	26834
828.437	26971
828.577	26724
828.716	26944
828.855	26792
828.994	26598
829.134	26579
829.273	26617
829.412	26549
829.551	26492
829.69	26503
829.829	26651
829.968	26609
830.107	26678
830.246	26590
830.385	26541
830.524	26511
830.663	26347
830.802	26237
830.941	26153
831.08	26153
831.219	26183
831.357	26244
831.496	26415
831.635	26096
831.774	26115
831.913	26008
832.051	25875
832.19	25947
832.329	25959
832.467	25837
832.606	25959
832.744	25841
832.883	25864
833.022	25845
833.16	25856
833.299	25841
833.437	25776
833.576	25936
833.714	26024
833.852	25906
833.991	25909
834.129	26005
834.267	25917
834.406	26012
834.544	25860
834.682	25959
834.821	25906
834.959	26084
835.097	25818
835.235	25887
835.373	25818
835.511	25909
835.65	25670
835.788	25879
835.926	25609
836.064	25487
836.202	25559
836.34	25811
836.478	25845
836.615	25670
836.753	25696
836.891	25666
837.029	25803
837.167	25525
837.305	25548
837.443	25605
837.58	25434
837.718	25533
837.856	25540
837.993	25369
838.131	25662
838.269	25373
838.406	25381
838.544	25403
838.681	25266
838.819	25091
838.956	25015
839.094	24977
839.231	25000
839.369	25225
839.506	25373
839.643	25282
839.781	25088
839.918	25072
840.055	25050
840.193	24947
840.33	24802
840.467	24951
840.604	24981
840.742	25213
840.879	24810
841.016	24901
841.153	25015
841.29	24894
841.427	25012
841.564	24886
841.701	24973
841.838	24833
841.975	24711
842.112	24840
842.249	24730
842.385	24661
842.522	24856
842.659	24749
842.796	24525
842.933	24692
843.069	24673
843.206	24719
843.343	24745
843.479	24593
843.616	24692
843.752	24365
843.889	24585
844.025	24593
844.162	24369
844.298	24422
844.435	24475
844.571	24441
844.708	24353
844.844	24677
844.98	24726
845.117	24555
845.253	24452
845.389	24254
845.525	24235
845.661	24163
845.798	24140
845.934	24258
846.07	24201
846.206	24194
846.342	24216
846.478	24258
846.614	23916
846.75	23847
846.886	23805
847.022	23984
847.158	23893
847.294	23874
847.429	23901
847.565	23729
847.701	24034
847.837	23615
847.972	23554
848.108	23729
848.244	23676
848.379	23486
848.515	23482
848.65	23452
848.786	23471
848.921	23551
849.057	23657
849.192	23482
849.328	23551
849.463	23520
849.598	23326
849.734	23387
849.869	23296
850.004	23197
850.14	23322
850.275	23242
850.41	23208
850.545	23246
850.68	23155
850.815	23353
850.95	23086
851.085	23455
851.22	23315
851.355	23402
851.49	23166
851.625	23231
851.76	23204
851.895	23204
852.03	23155
852.165	23193
852.299	23429
852.434	23166
852.569	23193
852.703	23159
852.838	23303
852.973	23455
853.107	23318
853.242	23246
853.376	22957
853.511	22972
853.645	23136
853.78	23178
853.914	23025
854.048	23018
854.183	23140
854.317	23022
854.451	23250
854.585	23105
854.72	22965
854.854	23303
854.988	22938
855.122	23052
855.256	22961
855.39	23041
855.524	23159
855.658	23151
855.792	23064
855.926	23083
856.06	23033
856.194	23090
856.327	22999
856.461	22908
856.595	22953
856.729	22991
856.862	23083
856.996	22980
857.13	23071
857.263	23189
857.397	23105
857.53	22999
857.664	23025
857.797	23189
857.931	23151
858.064	23124
858.197	23090
858.331	23178
858.464	22991
858.597	22862
858.731	22961
858.864	22877
858.997	23090
859.13	23029
859.263	23102
859.396	23166
859.529	23006
859.662	22904
859.795	23048
859.928	23033
860.061	23105
860.194	23132
860.327	23022
860.46	23155
860.592	23174
860.725	23147
860.858	23166
860.99	23128
861.123	23025
861.256	22919
861.388	23044
861.521	23767
861.653	22858
861.786	22858
861.918	22881
862.05	22854
862.183	22984
862.315	23025
862.447	23132
862.58	22927
862.712	22706
862.844	22767
862.976	22866
863.108	22805
863.24	23307
863.372	22774
863.504	22721
863.636	22702
863.768	22691
863.9	22694
864.032	22668
864.164	22755
864.296	22626
864.428	22797
864.559	22824
864.691	22740
864.823	22626
864.954	22828
865.086	22664
865.217	22812
865.349	22592
865.48	22557
865.612	22706
865.743	22759
865.875	22683
866.006	22474
866.137	22618
866.269	22554
866.4	22607
866.531	22489
866.662	22500
866.793	22542
866.924	22516
867.055	22523
867.186	22626
867.317	22466
867.448	22470
867.579	22561
867.71	22413
867.841	22489
867.972	22523
868.103	22466
868.233	22527
868.364	22580
868.495	22710
868.625	22748
868.756	22885
868.886	22790
869.017	22729
869.147	22820
869.278	22949
869.408	22873
869.539	22854
869.669	22847
869.799	22812
869.929	22972
870.06	22778
870.19	23124
870.32	23067
870.45	23113
870.58	23235
870.71	23372
870.84	23299
870.97	23132
871.1	23463
871.23	23379
871.36	23349
871.489	23261
871.619	23280
871.749	23387
871.879	23326
872.008	23490
872.138	23349
872.267	23345
872.397	23220
872.526	23162
872.656	23166
872.785	23299
872.915	23395
873.044	23391
873.173	23383
873.303	23467
873.432	23493
873.561	23471
873.69	23315
873.819	23383
873.948	23505
874.077	23417
874.206	23322
874.335	23349
874.464	23452
874.593	23520
874.722	23562
874.851	23596
874.979	23630
875.108	23604
875.237	23611
875.365	23524
875.494	23554
875.623	23718
875.751	23604
875.88	23531
876.008	23577
876.136	23874
876.265	24034
876.393	23973
876.521	24079
876.65	24030
876.778	23996
876.906	23904
877.034	23980
877.162	23954
877.29	23984
877.418	23843
877.546	23977
877.674	23961
877.802	23923
877.93	23946
878.058	23950
878.185	23764
878.313	23859
878.441	23920
878.568	23729
878.696	23893
878.824	23992
878.951	23870
879.079	24045
879.206	24194
879.333	24167
879.461	23920
879.588	24057
879.715	24114
879.842	24194
879.97	24125
880.097	23745
880.224	23687
880.351	23790
880.478	23665
880.605	23813
880.732	23775
880.859	23939
880.986	23828
881.112	23718
881.239	23570
881.366	23478
881.493	23425
881.619	23273
881.746	23349
881.872	23341
881.999	23227
882.125	23067
882.252	23383
882.378	23296
882.505	23471
882.631	23197
882.757	23037
882.883	23086
883.01	23018
883.136	22972
883.262	22824
883.388	22668
883.514	22915
883.64	22991
883.766	22835
883.892	22778
884.018	22752
884.143	22904
884.269	22961
884.395	22672
884.52	22569
884.646	22557
884.772	22405
884.897	22531
885.023	22508
885.148	22683
885.274	22767
885.399	22729
885.524	22618
885.65	22622
885.775	22592
885.9	22550
886.025	22691
886.15	22653
886.275	22554
886.4	22459
886.525	22523
886.65	22535
886.775	22466
886.9	22603
887.025	22763
887.149	22641
887.274	22413
887.399	22379
887.523	22280
887.648	22356
887.773	22291
887.897	22428
888.021	22375
888.146	22314
888.27	22421
888.395	22322
888.519	22382
888.643	22223
888.767	22363
888.891	22200
889.015	22177
889.139	22268
889.263	22032
889.387	22226
889.511	22390
889.635	22223
889.759	22029
889.883	22147
890.006	22173
890.13	22299
890.254	22116
890.377	22181
890.501	21812
890.624	21747
890.748	21911
890.871	21823
890.995	21679
891.118	21656
891.241	21774
891.364	21755
891.488	21835
891.611	21728
891.734	21743
891.857	21743
891.98	21629
892.103	21766
892.226	21663
892.349	21614
892.471	21519
892.594	21583
892.717	21557
892.839	21606
892.962	21492
893.085	21724
893.207	21504
893.33	21370
893.452	21466
893.575	21564
893.697	21591
893.819	21724
893.941	21747
894.064	21690
894.186	21431
894.308	21515
894.43	21648
894.552	21629
894.674	21698
894.796	21477
894.918	21515
895.04	21610
895.161	21572
895.283	21603
895.405	21473
895.526	21515
895.648	21428
895.769	21663
895.891	21599
896.012	21644
896.134	21622
896.255	21599
896.376	21469
896.498	21610
896.619	21526
896.74	21435
896.861	21580
896.982	21895
897.103	22021
897.224	21698
897.345	21663
897.466	21739
897.587	21717
897.708	21854
897.828	21778
897.949	21568
898.07	21549
898.19	21633
898.311	21789
898.431	21701
898.552	21713
898.672	21781
898.792	21778
898.913	21690
899.033	21583
899.153	21458
899.273	21428
899.393	21424
899.513	21428
899.633	21317
899.753	21466
899.873	21492
899.993	21378
900.113	21416
900.232	21329
900.352	21348
900.472	21310
900.591	21211
900.711	21317
900.83	21169
900.95	21256
901.069	21302
901.189	21096
901.308	20845
901.427	20746
901.546	20754
901.665	20735
901.784	20739
901.904	20613
902.023	20518
902.141	20237
902.26	20317
902.379	20438
902.498	20339
902.617	20176
902.735	20362
902.854	20161
902.973	20172
903.091	19989
903.21	20027
903.328	19849
903.446	19925
903.565	19693
903.683	19761
903.801	19670
903.919	19616
904.038	19670
904.156	19483
904.274	19567
904.392	19491
904.51	19449
904.627	19495
904.745	19472
904.863	19449
904.981	19274
905.098	19141
905.216	19065
905.334	19148
905.451	19023
905.569	19110
905.686	19107
905.803	19095
905.921	18856
906.038	18996
906.155	18840
906.272	18825
906.389	18863
906.506	18692
906.623	18650
906.74	18665
906.857	18547
906.974	18566
907.091	18688
907.208	18795
907.324	18620
907.441	18517
907.557	18361
907.674	18323
907.79	18201
907.907	18239
908.023	18399
908.139	18327
908.256	18342
908.372	18289
908.488	18197
908.604	18019
908.72	17942
908.836	18026
908.952	18079
909.068	18201
909.184	18133
909.3	18003
909.415	17996
909.531	17946
909.647	17779
909.762	17745
909.878	17760
909.993	17783
910.108	17722
910.224	17718
910.339	17726
910.454	17665
910.57	17543
910.685	17490
910.8	17726
910.915	17802
911.03	17452
911.145	17372
911.259	17303
911.374	17322
911.489	17235
911.604	17132
911.718	17060
911.833	17117
911.947	16976
912.062	16995
912.176	17067
912.291	17090
912.405	17075
912.519	17258
912.633	17254
912.748	17132
912.862	17064
912.976	16892
913.09	16831
913.204	16866
913.318	16839
913.431	16923
913.545	16961
913.659	16942
913.772	16809
913.886	16622
914	16577
914.113	16706
914.226	16790
914.34	16641
914.453	16546
914.566	16637
914.68	16504
914.793	16489
914.906	16318
915.019	16295
915.132	16135
915.245	16207
915.358	16177
915.47	16253
915.583	16219
915.696	16204
915.809	16211
915.921	16356
916.034	16207
916.146	16124
916.259	16143
916.371	16219
916.483	16124
916.595	16082
916.708	16082
916.82	16002
916.932	16017
917.044	15949
917.156	15994
917.268	15800
917.38	15949
917.491	15915
917.603	15869
917.715	15895
917.826	15899
917.938	15857
918.049	15637
918.161	15774
918.272	15892
918.384	15865
918.495	15720
918.606	15667
918.717	15523
918.828	15656
918.939	15591
919.05	15542
919.161	15648
919.272	15298
919.383	15329
919.494	15637
919.604	15694
919.715	15557
919.826	15485
919.936	15504
920.047	15485
920.157	15473
920.267	15732
920.378	15485
920.488	15469
920.598	15637
920.708	15812
920.818	15671
920.928	15542
921.038	15736
921.148	15713
921.258	15458
921.368	15340
921.477	15344
921.587	15123
921.697	15218
921.806	15218
921.916	15081
922.025	14842
922.134	14944
922.244	14811
922.353	14887
922.462	14762
922.571	14655
922.68	14552
922.789	14492
922.898	14438
923.007	14389
923.116	14499
923.224	14446
923.333	14404
923.442	14381
923.55	14351
923.659	14332
923.767	14385
923.876	14225
923.984	14294
924.092	14237
924.201	14164
924.309	14218
924.417	14183
924.525	14142
924.633	14100
924.741	14956
924.849	13955
924.956	14027
925.064	13868
925.172	13837
925.279	13967
925.387	13780
925.494	13765
925.602	13909
925.709	13883
925.816	13795
925.924	13765
926.031	13841
926.138	13750
926.245	13738
926.352	13658
926.459	13719
926.566	13890
926.673	13681
926.779	13609
926.886	13533
926.993	13441
927.099	13354
927.206	13403
927.312	13324
927.419	13419
927.525	13434
927.631	13362
927.737	13263
927.843	13183
927.95	13099
928.056	13202
928.162	13179
928.267	13206
928.373	13803
928.479	13190
928.585	13015
928.69	13149
928.796	13137
928.901	13126
929.007	12901
929.112	13046
929.218	13019
929.323	12939
929.428	12863
929.533	12973
929.638	12859
929.743	12852
929.848	12901
929.953	12711
930.058	12688
930.163	12547
930.267	12585
930.372	12734
930.477	12551
930.581	12711
930.685	12506
930.79	12365
930.894	12433
930.998	12452
931.103	12517
931.207	12262
931.311	12140
931.415	12041
931.519	11805
931.623	11802
