Data from test_V78500241_2930.txt Node
Date: Fri Mar 25 16:02:05 CST 2022
User: usil
Spectrometer: V785-0024
Trigger mode: 0
Integration Time (sec): 4.000000E-1
Scans to average: 1
Nonlinearity correction enabled: false
Boxcar width: 0
Storing dark spectrum: false
XAxis mode: Wavelengths
Number of Pixels in Spectrum: 1024
>>>>>Begin Spectral Data<<<<<
801.071	28793
801.214	28622
801.356	28424
801.499	28280
801.641	28303
801.783	28249
801.926	28390
802.068	28306
802.211	28272
802.353	28261
802.496	27941
802.638	27972
802.78	27960
802.923	27869
803.065	27930
803.208	27911
803.35	27937
803.492	28226
803.635	28154
803.777	27964
803.919	28169
804.061	28557
804.204	28287
804.346	28143
804.488	28257
804.63	28238
804.773	28105
804.915	28268
805.057	28325
805.199	28169
805.341	28390
805.483	28485
805.626	28344
805.768	28150
805.91	28447
806.052	28436
806.194	28398
806.336	28474
806.478	28386
806.62	28322
806.762	28497
806.904	28641
807.046	28923
807.188	28733
807.33	28828
807.472	28984
807.614	28755
807.756	28942
807.898	28664
808.04	28634
808.182	28588
808.324	28717
808.465	28782
808.607	29014
808.749	29090
808.891	29197
809.033	29349
809.174	29174
809.316	29048
809.458	29056
809.6	29033
809.741	29200
809.883	29109
810.025	29379
810.166	29303
810.308	29372
810.45	29417
810.591	29208
810.733	29083
810.875	28946
811.016	29071
811.158	29006
811.299	29193
811.441	29250
811.582	29071
811.724	29079
811.865	29064
812.007	29052
812.148	29041
812.29	29212
812.431	29288
812.573	29452
812.714	29448
812.855	29554
812.997	29687
813.138	29912
813.279	29718
813.421	29646
813.562	29414
813.703	29505
813.845	29269
813.986	28999
814.127	28976
814.268	28774
814.41	28801
814.551	28774
814.692	28759
814.833	28599
814.974	28713
815.115	28717
815.256	28664
815.397	28557
815.539	28740
815.68	28493
815.821	28455
815.962	28672
816.103	28630
816.244	28413
816.385	28538
816.526	28268
816.666	28101
816.807	27949
816.948	28135
817.089	28226
817.23	28219
817.371	28032
817.512	28074
817.653	28158
817.793	27979
817.934	28173
818.075	28211
818.216	28086
818.356	28036
818.497	27994
818.638	28040
818.778	27854
818.919	27998
819.06	27857
819.2	27914
819.341	28124
819.481	28166
819.622	28185
819.762	28485
819.903	28394
820.043	28356
820.184	28230
820.324	28246
820.465	28303
820.605	28196
820.746	28188
820.886	27998
821.026	28154
821.167	28135
821.307	28287
821.447	28105
821.588	28036
821.728	27922
821.868	27800
822.008	27542
822.149	27553
822.289	27443
822.429	27283
822.569	27310
822.709	27245
822.849	27192
822.99	27074
823.13	27108
823.27	27051
823.41	27009
823.55	26853
823.69	26823
823.83	26914
823.97	26956
824.11	26568
824.25	26758
824.389	26693
824.529	26872
824.669	26849
824.809	26876
824.949	26902
825.089	26845
825.228	26785
825.368	26613
825.508	26609
825.648	26609
825.787	26632
825.927	26575
826.067	26526
826.206	26621
826.346	26686
826.485	26807
826.625	26769
826.765	26724
826.904	26644
827.044	26366
827.183	26473
827.323	26301
827.462	26461
827.601	26252
827.741	26320
827.88	26336
828.02	26320
828.159	26343
828.298	26339
828.437	26328
828.577	26244
828.716	26434
828.855	26240
828.994	26035
829.134	26168
829.273	26107
829.412	25963
829.551	26024
829.69	25932
829.829	26096
829.968	26237
830.107	26115
830.246	25906
830.385	25970
830.524	26077
830.663	25731
830.802	25689
830.941	25597
831.08	25635
831.219	25784
831.357	25788
831.496	25841
831.635	25658
831.774	25582
831.913	25556
832.051	25472
832.19	25487
832.329	25430
832.467	25304
832.606	25259
832.744	25099
832.883	25369
833.022	25297
833.16	25293
833.299	25407
833.437	25346
833.576	25521
833.714	25392
833.852	25457
833.991	25365
834.129	25445
834.267	25438
834.406	25495
834.544	25499
834.682	25373
834.821	25396
834.959	25540
835.097	25274
835.235	25377
835.373	25362
835.511	25460
835.65	25304
835.788	25270
835.926	25141
836.064	24962
836.202	24973
836.34	25183
836.478	25251
836.615	25122
836.753	25171
836.891	25331
837.029	25209
837.167	25152
837.305	25042
837.443	25065
837.58	25069
837.718	25114
837.856	24992
837.993	24973
838.131	25088
838.269	24798
838.406	25080
838.544	24905
838.681	24730
838.819	24730
838.956	24517
839.094	24483
839.231	24566
839.369	24711
839.506	24856
839.643	24738
839.781	24521
839.918	24414
840.055	24422
840.193	24460
840.33	24460
840.467	24483
840.604	24517
840.742	24639
840.879	24224
841.016	24319
841.153	24239
841.29	24513
841.427	24376
841.564	24365
841.701	24296
841.838	24258
841.975	24277
842.112	24304
842.249	24171
842.385	24171
842.522	24437
842.659	24190
842.796	24133
842.933	24216
843.069	24140
843.206	24057
843.343	24133
843.479	24011
843.616	24144
843.752	23946
843.889	24057
844.025	23984
844.162	23931
844.298	23984
844.435	23988
844.571	23916
844.708	24018
844.844	24072
844.98	24068
845.117	23988
845.253	23992
845.389	23748
845.525	23813
845.661	23802
845.798	23737
845.934	23699
846.07	23813
846.206	23729
846.342	23745
846.478	23642
846.614	23398
846.75	23448
846.886	23349
847.022	23395
847.158	23315
847.294	23421
847.429	23356
847.565	23341
847.701	23505
847.837	23086
847.972	23132
848.108	23220
848.244	23178
848.379	23025
848.515	22984
848.65	22911
848.786	22965
848.921	22980
849.057	23014
849.192	23052
849.328	23022
849.463	22984
849.598	23003
849.734	22793
849.869	22889
850.004	22847
850.14	22702
850.275	22694
850.41	22622
850.545	22645
850.68	22782
850.815	22809
850.95	22771
851.085	22949
851.22	22934
851.355	22729
851.49	22839
851.625	22759
851.76	22729
851.895	22675
852.03	22561
852.165	22733
852.299	22866
852.434	22725
852.569	22782
852.703	22691
852.838	22820
852.973	22805
853.107	22831
853.242	22664
853.376	22592
853.511	22371
853.645	22538
853.78	22683
853.914	22497
854.048	22485
854.183	22546
854.317	22580
854.451	22691
854.585	22599
854.72	22504
854.854	22588
854.988	22573
855.122	22470
855.256	22489
855.39	22489
855.524	22580
855.658	22596
855.792	22603
855.926	22592
856.06	22641
856.194	22618
856.327	22531
856.461	22519
856.595	22443
856.729	22588
856.862	22687
856.996	22759
857.13	22516
857.263	22706
857.397	22531
857.53	22542
857.664	22634
857.797	22611
857.931	22717
858.064	22557
858.197	22637
858.331	22561
858.464	22428
858.597	22474
858.731	22527
858.864	22436
858.997	22546
859.13	22588
859.263	22561
859.396	22706
859.529	22592
859.662	22500
859.795	22592
859.928	22542
860.061	22733
860.194	22748
860.327	22489
860.46	22622
860.592	22645
860.725	22774
860.858	22679
860.99	22504
861.123	22417
861.256	22443
861.388	22622
861.521	23197
861.653	22409
861.786	22299
861.918	22348
862.05	22371
862.183	22386
862.315	22516
862.447	22519
862.58	22379
862.712	22257
862.844	22238
862.976	22280
863.108	22287
863.24	22809
863.372	22219
863.504	22291
863.636	22272
863.768	22261
863.9	22398
864.032	22162
864.164	22246
864.296	22253
864.428	22371
864.559	22310
864.691	22276
864.823	22223
864.954	22242
865.086	22196
865.217	22234
865.349	22082
865.48	22135
865.612	21998
865.743	22280
865.875	22200
866.006	22097
866.137	22090
866.269	22128
866.4	22051
866.531	22139
866.662	22032
866.793	22013
866.924	22101
867.055	22090
867.186	22112
867.317	22032
867.448	22044
867.579	21994
867.71	21983
867.841	22017
867.972	22013
868.103	22082
868.233	22124
868.364	22002
868.495	22105
868.625	22344
868.756	22413
868.886	22284
869.017	22257
869.147	22337
869.278	22485
869.408	22310
869.539	22242
869.669	22394
869.799	22223
869.929	22451
870.06	22341
870.19	22660
870.32	22618
870.45	22546
870.58	22778
870.71	22843
870.84	22793
870.97	22577
871.1	22763
871.23	22847
871.36	22889
871.489	22828
871.619	22805
871.749	22812
871.879	22904
872.008	22927
872.138	22828
872.267	22961
872.397	22797
872.526	22729
872.656	22729
872.785	22615
872.915	23090
873.044	22987
873.173	22972
873.303	23044
873.432	22881
873.561	22972
873.69	22919
873.819	22965
873.948	22976
874.077	22930
874.206	22961
874.335	22824
874.464	23064
874.593	23307
874.722	23128
874.851	23223
874.979	23185
875.108	23170
875.237	23048
875.365	23014
875.494	23151
875.623	23269
875.751	23181
875.88	23166
876.008	23406
876.136	23299
876.265	23566
876.393	23733
876.521	23646
876.65	23623
876.778	23531
876.906	23425
877.034	23512
877.162	23581
877.29	23455
877.418	23630
877.546	23608
877.674	23463
877.802	23463
877.93	23364
878.058	23410
878.185	23379
878.313	23402
878.441	23383
878.568	23353
878.696	23444
878.824	23516
878.951	23570
879.079	23657
879.206	23634
879.333	23608
879.461	23414
879.588	23573
879.715	23634
879.842	23760
879.97	23573
880.097	23212
880.224	23322
880.351	23280
880.478	23311
880.605	23318
880.732	23223
880.859	23608
880.986	23254
881.112	23223
881.239	23121
881.366	23071
881.493	23025
881.619	22816
881.746	22869
881.872	22790
881.999	22812
882.125	22774
882.252	22664
882.378	22911
882.505	22896
882.631	22611
882.757	22584
882.883	22626
883.01	22573
883.136	22489
883.262	22402
883.388	22478
883.514	22656
883.64	22615
883.766	22470
883.892	22226
884.018	22284
884.143	22413
884.269	22580
884.395	22128
884.52	22265
884.646	22177
884.772	22147
884.897	22109
885.023	22188
885.148	22322
885.274	22405
885.399	22299
885.524	22257
885.65	22204
885.775	22097
885.9	22109
886.025	22265
886.15	22120
886.275	22219
886.4	22131
886.525	22097
886.65	22063
886.775	22082
886.9	22192
887.025	22478
887.149	22078
887.274	22025
887.399	21922
887.523	21972
887.648	21850
887.773	21728
887.897	22067
888.021	22067
888.146	21876
888.27	22010
888.395	22040
888.519	22002
888.643	21819
888.767	22002
888.891	21755
889.015	21781
889.139	21884
889.263	21835
889.387	21797
889.511	21960
889.635	21876
889.759	21713
889.883	21690
890.006	21819
890.13	21819
890.254	21747
890.377	21717
890.501	21439
890.624	21496
890.748	21580
890.871	21401
890.995	21211
891.118	21279
891.241	21329
891.364	21249
891.488	21329
891.611	21233
891.734	21351
891.857	21355
891.98	21279
892.103	21374
892.226	21310
892.349	21093
892.471	21104
892.594	21188
892.717	21157
892.839	21207
892.962	21108
893.085	21157
893.207	21169
893.33	20994
893.452	21093
893.575	21180
893.697	21138
893.819	21233
893.941	21245
894.064	21237
894.186	21081
894.308	21180
894.43	21230
894.552	21340
894.674	21195
894.796	21005
894.918	21096
895.04	21150
895.161	21142
895.283	21165
895.405	21070
895.526	21203
895.648	21108
895.769	21165
895.891	21157
896.012	21233
896.134	21237
896.255	21089
896.376	21024
896.498	20994
896.619	21077
896.74	21214
896.861	21154
896.982	21431
897.103	21523
897.224	21428
897.345	21355
897.466	21325
897.587	21317
897.708	21488
897.828	21462
897.949	21310
898.07	21123
898.19	21195
898.311	21382
898.431	21256
898.552	21256
898.672	21458
898.792	21545
898.913	21272
899.033	21268
899.153	21154
899.273	20937
899.393	21032
899.513	21142
899.633	21070
899.753	20971
899.873	20956
899.993	21024
900.113	20918
900.232	20921
900.352	21104
900.472	20906
900.591	20857
900.711	20902
900.83	20914
900.95	20861
901.069	20933
901.189	20587
901.308	20511
901.427	20412
901.546	20423
901.665	20442
901.784	20381
901.904	20275
902.023	20065
902.141	20046
902.26	20065
902.379	19989
902.498	20054
902.617	19868
902.735	20016
902.854	19868
902.973	19811
903.091	19537
903.21	19540
903.328	19419
903.446	19449
903.565	19358
903.683	19419
903.801	19137
903.919	19331
904.038	19377
904.156	19061
904.274	19107
904.392	19015
904.51	19122
904.627	19183
904.745	19072
904.863	19175
904.981	18973
905.098	18791
905.216	18776
905.334	18787
905.451	18757
905.569	18745
905.686	18856
905.803	18753
905.921	18547
906.038	18692
906.155	18540
906.272	18475
906.389	18574
906.506	18311
906.623	18441
906.74	18194
906.857	18155
906.974	18273
907.091	18334
907.208	18422
907.324	18304
907.441	18133
907.557	18102
907.674	17999
907.79	18060
907.907	18034
908.023	17977
908.139	17961
908.256	18026
908.372	17927
908.488	17863
908.604	17779
908.72	17699
908.836	17790
908.952	17630
909.068	17619
909.184	17847
909.3	17802
909.415	17783
909.531	17733
909.647	17463
909.762	17512
909.878	17360
909.993	17463
910.108	17372
910.224	17452
910.339	17406
910.454	17223
910.57	17273
910.685	17086
910.8	17353
910.915	17421
911.03	17303
911.145	17064
911.259	16980
911.374	17018
911.489	16949
911.604	16927
911.718	16736
911.833	16816
911.947	16687
912.062	16599
912.176	16797
912.291	16759
912.405	16752
912.519	16987
912.633	16911
912.748	16805
912.862	16710
912.976	16683
913.09	16527
913.204	16668
913.318	16493
913.431	16660
913.545	16725
913.659	16626
913.772	16367
913.886	16447
914	16341
914.113	16402
914.226	16451
914.34	16348
914.453	16272
914.566	16352
914.68	16329
914.793	16143
914.906	16048
915.019	15937
915.132	15937
915.245	15857
915.358	15972
915.47	15926
915.583	15884
915.696	16006
915.809	15918
915.921	16150
916.034	15934
916.146	15850
916.259	15823
916.371	15922
916.483	15876
916.595	15660
916.708	15808
916.82	15747
916.932	15774
917.044	15698
917.156	15545
917.268	15564
917.38	15519
917.491	15584
917.603	15644
917.715	15614
917.826	15545
917.938	15458
918.049	15435
918.161	15466
918.272	15606
918.384	15660
918.495	15511
918.606	15378
918.717	15272
918.828	15310
918.939	15378
919.05	15211
919.161	15298
919.272	15135
919.383	15195
919.494	15313
919.604	15485
919.715	15359
919.826	15188
919.936	15188
920.047	15279
920.157	15329
920.267	15439
920.378	15310
920.488	15211
920.598	15370
920.708	15599
920.818	15336
920.928	15412
921.038	15538
921.148	15443
921.258	15154
921.368	15165
921.477	15017
921.587	14914
921.697	14777
921.806	14975
921.916	14834
922.025	14670
922.134	14697
922.244	14499
922.353	14644
922.462	14541
922.571	14396
922.68	14332
922.789	14248
922.898	14202
923.007	14244
923.116	14324
923.224	14111
923.333	14256
923.442	14092
923.55	14100
923.659	14142
923.767	14138
923.876	13978
923.984	14084
924.092	13940
924.201	14054
924.309	13974
924.417	13932
924.525	13856
924.633	13856
924.741	14842
924.849	13666
924.956	13772
925.064	13681
925.172	13578
925.279	13651
925.387	13647
925.494	13632
925.602	13750
925.709	13704
925.816	13563
925.924	13563
926.031	13742
926.138	13556
926.245	13567
926.352	13476
926.459	13597
926.566	13704
926.673	13407
926.779	13335
926.886	13472
926.993	13251
927.099	13141
927.206	13187
927.312	13107
927.419	13137
927.525	13122
927.631	13129
927.737	13027
927.843	12928
927.95	12943
928.056	12928
928.162	13084
928.267	13053
928.373	13647
928.479	13042
928.585	12776
928.69	12859
928.796	12977
928.901	12871
929.007	12665
929.112	12844
929.218	12791
929.323	12642
929.428	12688
929.533	12837
929.638	12650
929.743	12654
929.848	12703
929.953	12608
930.058	12483
930.163	12380
930.267	12372
930.372	12540
930.477	12296
930.581	12574
930.685	12388
930.79	12213
930.894	12216
930.998	12140
931.103	12391
931.207	11988
931.311	11901
931.415	11809
931.519	11566
931.623	11623
