Data from test_V78500241_2014.txt Node
Date: Fri Mar 25 15:55:45 CST 2022
User: usil
Spectrometer: V785-0024
Trigger mode: 0
Integration Time (sec): 4.000000E-1
Scans to average: 1
Nonlinearity correction enabled: false
Boxcar width: 0
Storing dark spectrum: false
XAxis mode: Wavelengths
Number of Pixels in Spectrum: 1024
>>>>>Begin Spectral Data<<<<<
801.071	28447
801.214	28512
801.356	28109
801.499	28093
801.641	28112
801.783	28147
801.926	28226
802.068	27960
802.211	27998
802.353	27918
802.496	27728
802.638	27671
802.78	27736
802.923	27671
803.065	27724
803.208	27690
803.35	27850
803.492	28013
803.635	27846
803.777	27945
803.919	27926
804.061	28303
804.204	28101
804.346	27994
804.488	27857
804.63	27876
804.773	27861
804.915	27979
805.057	28101
805.199	27979
805.341	28105
805.483	28177
805.626	28109
805.768	28112
805.91	28154
806.052	28147
806.194	28021
806.336	28196
806.478	28082
806.62	28063
806.762	28128
806.904	28390
807.046	28733
807.188	28462
807.33	28375
807.472	28550
807.614	28405
807.756	28630
807.898	28405
808.04	28371
808.182	28322
808.324	28561
808.465	28466
808.607	28683
808.749	28694
808.891	28957
809.033	29067
809.174	28934
809.316	28820
809.458	28767
809.6	28752
809.741	28763
809.883	28839
810.025	29124
810.166	29109
810.308	29086
810.45	28965
810.591	28999
810.733	28729
810.875	28736
811.016	28725
811.158	28717
811.299	28843
811.441	28828
811.582	28930
811.724	28927
811.865	28774
812.007	28816
812.148	28805
812.29	28957
812.431	29052
812.573	29204
812.714	29193
812.855	29353
812.997	29406
813.138	29482
813.279	29505
813.421	29364
813.562	29440
813.703	29197
813.845	29067
813.986	28839
814.127	28672
814.268	28554
814.41	28489
814.551	28352
814.692	28634
814.833	28413
814.974	28466
815.115	28390
815.256	28314
815.397	28329
815.539	28371
815.68	28295
815.821	28196
815.962	28318
816.103	28306
816.244	28143
816.385	28097
816.526	28116
816.666	27850
816.807	27812
816.948	27876
817.089	27911
817.23	27785
817.371	27918
817.512	27743
817.653	27739
817.793	27854
817.934	27850
818.075	27930
818.216	27926
818.356	27580
818.497	27751
818.638	27473
818.778	27538
818.919	27694
819.06	27618
819.2	27713
819.341	27804
819.481	27690
819.622	27865
819.762	28093
819.903	27857
820.043	27953
820.184	27979
820.324	28002
820.465	28086
820.605	27911
820.746	27956
820.886	27914
821.026	27953
821.167	27842
821.307	28025
821.447	27827
821.588	27682
821.728	27599
821.868	27477
822.008	27302
822.149	27310
822.289	27252
822.429	27104
822.569	26906
822.709	27020
822.849	26838
822.99	26940
823.13	26731
823.27	26636
823.41	26514
823.55	26575
823.69	26549
823.83	26617
823.97	26575
824.11	26434
824.25	26530
824.389	26484
824.529	26507
824.669	26473
824.809	26457
824.949	26549
825.089	26583
825.228	26480
825.368	26317
825.508	26400
825.648	26351
825.787	26419
825.927	26374
826.067	26492
826.206	26218
826.346	26355
826.485	26377
826.625	26385
826.765	26419
826.904	26298
827.044	26214
827.183	26043
827.323	25974
827.462	26240
827.601	26134
827.741	26054
827.88	26115
828.02	26016
828.159	25871
828.298	26199
828.437	26069
828.577	25894
828.716	26103
828.855	25963
828.994	25845
829.134	25784
829.273	25795
829.412	25586
829.551	25567
829.69	25845
829.829	25712
829.968	25826
830.107	25765
830.246	25761
830.385	25643
830.524	25575
830.663	25567
830.802	25518
830.941	25187
831.08	25339
831.219	25289
831.357	25373
831.496	25575
831.635	25407
831.774	25301
831.913	25221
832.051	25190
832.19	25221
832.329	25015
832.467	24970
832.606	24989
832.744	25012
832.883	25023
833.022	24935
833.16	25042
833.299	25126
833.437	25103
833.576	25038
833.714	25046
833.852	25027
833.991	25069
834.129	25114
834.267	25198
834.406	25031
834.544	25183
834.682	25027
834.821	24932
834.959	25266
835.097	25095
835.235	25088
835.373	25202
835.511	24871
835.65	24909
835.788	24913
835.926	24802
836.064	24658
836.202	24749
836.34	24924
836.478	25023
836.615	24897
836.753	24973
836.891	24840
837.029	24829
837.167	24814
837.305	24741
837.443	24806
837.58	24764
837.718	24798
837.856	24795
837.993	24768
838.131	24787
838.269	24608
838.406	24654
838.544	24555
838.681	24327
838.819	24353
838.956	24266
839.094	24133
839.231	24243
839.369	24213
839.506	24528
839.643	24361
839.781	24220
839.918	24076
840.055	24251
840.193	24247
840.33	24030
840.467	24197
840.604	24194
840.742	24319
840.879	24003
841.016	23904
841.153	24091
841.29	24167
841.427	24076
841.564	24201
841.701	24034
841.838	24038
841.975	23969
842.112	23912
842.249	23885
842.385	23745
842.522	24087
842.659	23885
842.796	23878
842.933	23767
843.069	23874
843.206	23866
843.343	23935
843.479	23885
843.616	23889
843.752	23722
843.889	23661
844.025	23779
844.162	23695
844.298	23729
844.435	23741
844.571	23471
844.708	23775
844.844	23718
844.98	23745
845.117	23653
845.253	23524
845.389	23535
845.525	23585
845.661	23467
845.798	23459
845.934	23463
846.07	23440
846.206	23410
846.342	23562
846.478	23326
846.614	23265
846.75	23117
846.886	23083
847.022	23128
847.158	23189
847.294	22995
847.429	23102
847.565	23117
847.701	23311
847.837	22782
847.972	22881
848.108	22923
848.244	22984
848.379	22679
848.515	22736
848.65	22626
848.786	22592
848.921	22649
849.057	22793
849.192	22778
849.328	22759
849.463	22660
849.598	22721
849.734	22569
849.869	22489
850.004	22379
850.14	22443
850.275	22424
850.41	22242
850.545	22276
850.68	22363
850.815	22398
850.95	22367
851.085	22493
851.22	22451
851.355	22409
851.49	22443
851.625	22455
851.76	22417
851.895	22424
852.03	22402
852.165	22398
852.299	22390
852.434	22455
852.569	22462
852.703	22508
852.838	22386
852.973	22550
853.107	22462
853.242	22265
853.376	22249
853.511	22268
853.645	22150
853.78	22253
853.914	22341
854.048	22211
854.183	22207
854.317	22337
854.451	22535
854.585	22207
854.72	22173
854.854	22314
854.988	22188
855.122	22166
855.256	21964
855.39	22230
855.524	22291
855.658	22169
855.792	22306
855.926	22200
856.06	22230
856.194	22257
856.327	22200
856.461	22169
856.595	22276
856.729	22143
856.862	22367
856.996	22284
857.13	22360
857.263	22379
857.397	22310
857.53	22223
857.664	22185
857.797	22443
857.931	22280
858.064	22204
858.197	22272
858.331	22158
858.464	22226
858.597	22135
858.731	22314
858.864	22375
858.997	22215
859.13	22272
859.263	22200
859.396	22295
859.529	22131
859.662	22344
859.795	22333
859.928	22230
860.061	22310
860.194	22519
860.327	22268
860.46	22215
860.592	22299
860.725	22371
860.858	22276
860.99	22086
861.123	22059
861.256	22158
861.388	22276
861.521	23003
861.653	22078
861.786	22032
861.918	22147
862.05	22150
862.183	22253
862.315	22257
862.447	22177
862.58	22226
862.712	22025
862.844	21983
862.976	22067
863.108	22048
863.24	22554
863.372	21869
863.504	22051
863.636	22013
863.768	21987
863.9	21915
864.032	21785
864.164	21903
864.296	22048
864.428	22032
864.559	21987
864.691	21911
864.823	21930
864.954	21918
865.086	21937
865.217	21911
865.349	21846
865.48	21804
865.612	21831
865.743	22017
865.875	21873
866.006	21747
866.137	21911
866.269	21717
866.4	21759
866.531	21850
866.662	21759
866.793	21793
866.924	21823
867.055	21804
867.186	21648
867.317	21747
867.448	21770
867.579	21751
867.71	21641
867.841	21739
867.972	21789
868.103	21724
868.233	21667
868.364	21774
868.495	21827
868.625	22002
868.756	22036
868.886	21911
869.017	22101
869.147	22131
869.278	22074
869.408	22078
869.539	21960
869.669	22166
869.799	22048
869.929	22101
870.06	22078
870.19	22284
870.32	22314
870.45	22352
870.58	22424
870.71	22489
870.84	22478
870.97	22333
871.1	22417
871.23	22565
871.36	22603
871.489	22550
871.619	22603
871.749	22683
871.879	22573
872.008	22653
872.138	22622
872.267	22538
872.397	22436
872.526	22443
872.656	22531
872.785	22402
872.915	22508
873.044	22645
873.173	22554
873.303	22748
873.432	22675
873.561	22698
873.69	22691
873.819	22596
873.948	22656
874.077	22519
874.206	22531
874.335	22729
874.464	22729
874.593	22824
874.722	22820
874.851	22892
874.979	22805
875.108	22968
875.237	22733
875.365	22687
875.494	22816
875.623	22904
875.751	22908
875.88	22946
876.008	22816
876.136	22942
876.265	23231
876.393	23311
876.521	23231
876.65	23322
876.778	23151
876.906	23197
877.034	23223
877.162	23155
877.29	23041
877.418	23261
877.546	23284
877.674	23239
877.802	23117
877.93	23174
878.058	23117
878.185	23056
878.313	23181
878.441	23151
878.568	23044
878.696	23083
878.824	23200
878.951	23322
879.079	23410
879.206	23402
879.333	23258
879.461	23204
879.588	23273
879.715	23250
879.842	23360
879.97	23322
880.097	22987
880.224	23052
880.351	23025
880.478	23044
880.605	23018
880.732	22927
880.859	23174
880.986	22889
881.112	23056
881.239	22968
881.366	22698
881.493	22744
881.619	22603
881.746	22538
881.872	22565
881.999	22554
882.125	22386
882.252	22626
882.378	22455
882.505	22683
882.631	22371
882.757	22169
882.883	22295
883.01	22299
883.136	22211
883.262	22166
883.388	22116
883.514	22261
883.64	22306
883.766	22082
883.892	22101
884.018	22090
884.143	22246
884.269	22230
884.395	22082
884.52	21884
884.646	21922
884.772	21739
884.897	21686
885.023	21888
885.148	22021
885.274	22086
885.399	21987
885.524	21869
885.65	21876
885.775	21797
885.9	21861
886.025	21915
886.15	21911
886.275	21827
886.4	21793
886.525	21755
886.65	21797
886.775	21880
886.9	21861
887.025	22147
887.149	21838
887.274	21690
887.399	21606
887.523	21701
887.648	21625
887.773	21629
887.897	21656
888.021	21656
888.146	21561
888.27	21732
888.395	21686
888.519	21694
888.643	21660
888.767	21728
888.891	21542
889.015	21424
889.139	21553
889.263	21386
889.387	21481
889.511	21576
889.635	21587
889.759	21348
889.883	21538
890.006	21439
890.13	21458
890.254	21401
890.377	21287
890.501	21089
890.624	21268
890.748	21233
890.871	21077
890.995	20960
891.118	21013
891.241	20902
891.364	20883
891.488	21058
891.611	21013
891.734	20994
891.857	21093
891.98	20918
892.103	21043
892.226	21001
892.349	20937
892.471	20788
892.594	20925
892.717	20880
892.839	20815
892.962	20838
893.085	20918
893.207	20823
893.33	20750
893.452	20720
893.575	20967
893.697	20864
893.819	20967
893.941	21024
894.064	21001
894.186	20826
894.308	20823
894.43	20872
894.552	20876
894.674	20982
894.796	20773
894.918	20883
895.04	20758
895.161	20746
895.283	20800
895.405	20773
895.526	20929
895.648	20705
895.769	20853
895.891	20868
896.012	21043
896.134	20956
896.255	20838
896.376	20830
896.498	20876
896.619	20883
896.74	20769
896.861	20925
896.982	21165
897.103	21336
897.224	21104
897.345	21058
897.466	21055
897.587	21005
897.708	21214
897.828	21146
897.949	20979
898.07	20819
898.19	20880
898.311	21055
898.431	21070
898.552	21081
898.672	21218
898.792	21062
898.913	20960
899.033	20941
899.153	20849
899.273	20636
899.393	20834
899.513	20906
899.633	20868
899.753	20857
899.873	20579
899.993	20902
900.113	20838
900.232	20929
900.352	20765
900.472	20629
900.591	20545
900.711	20522
900.83	20568
900.95	20773
901.069	20621
901.189	20465
901.308	20149
901.427	20115
901.546	20225
901.665	20256
901.784	20065
901.904	19997
902.023	19780
902.141	19731
902.26	19571
902.379	19719
902.498	19620
902.617	19624
902.735	19712
902.854	19563
902.973	19567
903.091	19335
903.21	19312
903.328	19289
903.446	19206
903.565	19050
903.683	19126
903.801	19072
903.919	19061
904.038	19061
904.156	18916
904.274	18962
904.392	18939
904.51	18905
904.627	18882
904.745	18825
904.863	18920
904.981	18601
905.098	18544
905.216	18479
905.334	18574
905.451	18551
905.569	18551
905.686	18441
905.803	18521
905.921	18315
906.038	18369
906.155	18334
906.272	18228
906.389	18262
906.506	18125
906.623	18057
906.74	18007
906.857	17946
906.974	17893
907.091	18117
907.208	18174
907.324	18098
907.441	17946
907.557	17817
907.674	17885
907.79	17695
907.907	17684
908.023	17733
908.139	17802
908.256	17703
908.372	17710
908.488	17604
908.604	17463
908.72	17497
908.836	17528
908.952	17505
909.068	17486
909.184	17566
909.3	17459
909.415	17467
909.531	17455
909.647	17212
909.762	17166
909.878	17204
909.993	17155
910.108	17261
910.224	17018
910.339	17216
910.454	16968
910.57	16915
910.685	16976
910.8	17136
910.915	17121
911.03	16965
911.145	16908
911.259	16755
911.374	16862
911.489	16763
911.604	16687
911.718	16569
911.833	16519
911.947	16466
912.062	16291
912.176	16459
912.291	16481
912.405	16470
912.519	16668
912.633	16698
912.748	16546
912.862	16455
912.976	16325
913.09	16223
913.204	16299
913.318	16394
913.431	16363
913.545	16299
913.659	16504
913.772	16223
913.886	16097
914	16135
914.113	16109
914.226	16200
914.34	16185
914.453	15941
914.566	16055
914.68	15953
914.793	15934
914.906	15816
915.019	15724
915.132	15690
915.245	15633
915.358	15701
915.47	15637
915.583	15667
915.696	15762
915.809	15804
915.921	15854
916.034	15663
916.146	15599
916.259	15595
916.371	15641
916.483	15622
916.595	15530
916.708	15466
916.82	15622
916.932	15454
917.044	15439
917.156	15454
917.268	15291
917.38	15348
917.491	15298
917.603	15298
917.715	15435
917.826	15294
917.938	15317
918.049	15116
918.161	15287
918.272	15405
918.384	15332
918.495	15180
918.606	15108
918.717	15013
918.828	15154
918.939	15142
919.05	14998
919.161	15146
919.272	14925
919.383	14895
919.494	15081
919.604	15218
919.715	15036
919.826	14986
919.936	14994
920.047	15116
920.157	15104
920.267	15180
920.378	14921
920.488	14971
920.598	15192
920.708	15275
920.818	15135
920.928	15157
921.038	15260
921.148	15211
921.258	15085
921.368	14849
921.477	14800
921.587	14746
921.697	14537
921.806	14735
921.916	14701
922.025	14469
922.134	14381
922.244	14275
922.353	14400
922.462	14343
922.571	14195
922.68	14073
922.789	13986
922.898	14001
923.007	13940
923.116	14103
923.224	13993
923.333	13982
923.442	13887
923.55	13849
923.659	13814
923.767	13860
923.876	13750
923.984	13769
924.092	13807
924.201	13742
924.309	13658
924.417	13814
924.525	13662
924.633	13769
924.741	14450
924.849	13445
924.956	13590
925.064	13491
925.172	13346
925.279	13464
925.387	13403
925.494	13320
925.602	13449
925.709	13453
925.816	13346
925.924	13335
926.031	13403
926.138	13358
926.245	13426
926.352	13244
926.459	13270
926.566	13346
926.673	13164
926.779	13255
926.886	13076
926.993	12973
927.099	12947
927.206	12844
927.312	12840
927.419	13000
927.525	12916
927.631	12905
927.737	12829
927.843	12776
927.95	12753
928.056	12791
928.162	12764
928.267	12806
928.373	13430
928.479	12753
928.585	12563
928.69	12760
928.796	12783
928.901	12642
929.007	12532
929.112	12585
929.218	12551
929.323	12555
929.428	12486
929.533	12665
929.638	12422
929.743	12498
929.848	12490
929.953	12426
930.058	12304
930.163	12186
930.267	12155
930.372	12311
930.477	12155
930.581	12292
930.685	12209
930.79	12007
930.894	12060
930.998	11984
931.103	12175
931.207	11832
931.311	11767
931.415	11661
931.519	11486
931.623	11368
