Data from test_V78500241_3657.txt Node
Date: Fri Mar 25 16:07:08 CST 2022
User: usil
Spectrometer: V785-0024
Trigger mode: 0
Integration Time (sec): 4.000000E-1
Scans to average: 1
Nonlinearity correction enabled: false
Boxcar width: 0
Storing dark spectrum: false
XAxis mode: Wavelengths
Number of Pixels in Spectrum: 1024
>>>>>Begin Spectral Data<<<<<
801.071	28554
801.214	28584
801.356	28276
801.499	28196
801.641	28131
801.783	28074
801.926	28192
802.068	28276
802.211	28093
802.353	28051
802.496	27926
802.638	27774
802.78	27914
802.923	27656
803.065	27591
803.208	27736
803.35	27857
803.492	28013
803.635	27979
803.777	27759
803.919	28055
804.061	28421
804.204	28048
804.346	27934
804.488	28067
804.63	28078
804.773	27941
804.915	28044
805.057	28185
805.199	28036
805.341	28158
805.483	28219
805.626	28257
805.768	28128
805.91	28196
806.052	28242
806.194	28158
806.336	28284
806.478	28329
806.62	28204
806.762	28398
806.904	28538
807.046	28698
807.188	28634
807.33	28786
807.472	28596
807.614	28580
807.756	28649
807.898	28611
808.04	28398
808.182	28462
808.324	28599
808.465	28626
808.607	28683
808.749	28908
808.891	29044
809.033	29014
809.174	28995
809.316	29006
809.458	28923
809.6	29010
809.741	28938
809.883	28999
810.025	29246
810.166	29094
810.308	29277
810.45	29121
810.591	29010
810.733	29018
810.875	29098
811.016	28927
811.158	28843
811.299	29003
811.441	29003
811.582	29094
811.724	28957
811.865	28911
812.007	28881
812.148	28908
812.29	28976
812.431	29128
812.573	29356
812.714	29356
812.855	29307
812.997	29551
813.138	29512
813.279	29455
813.421	29440
813.562	29315
813.703	29356
813.845	29140
813.986	28744
814.127	28660
814.268	28569
814.41	28694
814.551	28675
814.692	28626
814.833	28618
814.974	28656
815.115	28630
815.256	28379
815.397	28603
815.539	28542
815.68	28436
815.821	28287
815.962	28409
816.103	28424
816.244	28299
816.385	28246
816.526	28124
816.666	28006
816.807	28048
816.948	28017
817.089	27975
817.23	27937
817.371	28002
817.512	27922
817.653	27926
817.793	27895
817.934	28006
818.075	27937
818.216	28006
818.356	27960
818.497	27895
818.638	27679
818.778	27766
818.919	27789
819.06	27671
819.2	27793
819.341	28029
819.481	28040
819.622	28101
819.762	28310
819.903	28173
820.043	28120
820.184	28265
820.324	28086
820.465	28097
820.605	28101
820.746	28017
820.886	27979
821.026	28162
821.167	28017
821.307	28143
821.447	27987
821.588	27934
821.728	27861
821.868	27447
822.008	27587
822.149	27462
822.289	27485
822.429	27123
822.569	26971
822.709	27104
822.849	26937
822.99	27032
823.13	26902
823.27	26819
823.41	26758
823.55	26663
823.69	26727
823.83	26807
823.97	26667
824.11	26488
824.25	26545
824.389	26708
824.529	26670
824.669	26568
824.809	26648
824.949	26697
825.089	26697
825.228	26663
825.368	26313
825.508	26294
825.648	26545
825.787	26549
825.927	26484
826.067	26571
826.206	26431
826.346	26606
826.485	26366
826.625	26537
826.765	26541
826.904	26488
827.044	26301
827.183	26271
827.323	26180
827.462	26271
827.601	26271
827.741	26195
827.88	26027
828.02	26088
828.159	26122
828.298	26043
828.437	26210
828.577	26107
828.716	26271
828.855	26225
828.994	25852
829.134	25928
829.273	25917
829.412	25986
829.551	25803
829.69	25852
829.829	25997
829.968	25887
830.107	25951
830.246	25833
830.385	25757
830.524	25822
830.663	25635
830.802	25575
830.941	25411
831.08	25445
831.219	25472
831.357	25582
831.496	25624
831.635	25495
831.774	25441
831.913	25312
832.051	25354
832.19	25282
832.329	25270
832.467	25164
832.606	25187
832.744	25095
832.883	25069
833.022	25179
833.16	25282
833.299	25114
833.437	25187
833.576	25236
833.714	25175
833.852	25297
833.991	25411
834.129	25194
834.267	25278
834.406	25213
834.544	25316
834.682	25148
834.821	25263
834.959	25335
835.097	25263
835.235	25320
835.373	25076
835.511	25110
835.65	25023
835.788	24985
835.926	24947
836.064	24844
836.202	24935
836.34	25156
836.478	24966
836.615	24970
836.753	25015
836.891	25008
837.029	24970
837.167	24935
837.305	24966
837.443	24901
837.58	24814
837.718	24985
837.856	25027
837.993	24810
838.131	24738
838.269	24783
838.406	24707
838.544	24604
838.681	24547
838.819	24452
838.956	24304
839.094	24433
839.231	24357
839.369	24551
839.506	24700
839.643	24429
839.781	24239
839.918	24319
840.055	24296
840.193	24342
840.33	24289
840.467	24205
840.604	24243
840.742	24490
840.879	23992
841.016	24213
841.153	24095
841.29	24327
841.427	24220
841.564	24327
841.701	24277
841.838	24220
841.975	24038
842.112	24098
842.249	24220
842.385	24003
842.522	24102
842.659	24091
842.796	24053
842.933	24003
843.069	23950
843.206	23885
843.343	24140
843.479	24038
843.616	23942
843.752	23859
843.889	23790
844.025	24011
844.162	23813
844.298	23798
844.435	23805
844.571	23828
844.708	23851
844.844	23946
844.98	23969
845.117	23882
845.253	23714
845.389	23630
845.525	23634
845.661	23592
845.798	23524
845.934	23589
846.07	23596
846.206	23528
846.342	23684
846.478	23467
846.614	23239
846.75	23166
846.886	23330
847.022	23311
847.158	23102
847.294	23307
847.429	23200
847.565	23166
847.701	23444
847.837	23025
847.972	22987
848.108	22961
848.244	23037
848.379	22790
848.515	22748
848.65	22812
848.786	22771
848.921	22828
849.057	22938
849.192	22854
849.328	22797
849.463	22869
849.598	22786
849.734	22771
849.869	22668
850.004	22599
850.14	22565
850.275	22577
850.41	22405
850.545	22485
850.68	22565
850.815	22569
850.95	22588
851.085	22660
851.22	22653
851.355	22653
851.49	22611
851.625	22618
851.76	22508
851.895	22561
852.03	22584
852.165	22508
852.299	22580
852.434	22736
852.569	22641
852.703	22626
852.838	22611
852.973	22740
853.107	22588
853.242	22588
853.376	22485
853.511	22287
853.645	22405
853.78	22455
853.914	22440
854.048	22371
854.183	22348
854.317	22322
854.451	22535
854.585	22386
854.72	22413
854.854	22565
854.988	22363
855.122	22356
855.256	22265
855.39	22360
855.524	22538
855.658	22466
855.792	22363
855.926	22592
856.06	22474
856.194	22504
856.327	22519
856.461	22268
856.595	22394
856.729	22348
856.862	22440
856.996	22459
857.13	22432
857.263	22573
857.397	22527
857.53	22314
857.664	22382
857.797	22455
857.931	22474
858.064	22432
858.197	22596
858.331	22409
858.464	22314
858.597	22424
858.731	22451
858.864	22375
858.997	22318
859.13	22367
859.263	22440
859.396	22577
859.529	22375
859.662	22322
859.795	22272
859.928	22474
860.061	22607
860.194	22611
860.327	22489
860.46	22295
860.592	22561
860.725	22649
860.858	22535
860.99	22390
861.123	22295
861.256	22284
861.388	22478
861.521	23159
861.653	22382
861.786	22105
861.918	22249
862.05	22230
862.183	22356
862.315	22253
862.447	22481
862.58	22314
862.712	22242
862.844	22070
862.976	22150
863.108	22131
863.24	22478
863.372	22044
863.504	22143
863.636	22135
863.768	22249
863.9	22116
864.032	22074
864.164	22101
864.296	22154
864.428	22257
864.559	22226
864.691	22223
864.823	22055
864.954	22044
865.086	22082
865.217	22128
865.349	21983
865.48	21983
865.612	21994
865.743	22070
865.875	22101
866.006	21857
866.137	21953
866.269	21945
866.4	22048
866.531	21895
866.662	21819
866.793	21945
866.924	21949
867.055	22010
867.186	21941
867.317	21926
867.448	21865
867.579	21888
867.71	21797
867.841	21831
867.972	21926
868.103	21876
868.233	21888
868.364	21899
868.495	21987
868.625	22196
868.756	22215
868.886	22093
869.017	22246
869.147	22306
869.278	22268
869.408	22265
869.539	22181
869.669	22230
869.799	22295
869.929	22287
870.06	22356
870.19	22394
870.32	22348
870.45	22512
870.58	22542
870.71	22656
870.84	22687
870.97	22561
871.1	22538
871.23	22698
871.36	22778
871.489	22717
871.619	22782
871.749	22771
871.879	22725
872.008	22949
872.138	22797
872.267	22847
872.397	22603
872.526	22504
872.656	22618
872.785	22649
872.915	22713
873.044	22885
873.173	22752
873.303	22858
873.432	22873
873.561	22877
873.69	22919
873.819	22820
873.948	22866
874.077	22828
874.206	22729
874.335	22702
874.464	22930
874.593	23090
874.722	22965
874.851	23029
874.979	23079
875.108	23075
875.237	22843
875.365	22877
875.494	23052
875.623	23098
875.751	22984
875.88	23117
876.008	23075
876.136	23052
876.265	23398
876.393	23535
876.521	23566
876.65	23459
876.778	23471
876.906	23307
877.034	23330
877.162	23387
877.29	23197
877.418	23273
877.546	23311
877.674	23296
877.802	23581
877.93	23383
878.058	23383
878.185	23121
878.313	23269
878.441	23299
878.568	23166
878.696	23318
878.824	23463
878.951	23459
879.079	23474
879.206	23649
879.333	23440
879.461	23543
879.588	23512
879.715	23558
879.842	23615
879.97	23444
880.097	23185
880.224	23200
880.351	23075
880.478	23143
880.605	23140
880.732	23189
880.859	23459
880.986	23235
881.112	23250
881.239	23010
881.366	22835
881.493	22873
881.619	22809
881.746	22729
881.872	22752
881.999	22733
882.125	22603
882.252	22702
882.378	22668
882.505	22828
882.631	22645
882.757	22462
882.883	22588
883.01	22569
883.136	22481
883.262	22352
883.388	22261
883.514	22409
883.64	22402
883.766	22303
883.892	22185
884.018	22280
884.143	22299
884.269	22504
884.395	22162
884.52	22017
884.646	22040
884.772	22070
884.897	21895
885.023	22204
885.148	22093
885.274	22154
885.399	22143
885.524	22109
885.65	22181
885.775	22082
885.9	21907
886.025	21975
886.15	22082
886.275	22032
886.4	21838
886.525	21964
886.65	22010
886.775	21937
886.9	22017
887.025	22226
887.149	21945
887.274	21884
887.399	21838
887.523	21876
887.648	21743
887.773	21842
887.897	21865
888.021	21846
888.146	21743
888.27	21899
888.395	21922
888.519	21800
888.643	21732
888.767	21819
888.891	21823
889.015	21663
889.139	21561
889.263	21682
889.387	21698
889.511	21808
889.635	21599
889.759	21572
889.883	21644
890.006	21720
890.13	21739
890.254	21488
890.377	21618
890.501	21325
890.624	21233
890.748	21355
890.871	21165
890.995	21169
891.118	21150
891.241	21256
891.364	21081
891.488	21336
891.611	21165
891.734	21123
891.857	21188
891.98	21108
892.103	20994
892.226	21119
892.349	21036
892.471	21039
892.594	21005
892.717	21100
892.839	20941
892.962	21043
893.085	21214
893.207	21028
893.33	20800
893.452	20944
893.575	21104
893.697	21077
893.819	21142
893.941	21237
894.064	21184
894.186	20895
894.308	20956
894.43	21013
894.552	21222
894.674	21131
894.796	20944
894.918	20906
895.04	20842
895.161	21157
895.283	21081
895.405	20902
895.526	21066
895.648	21051
895.769	20941
895.891	21135
896.012	21116
896.134	20998
896.255	21112
896.376	21047
896.498	21005
896.619	21138
896.74	20933
896.861	21116
896.982	21294
897.103	21462
897.224	21245
897.345	21245
897.466	21150
897.587	21203
897.708	21329
897.828	21176
897.949	21180
898.07	21096
898.19	21062
898.311	21294
898.431	21165
898.552	21173
898.672	21298
898.792	21237
898.913	21207
899.033	21032
899.153	21100
899.273	20967
899.393	20834
899.513	20994
899.633	20921
899.753	20883
899.873	20906
899.993	20914
900.113	20872
900.232	20842
900.352	20830
900.472	20735
900.591	20655
900.711	20826
900.83	20743
900.95	20887
901.069	20819
901.189	20579
901.308	20396
901.427	20298
901.546	20187
901.665	20229
901.784	20210
901.904	20176
902.023	20092
902.141	19814
902.26	19818
902.379	19909
902.498	19814
902.617	19788
902.735	19814
902.854	19826
902.973	19575
903.091	19533
903.21	19373
903.328	19438
903.446	19407
903.565	19202
903.683	19202
903.801	19114
903.919	19141
904.038	19126
904.156	19133
904.274	19050
904.392	18966
904.51	19072
904.627	19019
904.745	19027
904.863	19057
904.981	18856
905.098	18711
905.216	18654
905.334	18684
905.451	18795
905.569	18688
905.686	18764
905.803	18665
905.921	18384
906.038	18597
906.155	18388
906.272	18372
906.389	18433
906.506	18190
906.623	18209
906.74	18186
906.857	18102
906.974	18106
907.091	18224
907.208	18277
907.324	18281
907.441	18098
907.557	17885
907.674	17992
907.79	17821
907.907	18019
908.023	17988
908.139	17843
908.256	17942
908.372	17843
908.488	17775
908.604	17634
908.72	17562
908.836	17630
908.952	17528
909.068	17634
909.184	17707
909.3	17577
909.415	17627
909.531	17672
909.647	17356
909.762	17239
909.878	17269
909.993	17341
910.108	17334
910.224	17296
910.339	17174
910.454	17204
910.57	17064
910.685	16984
910.8	17334
910.915	17231
911.03	17121
911.145	16972
911.259	17018
911.374	16820
911.489	16900
911.604	16679
911.718	16664
911.833	16668
911.947	16546
912.062	16542
912.176	16592
912.291	16694
912.405	16599
912.519	16790
912.633	16679
912.748	16691
912.862	16516
912.976	16466
913.09	16333
913.204	16413
913.318	16428
913.431	16531
913.545	16592
913.659	16512
913.772	16497
913.886	16238
914	16158
914.113	16356
914.226	16363
914.34	16261
914.453	16139
914.566	16249
914.68	16105
914.793	15987
914.906	15964
915.019	15956
915.132	15816
915.245	15789
915.358	15823
915.47	15903
915.583	15789
915.696	15759
915.809	15895
915.921	15960
916.034	15797
916.146	15610
916.259	15648
916.371	15846
916.483	15812
916.595	15728
916.708	15595
916.82	15629
916.932	15622
917.044	15622
917.156	15515
917.268	15321
917.38	15462
917.491	15462
917.603	15397
917.715	15564
917.826	15435
917.938	15443
918.049	15256
918.161	15416
918.272	15477
918.384	15469
918.495	15279
918.606	15066
918.717	15119
918.828	15268
918.939	15256
919.05	15089
919.161	15127
919.272	14937
919.383	15112
919.494	15150
919.604	15447
919.715	15165
919.826	15024
919.936	15081
920.047	15268
920.157	15112
920.267	15279
920.378	15066
920.488	15135
920.598	15340
920.708	15492
920.818	15233
920.928	15275
921.038	15408
921.148	15287
921.258	15062
921.368	15058
921.477	14800
921.587	14815
921.697	14697
921.806	14902
921.916	14655
922.025	14568
922.134	14537
922.244	14362
922.353	14659
922.462	14385
922.571	14339
922.68	14138
922.789	14073
922.898	14096
923.007	14073
923.116	14256
923.224	14111
923.333	14073
923.442	13967
923.55	13909
923.659	13955
923.767	14020
923.876	13921
923.984	13913
924.092	13894
924.201	13940
924.309	13951
924.417	13803
924.525	13753
924.633	13765
924.741	14727
924.849	13662
924.956	13750
925.064	13518
925.172	13422
925.279	13525
925.387	13510
925.494	13537
925.602	13643
925.709	13533
925.816	13335
925.924	13422
926.031	13510
926.138	13441
926.245	13537
926.352	13445
926.459	13506
926.566	13537
926.673	13327
926.779	13232
926.886	13289
926.993	13107
927.099	13164
927.206	13050
927.312	13038
927.419	13103
927.525	13065
927.631	13110
927.737	12970
927.843	12932
927.95	12829
928.056	12848
928.162	12939
928.267	13080
928.373	13563
928.479	12985
928.585	12749
928.69	12848
928.796	12932
928.901	12840
929.007	12658
929.112	12817
929.218	12779
929.323	12612
929.428	12646
929.533	12844
929.638	12506
929.743	12582
929.848	12658
929.953	12517
930.058	12532
930.163	12292
930.267	12281
930.372	12422
930.477	12311
930.581	12448
930.685	12292
930.79	12152
930.894	12277
930.998	12194
931.103	12323
931.207	11866
931.311	11855
931.415	11821
931.519	11581
931.623	11562
