Data from test_V78500241_1061.txt Node
Date: Fri Mar 25 15:49:09 CST 2022
User: usil
Spectrometer: V785-0024
Trigger mode: 0
Integration Time (sec): 4.000000E-1
Scans to average: 1
Nonlinearity correction enabled: false
Boxcar width: 0
Storing dark spectrum: false
XAxis mode: Wavelengths
Number of Pixels in Spectrum: 1024
>>>>>Begin Spectral Data<<<<<
801.071	28147
801.214	28124
801.356	27956
801.499	27838
801.641	27705
801.783	27713
801.926	27751
802.068	27827
802.211	27583
802.353	27500
802.496	27351
802.638	27367
802.78	27359
802.923	27310
803.065	27359
803.208	27367
803.35	27348
803.492	27500
803.635	27431
803.777	27504
803.919	27557
804.061	27869
804.204	27549
804.346	27519
804.488	27359
804.63	27355
804.773	27389
804.915	27644
805.057	27568
805.199	27572
805.341	27625
805.483	27759
805.626	27819
805.768	27694
805.91	27762
806.052	27747
806.194	27736
806.336	27956
806.478	27945
806.62	27713
806.762	27778
806.904	28010
807.046	28303
807.188	28116
807.33	28109
807.472	28303
807.614	28112
807.756	28029
807.898	28154
808.04	27949
808.182	28044
808.324	27987
808.465	27964
808.607	28158
808.749	28287
808.891	28428
809.033	28428
809.174	28382
809.316	28466
809.458	28322
809.6	28272
809.741	28481
809.883	28557
810.025	28516
810.166	28577
810.308	28736
810.45	28634
810.591	28565
810.733	28310
810.875	28466
811.016	28234
811.158	28253
811.299	28337
811.441	28538
811.582	28512
811.724	28432
811.865	28447
812.007	28363
812.148	28466
812.29	28314
812.431	28531
812.573	28763
812.714	28797
812.855	28896
812.997	28999
813.138	29166
813.279	29060
813.421	28904
813.562	28885
813.703	28748
813.845	28702
813.986	28356
814.127	28154
814.268	28116
814.41	28090
814.551	28067
814.692	28135
814.833	28082
814.974	28185
815.115	28116
815.256	28010
815.397	28166
815.539	28006
815.68	27854
815.821	27789
815.962	27827
816.103	27945
816.244	27808
816.385	27682
816.526	27622
816.666	27572
816.807	27374
816.948	27420
817.089	27580
817.23	27477
817.371	27336
817.512	27473
817.653	27488
817.793	27367
817.934	27401
818.075	27458
818.216	27515
818.356	27310
818.497	27313
818.638	27157
818.778	27165
818.919	27180
819.06	27256
819.2	27176
819.341	27443
819.481	27393
819.622	27603
819.762	27686
819.903	27679
820.043	27652
820.184	27435
820.324	27443
820.465	27591
820.605	27568
820.746	27557
820.886	27393
821.026	27542
821.167	27492
821.307	27515
821.447	27382
821.588	27317
821.728	27222
821.868	27062
822.008	26902
822.149	26861
822.289	26902
822.429	26602
822.569	26442
822.709	26594
822.849	26412
822.99	26385
823.13	26438
823.27	26343
823.41	26126
823.55	25997
823.69	26172
823.83	26180
823.97	26267
824.11	26081
824.25	25951
824.389	26046
824.529	26153
824.669	25989
824.809	26263
824.949	26001
825.089	26225
825.228	26081
825.368	25879
825.508	25875
825.648	25845
825.787	25909
825.927	25963
826.067	25875
826.206	25833
826.346	26031
826.485	25936
826.625	26016
826.765	25997
826.904	26103
827.044	25643
827.183	25643
827.323	25525
827.462	25628
827.601	25639
827.741	25529
827.88	25613
828.02	25552
828.159	25635
828.298	25567
828.437	25727
828.577	25605
828.716	25651
828.855	25525
828.994	25403
829.134	25396
829.273	25259
829.412	25266
829.551	25179
829.69	25232
829.829	25411
829.968	25479
830.107	25415
830.246	25479
830.385	25217
830.524	25255
830.663	25164
830.802	24966
830.941	24985
831.08	24821
831.219	25042
831.357	24905
831.496	25209
831.635	24958
831.774	25000
831.913	24616
832.051	24734
832.19	24798
832.329	24722
832.467	24585
832.606	24532
832.744	24544
832.883	24631
833.022	24498
833.16	24684
833.299	24669
833.437	24654
833.576	24677
833.714	24696
833.852	24639
833.991	24658
834.129	24768
834.267	24764
834.406	24612
834.544	24764
834.682	24726
834.821	24623
834.959	24806
835.097	24604
835.235	24783
835.373	24604
835.511	24608
835.65	24399
835.788	24441
835.926	24342
836.064	24311
836.202	24304
836.34	24418
836.478	24582
836.615	24403
836.753	24494
836.891	24570
837.029	24369
837.167	24361
837.305	24414
837.443	24357
837.58	24254
837.718	24281
837.856	24338
837.993	24148
838.131	24300
838.269	24201
838.406	24155
838.544	24136
838.681	23908
838.819	23847
838.956	23824
839.094	23627
839.231	23832
839.369	23840
839.506	24254
839.643	24083
839.781	23885
839.918	23596
840.055	23707
840.193	23707
840.33	23642
840.467	23779
840.604	23726
840.742	23965
840.879	23467
841.016	23672
841.153	23501
841.29	23824
841.427	23684
841.564	23714
841.701	23726
841.838	23699
841.975	23562
842.112	23600
842.249	23596
842.385	23353
842.522	23649
842.659	23547
842.796	23452
842.933	23387
843.069	23410
843.206	23353
843.343	23433
843.479	23395
843.616	23570
843.752	23185
843.889	23280
844.025	23254
844.162	23280
844.298	23250
844.435	23273
844.571	23128
844.708	23284
844.844	23421
844.98	23345
845.117	23246
845.253	23181
845.389	23185
845.525	22953
845.661	23067
845.798	22957
845.934	22976
846.07	22930
846.206	22961
846.342	23003
846.478	22805
846.614	22713
846.75	22592
846.886	22782
847.022	22767
847.158	22603
847.294	22736
847.429	22698
847.565	22740
847.701	22885
847.837	22371
847.972	22337
848.108	22424
848.244	22500
848.379	22299
848.515	22196
848.65	22188
848.786	22230
848.921	22253
849.057	22276
849.192	22253
849.328	22272
849.463	22246
849.598	22242
849.734	22116
849.869	22150
850.004	22055
850.14	22135
850.275	22082
850.41	21918
850.545	21835
850.68	22059
850.815	22074
850.95	21922
851.085	22223
851.22	22219
851.355	21968
851.49	22124
851.625	22006
851.76	22048
851.895	22002
852.03	21888
852.165	22063
852.299	22150
852.434	22025
852.569	21880
852.703	21994
852.838	22082
852.973	22109
853.107	22196
853.242	21934
853.376	21934
853.511	21720
853.645	21884
853.78	21964
853.914	21846
854.048	21804
854.183	21762
854.317	21926
854.451	21994
854.585	21873
854.72	21964
854.854	21850
854.988	21846
855.122	21884
855.256	21652
855.39	21857
855.524	21835
855.658	21846
855.792	21918
855.926	21884
856.06	21869
856.194	21846
856.327	21751
856.461	21823
856.595	21835
856.729	21850
856.862	21857
856.996	21911
857.13	21987
857.263	21975
857.397	21968
857.53	21728
857.664	21907
857.797	21960
857.931	21979
858.064	21873
858.197	21991
858.331	21827
858.464	21736
858.597	21800
858.731	21789
858.864	21781
858.997	21675
859.13	21797
859.263	21812
859.396	21895
859.529	21781
859.662	21736
859.795	21816
859.928	21800
860.061	21930
860.194	21991
860.327	21899
860.46	21850
860.592	22025
860.725	21953
860.858	21899
860.99	21846
861.123	21762
861.256	21831
861.388	21797
861.521	22626
861.653	21785
861.786	21622
861.918	21637
862.05	21724
862.183	21736
862.315	21838
862.447	21876
862.58	21797
862.712	21500
862.844	21435
862.976	21656
863.108	21603
863.24	21892
863.372	21401
863.504	21500
863.636	21511
863.768	21549
863.9	21553
864.032	21428
864.164	21473
864.296	21496
864.428	21663
864.559	21690
864.691	21431
864.823	21686
864.954	21610
865.086	21538
865.217	21378
865.349	21332
865.48	21447
865.612	21424
865.743	21500
865.875	21454
866.006	21481
866.137	21496
866.269	21488
866.4	21310
866.531	21389
866.662	21378
866.793	21355
866.924	21378
867.055	21557
867.186	21382
867.317	21488
867.448	21199
867.579	21287
867.71	21237
867.841	21291
867.972	21355
868.103	21458
868.233	21317
868.364	21363
868.495	21530
868.625	21629
868.756	21637
868.886	21542
869.017	21466
869.147	21679
869.278	21728
869.408	21576
869.539	21694
869.669	21770
869.799	21610
869.929	21831
870.06	21728
870.19	21884
870.32	21941
870.45	21876
870.58	22025
870.71	22131
870.84	22040
870.97	21998
871.1	22135
871.23	22272
871.36	22265
871.489	22131
871.619	22097
871.749	22078
871.879	22261
872.008	22386
872.138	22177
872.267	22162
872.397	22074
872.526	22021
872.656	21987
872.785	22044
872.915	22261
873.044	22249
873.173	22249
873.303	22329
873.432	22356
873.561	22341
873.69	22280
873.819	22253
873.948	22261
874.077	22257
874.206	22207
874.335	22257
874.464	22325
874.593	22443
874.722	22451
874.851	22542
874.979	22459
875.108	22546
875.237	22542
875.365	22428
875.494	22333
875.623	22580
875.751	22421
875.88	22462
876.008	22497
876.136	22573
876.265	22771
876.393	23010
876.521	22824
876.65	22957
876.778	22862
876.906	22687
877.034	22790
877.162	22706
877.29	22660
877.418	22721
877.546	22767
877.674	22858
877.802	22847
877.93	22744
878.058	22778
878.185	22599
878.313	22850
878.441	22752
878.568	22664
878.696	22649
878.824	22713
878.951	22812
879.079	22949
879.206	23094
879.333	22957
879.461	22850
879.588	22782
879.715	22881
879.842	23113
879.97	22805
880.097	22580
880.224	22546
880.351	22637
880.478	22660
880.605	22561
880.732	22660
880.859	22683
880.986	22626
881.112	22691
881.239	22421
881.366	22280
881.493	22219
881.619	22265
881.746	22287
881.872	22192
881.999	22093
882.125	22101
882.252	22230
882.378	22158
882.505	22322
882.631	22010
882.757	21800
882.883	21991
883.01	21884
883.136	21819
883.262	21774
883.388	21751
883.514	21827
883.64	21915
883.766	21759
883.892	21572
884.018	21770
884.143	21812
884.269	21888
884.395	21572
884.52	21538
884.646	21580
884.772	21504
884.897	21348
885.023	21496
885.148	21599
885.274	21667
885.399	21675
885.524	21424
885.65	21466
885.775	21515
885.9	21530
886.025	21530
886.15	21618
886.275	21443
886.4	21450
886.525	21393
886.65	21401
886.775	21504
886.9	21633
887.025	21774
887.149	21370
887.274	21378
887.399	21332
887.523	21260
887.648	21108
887.773	21135
887.897	21370
888.021	21351
888.146	21275
888.27	21344
888.395	21500
888.519	21325
888.643	21298
888.767	21214
888.891	21127
889.015	21108
889.139	21024
889.263	21047
889.387	21119
889.511	21199
889.635	21157
889.759	20963
889.883	21150
890.006	21142
890.13	21138
890.254	20998
890.377	20979
890.501	20830
890.624	20819
890.748	20853
890.871	20659
890.995	20602
891.118	20469
891.241	20651
891.364	20579
891.488	20765
891.611	20724
891.734	20674
891.857	20689
891.98	20629
892.103	20629
892.226	20560
892.349	20545
892.471	20396
892.594	20571
892.717	20625
892.839	20549
892.962	20549
893.085	20602
893.207	20636
893.33	20461
893.452	20484
893.575	20549
893.697	20488
893.819	20629
893.941	20724
894.064	20636
894.186	20381
894.308	20461
894.43	20648
894.552	20617
894.674	20651
894.796	20377
894.918	20442
895.04	20484
895.161	20545
895.283	20617
895.405	20476
895.526	20454
895.648	20507
895.769	20564
895.891	20552
896.012	20670
896.134	20503
896.255	20598
896.376	20503
896.498	20522
896.619	20579
896.74	20560
896.861	20579
896.982	20834
897.103	20975
897.224	20750
897.345	20781
897.466	20655
897.587	20720
897.708	20819
897.828	20773
897.949	20678
898.07	20629
898.19	20659
898.311	20765
898.431	20708
898.552	20712
898.672	20819
898.792	20796
898.913	20644
899.033	20830
899.153	20518
899.273	20320
899.393	20545
899.513	20564
899.633	20495
899.753	20484
899.873	20446
899.993	20579
900.113	20385
900.232	20427
900.352	20431
900.472	20324
900.591	20240
900.711	20202
900.83	20157
900.95	20309
901.069	20320
901.189	20027
901.308	19963
901.427	19841
901.546	19845
901.665	19826
901.784	19883
901.904	19696
902.023	19651
902.141	19400
902.26	19358
902.379	19487
902.498	19206
902.617	19297
902.735	19327
902.854	19266
902.973	19373
903.091	19050
903.21	19031
903.328	19084
903.446	18913
903.565	18852
903.683	18776
903.801	18810
903.919	18776
904.038	18734
904.156	18486
904.274	18669
904.392	18521
904.51	18399
904.627	18555
904.745	18475
904.863	18536
904.981	18342
905.098	18304
905.216	18216
905.334	18205
905.451	18197
905.569	18213
905.686	18327
905.803	18140
905.921	17999
906.038	18007
906.155	18019
906.272	17920
906.389	17897
906.506	17836
906.623	17752
906.74	17764
906.857	17726
906.974	17695
907.091	17794
907.208	17764
907.324	17722
907.441	17638
907.557	17463
907.674	17505
907.79	17345
907.907	17417
908.023	17478
908.139	17444
908.256	17436
908.372	17410
908.488	17395
908.604	17277
908.72	17185
908.836	17174
908.952	17147
909.068	17189
909.184	17406
909.3	17280
909.415	17208
909.531	17261
909.647	17029
909.762	16911
909.878	16858
909.993	16892
910.108	16793
910.224	16911
910.339	16839
910.454	16706
910.57	16778
910.685	16611
910.8	16892
910.915	16778
911.03	16607
911.145	16573
911.259	16527
911.374	16497
911.489	16436
911.604	16314
911.718	16314
911.833	16207
911.947	16242
912.062	16055
912.176	16306
912.291	16287
912.405	16257
912.519	16344
912.633	16360
912.748	16219
912.862	16215
912.976	16036
913.09	16002
913.204	15945
913.318	16021
913.431	16082
913.545	16177
913.659	16010
913.772	16051
913.886	15869
914	15770
914.113	15838
914.226	15979
914.34	15903
914.453	15751
914.566	15960
914.68	15728
914.793	15736
914.906	15462
915.019	15454
915.132	15412
915.245	15351
915.358	15397
915.47	15412
915.583	15367
915.696	15439
915.809	15595
915.921	15526
916.034	15450
916.146	15279
916.259	15355
916.371	15374
916.483	15355
916.595	15199
916.708	15275
916.82	15302
916.932	15268
917.044	15260
917.156	15287
917.268	15024
917.38	15108
917.491	14948
917.603	15085
917.715	15116
917.826	15142
917.938	14941
918.049	14872
918.161	15005
918.272	15180
918.384	15169
918.495	14982
918.606	14887
918.717	14845
918.828	14857
918.939	14902
919.05	14739
919.161	14754
919.272	14640
919.383	14659
919.494	14781
919.604	14944
919.715	14712
919.826	14697
919.936	14823
920.047	14765
920.157	14861
920.267	14956
920.378	14815
920.488	14750
920.598	14918
920.708	15047
920.818	14906
920.928	14880
921.038	15116
921.148	15005
921.258	14765
921.368	14541
921.477	14518
921.587	14625
921.697	14362
921.806	14507
921.916	14336
922.025	14282
922.134	14176
922.244	14027
922.353	14107
922.462	13928
922.571	13932
922.68	13841
922.789	13776
922.898	13799
923.007	13807
923.116	13807
923.224	13814
923.333	13681
923.442	13666
923.55	13639
923.659	13670
923.767	13624
923.876	13487
923.984	13727
924.092	13468
924.201	13632
924.309	13434
924.417	13491
924.525	13495
924.633	13407
924.741	14195
924.849	13289
924.956	13403
925.064	13202
925.172	13129
925.279	13251
925.387	13251
925.494	13190
925.602	13251
925.709	13266
925.816	13015
925.924	13088
926.031	13228
926.138	13088
926.245	13152
926.352	13114
926.459	13133
926.566	13194
926.673	13080
926.779	12993
926.886	12897
926.993	12833
927.099	12764
927.206	12738
927.312	12673
927.419	12806
927.525	12772
927.631	12837
927.737	12589
927.843	12658
927.95	12528
928.056	12525
928.162	12483
928.267	12593
928.373	13103
928.479	12654
928.585	12445
928.69	12479
928.796	12574
928.901	12452
929.007	12334
929.112	12422
929.218	12429
929.323	12304
929.428	12273
929.533	12395
929.638	12243
929.743	12194
929.848	12277
929.953	12247
930.058	12178
930.163	11954
930.267	11980
930.372	12114
930.477	11980
930.581	12205
930.685	11984
930.79	11882
930.894	11889
930.998	11863
931.103	11908
931.207	11589
931.311	11524
931.415	11440
931.519	11220
931.623	11193
