Data from test_V78500241_545.txt Node
Date: Fri Mar 25 15:45:34 CST 2022
User: usil
Spectrometer: V785-0024
Trigger mode: 0
Integration Time (sec): 4.000000E-1
Scans to average: 1
Nonlinearity correction enabled: false
Boxcar width: 0
Storing dark spectrum: false
XAxis mode: Wavelengths
Number of Pixels in Spectrum: 1024
>>>>>Begin Spectral Data<<<<<
801.071	27694
801.214	27656
801.356	27447
801.499	27249
801.641	27367
801.783	27272
801.926	27241
802.068	27298
802.211	27119
802.353	27081
802.496	26960
802.638	26902
802.78	26929
802.923	26842
803.065	26899
803.208	26880
803.35	26990
803.492	26982
803.635	27013
803.777	26956
803.919	27043
804.061	27424
804.204	27062
804.346	26895
804.488	26940
804.63	27058
804.773	26956
804.915	27222
805.057	27245
805.199	26899
805.341	27127
805.483	27336
805.626	27351
805.768	27066
805.91	27207
806.052	27283
806.194	27283
806.336	27439
806.478	27268
806.62	27199
806.762	27317
806.904	27439
807.046	27652
807.188	27603
807.33	27545
807.472	27812
807.614	27625
807.756	27473
807.898	27511
808.04	27412
808.182	27485
808.324	27458
808.465	27530
808.607	27606
808.749	27739
808.891	27991
809.033	28173
809.174	27918
809.316	27884
809.458	27842
809.6	27823
809.741	27854
809.883	28002
810.025	28276
810.166	28219
810.308	28074
810.45	28006
810.591	28078
810.733	27835
810.875	27850
811.016	27682
811.158	27797
811.299	28105
811.441	28070
811.582	28059
811.724	27873
811.865	27850
812.007	27831
812.148	27793
812.29	27888
812.431	28109
812.573	28272
812.714	28417
812.855	28382
812.997	28531
813.138	28611
813.279	28478
813.421	28462
813.562	28360
813.703	28200
813.845	28109
813.986	27797
814.127	27743
814.268	27477
814.41	27591
814.551	27412
814.692	27580
814.833	27393
814.974	27397
815.115	27412
815.256	27389
815.397	27355
815.539	27447
815.68	27382
815.821	27237
815.962	27302
816.103	27336
816.244	27176
816.385	27176
816.526	27096
816.666	26921
816.807	26644
816.948	26830
817.089	26861
817.23	26891
817.371	26838
817.512	26792
817.653	26689
817.793	26613
817.934	26701
818.075	26720
818.216	26845
818.356	26708
818.497	26838
818.638	26659
818.778	26590
818.919	26606
819.06	26609
819.2	26727
819.341	26765
819.481	26834
819.622	26921
819.762	27116
819.903	27104
820.043	26940
820.184	26864
820.324	26933
820.465	27013
820.605	27013
820.746	26864
820.886	26834
821.026	26868
821.167	26701
821.307	26929
821.447	26739
821.588	26731
821.728	26750
821.868	26541
822.008	26271
822.149	26393
822.289	26412
822.429	26035
822.569	25894
822.709	25966
822.849	25852
822.99	25814
823.13	25799
823.27	25833
823.41	25651
823.55	25605
823.69	25689
823.83	25643
823.97	25620
824.11	25320
824.25	25419
824.389	25377
824.529	25441
824.669	25331
824.809	25537
824.949	25495
825.089	25491
825.228	25537
825.368	25392
825.508	25350
825.648	25324
825.787	25202
825.927	25362
826.067	25221
826.206	25308
826.346	25354
826.485	25476
826.625	25312
826.765	25384
826.904	25331
827.044	24977
827.183	25023
827.323	24977
827.462	25038
827.601	24951
827.741	25088
827.88	24985
828.02	24890
828.159	24992
828.298	24928
828.437	25053
828.577	25053
828.716	25057
828.855	24977
828.994	24700
829.134	24574
829.273	24829
829.412	24684
829.551	24593
829.69	24627
829.829	24654
829.968	24673
830.107	24787
830.246	24749
830.385	24627
830.524	24658
830.663	24559
830.802	24395
830.941	24330
831.08	24213
831.219	24365
831.357	24323
831.496	24601
831.635	24342
831.774	24209
831.913	24114
832.051	24140
832.19	24091
832.329	24003
832.467	23950
832.606	23855
832.744	23908
832.883	23821
833.022	23832
833.16	24072
833.299	24041
833.437	23992
833.576	24174
833.714	24083
833.852	24079
833.991	24053
834.129	24171
834.267	24133
834.406	24038
834.544	24030
834.682	24026
834.821	24076
834.959	24136
835.097	24034
835.235	24098
835.373	23980
835.511	23977
835.65	23874
835.788	23904
835.926	23718
836.064	23710
836.202	23855
836.34	23984
836.478	23931
836.615	23863
836.753	23923
836.891	23874
837.029	23790
837.167	23733
837.305	23741
837.443	23573
837.58	23615
837.718	23779
837.856	23661
837.993	23676
838.131	23623
838.269	23687
838.406	23638
838.544	23581
838.681	23364
838.819	23242
838.956	23170
839.094	23029
839.231	23277
839.369	23353
839.506	23573
839.643	23482
839.781	23143
839.918	23056
840.055	23250
840.193	23239
840.33	23060
840.467	23143
840.604	23033
840.742	23360
840.879	23014
841.016	23143
841.153	22965
841.29	23159
841.427	23090
841.564	23056
841.701	23056
841.838	22961
841.975	22961
842.112	22957
842.249	22968
842.385	22831
842.522	23155
842.659	22949
842.796	22896
842.933	22763
843.069	22736
843.206	22866
843.343	23006
843.479	22649
843.616	22786
843.752	22611
843.889	22683
844.025	22713
844.162	22603
844.298	22679
844.435	22580
844.571	22489
844.708	22592
844.844	22805
844.98	22691
845.117	22584
845.253	22531
845.389	22557
845.525	22474
845.661	22489
845.798	22421
845.934	22329
846.07	22375
846.206	22402
846.342	22508
846.478	22360
846.614	22090
846.75	21972
846.886	22021
847.022	22169
847.158	21991
847.294	22078
847.429	22143
847.565	22055
847.701	22257
847.837	21922
847.972	21751
848.108	21743
848.244	21941
848.379	21720
848.515	21717
848.65	21564
848.786	21504
848.921	21762
849.057	21717
849.192	21694
849.328	21675
849.463	21614
849.598	21557
849.734	21610
849.869	21530
850.004	21431
850.14	21332
850.275	21507
850.41	21321
850.545	21340
850.68	21329
850.815	21439
850.95	21469
851.085	21663
851.22	21496
851.355	21351
851.49	21469
851.625	21275
851.76	21450
851.895	21416
852.03	21218
852.165	21393
852.299	21416
852.434	21576
852.569	21492
852.703	21310
852.838	21492
852.973	21500
853.107	21595
853.242	21393
853.376	21157
853.511	21180
853.645	21135
853.78	21370
853.914	21203
854.048	21348
854.183	21211
854.317	21256
854.451	21412
854.585	21275
854.72	21272
854.854	21310
854.988	21268
855.122	21336
855.256	21005
855.39	21252
855.524	21310
855.658	21408
855.792	21310
855.926	21313
856.06	21275
856.194	21241
856.327	21313
856.461	21275
856.595	21287
856.729	21287
856.862	21283
856.996	21211
857.13	21367
857.263	21416
857.397	21393
857.53	21302
857.664	21412
857.797	21340
857.931	21332
858.064	21310
858.197	21393
858.331	21237
858.464	21199
858.597	21036
858.731	21123
858.864	21249
858.997	21195
859.13	21317
859.263	21336
859.396	21268
859.529	21359
859.662	21218
859.795	21310
859.928	21310
860.061	21393
860.194	21549
860.327	21317
860.46	21310
860.592	21340
860.725	21412
860.858	21332
860.99	21359
861.123	21230
861.256	21260
861.388	21298
861.521	21979
861.653	21150
861.786	21051
861.918	21157
862.05	21154
862.183	21051
862.315	21306
862.447	21283
862.58	21180
862.712	20948
862.844	20963
862.976	21169
863.108	20986
863.24	21393
863.372	20952
863.504	20994
863.636	20971
863.768	21036
863.9	20921
864.032	20857
864.164	20956
864.296	21093
864.428	21104
864.559	20975
864.691	21104
864.823	20975
864.954	20994
865.086	21001
865.217	20902
865.349	20819
865.48	20834
865.612	20952
865.743	20990
865.875	20914
866.006	20918
866.137	20800
866.269	20899
866.4	20823
866.531	20834
866.662	20678
866.793	20800
866.924	20830
867.055	20864
867.186	20876
867.317	20765
867.448	20667
867.579	20815
867.71	20735
867.841	20648
867.972	20800
868.103	20788
868.233	20849
868.364	20785
868.495	20929
868.625	21005
868.756	21020
868.886	21036
869.017	21036
869.147	21237
869.278	21070
869.408	21116
869.539	21058
869.669	21119
869.799	21108
869.929	21100
870.06	21233
870.19	21454
870.32	21416
870.45	21428
870.58	21469
870.71	21591
870.84	21576
870.97	21549
871.1	21534
871.23	21648
871.36	21682
871.489	21519
871.619	21595
871.749	21603
871.879	21728
872.008	21724
872.138	21622
872.267	21545
872.397	21583
872.526	21435
872.656	21462
872.785	21447
872.915	21637
873.044	21762
873.173	21797
873.303	21694
873.432	21770
873.561	21713
873.69	21580
873.819	21641
873.948	21709
874.077	21743
874.206	21614
874.335	21747
874.464	21789
874.593	21903
874.722	21869
874.851	21926
874.979	21884
875.108	21911
875.237	21812
875.365	21816
875.494	21865
875.623	21895
875.751	21892
875.88	21831
876.008	22147
876.136	22040
876.265	22500
876.393	22500
876.521	22402
876.65	22318
876.778	22280
876.906	22253
877.034	22158
877.162	22246
877.29	22226
877.418	22120
877.546	22363
877.674	22230
877.802	22246
877.93	22413
878.058	22272
878.185	22204
878.313	22276
878.441	22162
878.568	21998
878.696	22166
878.824	22306
878.951	22382
879.079	22466
879.206	22489
879.333	22390
879.461	22261
879.588	22478
879.715	22443
879.842	22630
879.97	22382
880.097	22093
880.224	22021
880.351	22135
880.478	22059
880.605	22048
880.732	22032
880.859	22257
880.986	22105
881.112	22097
881.239	21903
881.366	21831
881.493	21739
881.619	21785
881.746	21743
881.872	21679
881.999	21603
882.125	21660
882.252	21648
882.378	21652
882.505	21667
882.631	21515
882.757	21420
882.883	21488
883.01	21340
883.136	21275
883.262	21302
883.388	21310
883.514	21370
883.64	21370
883.766	21260
883.892	21211
884.018	21161
884.143	21268
884.269	21252
884.395	20994
884.52	21009
884.646	21043
884.772	20925
884.897	20960
885.023	21127
885.148	21009
885.274	21123
885.399	21085
885.524	21055
885.65	20990
885.775	21024
885.9	20979
886.025	21112
886.15	21096
886.275	20819
886.4	20960
886.525	21009
886.65	20910
886.775	20941
886.9	21081
887.025	21188
887.149	20986
887.274	20663
887.399	20708
887.523	20811
887.648	20568
887.773	20659
887.897	20872
888.021	20777
888.146	20762
888.27	20861
888.395	20735
888.519	20659
888.643	20853
888.767	20750
888.891	20682
889.015	20564
889.139	20571
889.263	20575
889.387	20682
889.511	20735
889.635	20743
889.759	20454
889.883	20560
890.006	20571
890.13	20727
890.254	20377
890.377	20499
890.501	20366
890.624	20301
890.748	20423
890.871	20206
890.995	20122
891.118	20088
891.241	20195
891.364	20142
891.488	20248
891.611	20134
891.734	20176
891.857	20237
891.98	20107
892.103	20126
892.226	20134
892.349	20077
892.471	19928
892.594	19986
892.717	19989
892.839	19997
892.962	20111
893.085	20084
893.207	19989
893.33	19894
893.452	19959
893.575	19997
893.697	20001
893.819	20202
893.941	20351
894.064	20161
894.186	19959
894.308	19898
894.43	20088
894.552	20191
894.674	20172
894.796	19932
894.918	19959
895.04	19932
895.161	20210
895.283	20058
895.405	19986
895.526	20084
895.648	20050
895.769	20092
895.891	20027
896.012	20122
896.134	20100
896.255	20024
896.376	20065
896.498	19963
896.619	20035
896.74	19974
896.861	20092
896.982	20408
897.103	20537
897.224	20286
897.345	20412
897.466	20278
897.587	20298
897.708	20423
897.828	20275
897.949	20195
898.07	20092
898.19	20191
898.311	20336
898.431	20259
898.552	20309
898.672	20377
898.792	20332
898.913	20233
899.033	20164
899.153	20168
899.273	20039
899.393	20062
899.513	20031
899.633	20069
899.753	19986
899.873	19989
899.993	19955
900.113	19887
900.232	20058
900.352	19822
900.472	19906
900.591	19818
900.711	19742
900.83	19788
900.95	19849
901.069	19765
901.189	19708
901.308	19445
901.427	19327
901.546	19430
901.665	19354
901.784	19472
901.904	19255
902.023	19019
902.141	18920
902.26	18943
902.379	19038
902.498	18863
902.617	18928
902.735	18817
902.854	18886
902.973	18859
903.091	18528
903.21	18589
903.328	18521
903.446	18414
903.565	18338
903.683	18391
903.801	18281
903.919	18361
904.038	18289
904.156	18194
904.274	18205
904.392	18178
904.51	18083
904.627	18155
904.745	18209
904.863	18216
904.981	17813
905.098	17840
905.216	17889
905.334	17885
905.451	17832
905.569	17832
905.686	17874
905.803	17847
905.921	17752
906.038	17771
906.155	17627
906.272	17600
906.389	17661
906.506	17433
906.623	17425
906.74	17353
906.857	17155
906.974	17258
907.091	17398
907.208	17501
907.324	17429
907.441	17242
907.557	17124
907.674	16999
907.79	17018
907.907	17060
908.023	17140
908.139	17014
908.256	16991
908.372	16987
908.488	16953
908.604	16831
908.72	16771
908.836	16812
908.952	16687
909.068	16763
909.184	16828
909.3	16790
909.415	16797
909.531	16820
909.647	16523
909.762	16462
909.878	16390
909.993	16470
910.108	16382
910.224	16405
910.339	16447
910.454	16333
910.57	16185
910.685	16215
910.8	16546
910.915	16455
911.03	16325
911.145	16166
911.259	16090
911.374	16124
911.489	15934
911.604	15793
911.718	15918
911.833	15850
911.947	15762
912.062	15671
912.176	15876
912.291	15918
912.405	15846
912.519	16021
912.633	15975
912.748	15835
912.862	15812
912.976	15701
913.09	15637
913.204	15606
913.318	15679
913.431	15732
913.545	15785
913.659	15728
913.772	15576
913.886	15511
914	15443
914.113	15515
914.226	15473
914.34	15397
914.453	15306
914.566	15473
914.68	15268
914.793	15340
914.906	15188
915.019	15020
915.132	15017
915.245	14986
915.358	15146
915.47	15036
915.583	15039
915.696	15051
915.809	15150
915.921	15135
916.034	14994
916.146	14883
916.259	14933
916.371	15074
916.483	15104
916.595	14804
916.708	14849
916.82	14914
916.932	14868
917.044	14807
917.156	14777
917.268	14754
917.38	14781
917.491	14708
917.603	14731
917.715	14746
917.826	14720
917.938	14636
918.049	14587
918.161	14720
918.272	14716
918.384	14769
918.495	14617
918.606	14549
918.717	14434
918.828	14480
918.939	14492
919.05	14343
919.161	14507
919.272	14271
919.383	14332
919.494	14507
919.604	14697
919.715	14511
919.826	14469
919.936	14419
920.047	14522
920.157	14484
920.267	14701
920.378	14446
920.488	14419
920.598	14552
920.708	14849
920.818	14659
920.928	14575
921.038	14716
921.148	14648
921.258	14469
921.368	14259
921.477	14168
921.587	14164
921.697	14058
921.806	14168
921.916	13982
922.025	13894
922.134	13837
922.244	13780
922.353	13849
922.462	13689
922.571	13719
922.68	13552
922.789	13426
922.898	13472
923.007	13384
923.116	13537
923.224	13495
923.333	13445
923.442	13396
923.55	13228
923.659	13358
923.767	13381
923.876	13259
923.984	13316
924.092	13187
924.201	13415
924.309	13179
924.417	13304
924.525	13129
924.633	13190
924.741	14012
924.849	13069
924.956	13084
925.064	12966
925.172	12897
925.279	12833
925.387	12909
925.494	12905
925.602	13042
925.709	12977
925.816	12817
925.924	12840
926.031	12943
926.138	12859
926.245	12897
926.352	12795
926.459	12932
926.566	12981
926.673	12787
926.779	12753
926.886	12669
926.993	12532
927.099	12494
927.206	12391
927.312	12429
927.419	12578
927.525	12547
927.631	12513
927.737	12414
927.843	12395
927.95	12254
928.056	12304
928.162	12285
928.267	12342
928.373	12970
928.479	12448
928.585	12311
928.69	12311
928.796	12289
928.901	12201
929.007	12102
929.112	12125
929.218	12205
929.323	12114
929.428	12072
929.533	12251
929.638	11977
929.743	12019
929.848	12011
929.953	12019
930.058	11874
930.163	11649
930.267	11771
930.372	11935
930.477	11756
930.581	11824
930.685	11798
930.79	11535
930.894	11703
930.998	11627
931.103	11726
931.207	11383
931.311	11296
931.415	11280
931.519	10987
931.623	11022
