Data from test_V78500241_3554.txt Node
Date: Fri Mar 25 16:06:25 CST 2022
User: usil
Spectrometer: V785-0024
Trigger mode: 0
Integration Time (sec): 4.000000E-1
Scans to average: 1
Nonlinearity correction enabled: false
Boxcar width: 0
Storing dark spectrum: false
XAxis mode: Wavelengths
Number of Pixels in Spectrum: 1024
>>>>>Begin Spectral Data<<<<<
801.071	28885
801.214	28820
801.356	28630
801.499	28516
801.641	28599
801.783	28474
801.926	28611
802.068	28550
802.211	28622
802.353	28481
802.496	28272
802.638	28246
802.78	28078
802.923	28128
803.065	28188
803.208	28093
803.35	28162
803.492	28474
803.635	28588
803.777	28375
803.919	28489
804.061	28744
804.204	28588
804.346	28512
804.488	28386
804.63	28565
804.773	28398
804.915	28580
805.057	28599
805.199	28497
805.341	28546
805.483	28664
805.626	28729
805.768	28497
805.91	28679
806.052	28554
806.194	28523
806.336	28763
806.478	28565
806.62	28630
806.762	28820
806.904	29113
807.046	29193
807.188	29044
807.33	29094
807.472	29277
807.614	28965
807.756	29037
807.898	28877
808.04	28847
808.182	28854
808.324	29056
808.465	28972
808.607	29166
808.749	29368
808.891	29334
809.033	29414
809.174	29303
809.316	29337
809.458	29337
809.6	29296
809.741	29364
809.883	29524
810.025	29493
810.166	29566
810.308	29634
810.45	29531
810.591	29531
810.733	29433
810.875	29391
811.016	29334
811.158	29174
811.299	29440
811.441	29581
811.582	29551
811.724	29436
811.865	29395
812.007	29307
812.148	29330
812.29	29478
812.431	29657
812.573	29592
812.714	29889
812.855	29954
812.997	29935
813.138	30045
813.279	29961
813.421	29878
813.562	29946
813.703	29691
813.845	29661
813.986	29379
814.127	29353
814.268	29094
814.41	29189
814.551	29018
814.692	29185
814.833	29170
814.974	29025
815.115	29003
815.256	28965
815.397	29052
815.539	29075
815.68	28930
815.821	28968
815.962	28923
816.103	28824
816.244	28710
816.385	28683
816.526	28626
816.666	28489
816.807	28303
816.948	28474
817.089	28554
817.23	28379
817.371	28276
817.512	28428
817.653	28417
817.793	28436
817.934	28363
818.075	28303
818.216	28375
818.356	28401
818.497	28246
818.638	28299
818.778	28074
818.919	28192
819.06	28143
819.2	28424
819.341	28478
819.481	28508
819.622	28599
819.762	28630
819.903	28679
820.043	28592
820.184	28542
820.324	28538
820.465	28561
820.605	28538
820.746	28561
820.886	28322
821.026	28325
821.167	28531
821.307	28596
821.447	28542
821.588	28382
821.728	28242
821.868	27956
822.008	27956
822.149	28002
822.289	27918
822.429	27667
822.569	27492
822.709	27633
822.849	27443
822.99	27439
823.13	27477
823.27	27424
823.41	27313
823.55	27104
823.69	27298
823.83	27287
823.97	27211
824.11	27108
824.25	27108
824.389	27104
824.529	27055
824.669	27070
824.809	27203
824.949	27032
825.089	27154
825.228	27287
825.368	27032
825.508	26895
825.648	26868
825.787	27039
825.927	26918
826.067	27005
826.206	26960
826.346	26925
826.485	27074
826.625	27089
826.765	27104
826.904	26918
827.044	26788
827.183	26762
827.323	26625
827.462	26845
827.601	26727
827.741	26636
827.88	26788
828.02	26526
828.159	26541
828.298	26754
828.437	26769
828.577	26682
828.716	26697
828.855	26590
828.994	26434
829.134	26336
829.273	26370
829.412	26427
829.551	26278
829.69	26419
829.829	26309
829.968	26309
830.107	26309
830.246	26396
830.385	26374
830.524	26199
830.663	26111
830.802	26046
830.941	25944
831.08	26024
831.219	26126
831.357	26065
831.496	26271
831.635	25951
831.774	25932
831.913	25837
832.051	25738
832.19	25712
832.329	25658
832.467	25750
832.606	25624
832.744	25643
832.883	25609
833.022	25537
833.16	25734
833.299	25738
833.437	25696
833.576	25875
833.714	25807
833.852	25753
833.991	25677
834.129	25795
834.267	25700
834.406	25601
834.544	25643
834.682	25738
834.821	25620
834.959	25837
835.097	25700
835.235	25845
835.373	25681
835.511	25582
835.65	25529
835.788	25495
835.926	25453
836.064	25304
836.202	25255
836.34	25529
836.478	25635
836.615	25426
836.753	25506
836.891	25567
837.029	25643
837.167	25426
837.305	25544
837.443	25430
837.58	25483
837.718	25312
837.856	25400
837.993	25331
838.131	25316
838.269	25316
838.406	25266
838.544	25061
838.681	24905
838.819	24989
838.956	24810
839.094	24837
839.231	25000
839.369	25000
839.506	25225
839.643	25057
839.781	24954
839.918	24734
840.055	24802
840.193	24806
840.33	24798
840.467	24787
840.604	24776
840.742	24943
840.879	24540
841.016	24684
841.153	24677
841.29	24764
841.427	24616
841.564	24848
841.701	24726
841.838	24852
841.975	24665
842.112	24696
842.249	24547
842.385	24479
842.522	24764
842.659	24593
842.796	24467
842.933	24597
843.069	24433
843.206	24384
843.343	24623
843.479	24559
843.616	24528
843.752	24388
843.889	24213
844.025	24429
844.162	24216
844.298	24296
844.435	24232
844.571	24319
844.708	24296
844.844	24350
844.98	24247
845.117	24334
845.253	24155
845.389	24087
845.525	24091
845.661	24026
845.798	24003
845.934	23999
846.07	24068
846.206	23950
846.342	24106
846.478	23939
846.614	23843
846.75	23615
846.886	23668
847.022	23901
847.158	23680
847.294	23653
847.429	23707
847.565	23672
847.701	23809
847.837	23391
847.972	23459
848.108	23501
848.244	23497
848.379	23395
848.515	23402
848.65	23296
848.786	23322
848.921	23288
849.057	23425
849.192	23353
849.328	23315
849.463	23326
849.598	23220
849.734	23159
849.869	23216
850.004	22987
850.14	23083
850.275	23067
850.41	23155
850.545	23121
850.68	23022
850.815	23060
850.95	22965
851.085	23239
851.22	23113
851.355	23102
851.49	23048
851.625	22953
851.76	23064
851.895	23033
852.03	23079
852.165	23132
852.299	23086
852.434	22968
852.569	22991
852.703	23090
852.838	23010
852.973	23235
853.107	23014
853.242	23018
853.376	22873
853.511	22793
853.645	22862
853.78	22999
853.914	22835
854.048	22980
854.183	22972
854.317	22801
854.451	23098
854.585	22824
854.72	22896
854.854	23056
854.988	22892
855.122	22915
855.256	22869
855.39	22759
855.524	22934
855.658	22729
855.792	22847
855.926	23018
856.06	22843
856.194	22927
856.327	22854
856.461	22767
856.595	22740
856.729	22782
856.862	23014
856.996	22900
857.13	22942
857.263	22919
857.397	22923
857.53	22869
857.664	22904
857.797	22923
857.931	22923
858.064	22923
858.197	22953
858.331	22831
858.464	22786
858.597	22801
858.731	22892
858.864	22767
858.997	22980
859.13	22771
859.263	22831
859.396	22953
859.529	22919
859.662	22850
859.795	22729
859.928	22858
860.061	22972
860.194	22987
860.327	22858
860.46	22923
860.592	22957
860.725	22896
860.858	22965
860.99	22908
861.123	22862
861.256	22866
861.388	22717
861.521	23471
861.653	22771
861.786	22577
861.918	22656
862.05	22820
862.183	22759
862.315	22759
862.447	22881
862.58	22752
862.712	22470
862.844	22687
862.976	22641
863.108	22561
863.24	23060
863.372	22459
863.504	22542
863.636	22546
863.768	22569
863.9	22580
864.032	22497
864.164	22516
864.296	22618
864.428	22653
864.559	22634
864.691	22554
864.823	22607
864.954	22550
865.086	22565
865.217	22478
865.349	22478
865.48	22519
865.612	22470
865.743	22489
865.875	22440
866.006	22497
866.137	22421
866.269	22386
866.4	22421
866.531	22394
866.662	22363
866.793	22272
866.924	22318
867.055	22542
867.186	22443
867.317	22291
867.448	22318
867.579	22371
867.71	22310
867.841	22265
867.972	22375
868.103	22257
868.233	22394
868.364	22382
868.495	22546
868.625	22599
868.756	22618
868.886	22497
869.017	22580
869.147	22603
869.278	22694
869.408	22561
869.539	22500
869.669	22706
869.799	22687
869.929	22721
870.06	22683
870.19	22892
870.32	22919
870.45	22934
870.58	22972
870.71	23117
870.84	23075
870.97	23022
871.1	23003
871.23	23025
871.36	23162
871.489	23204
871.619	23044
871.749	23159
871.879	23296
872.008	23227
872.138	23223
872.267	23147
872.397	23181
872.526	23105
872.656	22995
872.785	22995
872.915	23174
873.044	23337
873.173	23223
873.303	23242
873.432	23193
873.561	23280
873.69	23242
873.819	23250
873.948	23360
874.077	23136
874.206	23132
874.335	23200
874.464	23330
874.593	23596
874.722	23364
874.851	23463
874.979	23391
875.108	23440
875.237	23402
875.365	23387
875.494	23303
875.623	23444
875.751	23410
875.88	23448
876.008	23684
876.136	23440
876.265	23840
876.393	23843
876.521	23973
876.65	24057
876.778	23893
876.906	23779
877.034	23786
877.162	23863
877.29	23737
877.418	23771
877.546	23699
877.674	23733
877.802	23703
877.93	23668
878.058	23657
878.185	23615
878.313	23623
878.441	23657
878.568	23680
878.696	23786
878.824	23866
878.951	23855
879.079	24018
879.206	24015
879.333	23843
879.461	23783
879.588	23878
879.715	24015
879.842	24171
879.97	23939
880.097	23570
880.224	23615
880.351	23668
880.478	23589
880.605	23547
880.732	23657
880.859	23775
880.986	23634
881.112	23570
881.239	23478
881.366	23307
881.493	23277
881.619	23010
881.746	23204
881.872	23124
881.999	23147
882.125	22965
882.252	23185
882.378	23041
882.505	23250
882.631	22850
882.757	23003
882.883	22915
883.01	22793
883.136	22816
883.262	22641
883.388	22649
883.514	22759
883.64	22873
883.766	22752
883.892	22573
884.018	22622
884.143	22710
884.269	22873
884.395	22599
884.52	22402
884.646	22417
884.772	22322
884.897	22325
885.023	22504
885.148	22497
885.274	22615
885.399	22542
885.524	22451
885.65	22504
885.775	22462
885.9	22382
886.025	22436
886.15	22466
886.275	22390
886.4	22367
886.525	22375
886.65	22356
886.775	22322
886.9	22622
887.025	22683
887.149	22382
887.274	22242
887.399	22215
887.523	22196
887.648	22181
887.773	22082
887.897	22299
888.021	22196
888.146	22185
888.27	22211
888.395	22310
888.519	22211
888.643	22280
888.767	22211
888.891	22093
889.015	21983
889.139	21994
889.263	22013
889.387	22124
889.511	22181
889.635	22070
889.759	21983
889.883	21994
890.006	22063
890.13	22082
890.254	21956
890.377	21895
890.501	21751
890.624	21656
890.748	21720
890.871	21633
890.995	21545
891.118	21568
891.241	21523
891.364	21561
891.488	21663
891.611	21538
891.734	21458
891.857	21511
891.98	21507
892.103	21599
892.226	21545
892.349	21454
892.471	21336
892.594	21443
892.717	21462
892.839	21382
892.962	21408
893.085	21496
893.207	21488
893.33	21351
893.452	21317
893.575	21488
893.697	21329
893.819	21587
893.941	21679
894.064	21492
894.186	21378
894.308	21302
894.43	21481
894.552	21545
894.674	21443
894.796	21450
894.918	21279
895.04	21313
895.161	21348
895.283	21477
895.405	21329
895.526	21401
895.648	21351
895.769	21397
895.891	21370
896.012	21488
896.134	21542
896.255	21401
896.376	21397
896.498	21306
896.619	21389
896.74	21340
896.861	21435
896.982	21736
897.103	21804
897.224	21736
897.345	21557
897.466	21587
897.587	21637
897.708	21759
897.828	21644
897.949	21622
898.07	21454
898.19	21500
898.311	21568
898.431	21458
898.552	21538
898.672	21553
898.792	21606
898.913	21644
899.033	21428
899.153	21325
899.273	21321
899.393	21199
899.513	21291
899.633	21279
899.753	21287
899.873	21317
899.993	21401
900.113	21211
900.232	21203
900.352	21214
900.472	21279
900.591	21100
900.711	20979
900.83	20963
900.95	21096
901.069	21157
901.189	20857
901.308	20667
901.427	20541
901.546	20724
901.665	20590
901.784	20545
901.904	20499
902.023	20415
902.141	20252
902.26	20221
902.379	20218
902.498	20081
902.617	20088
902.735	19974
902.854	20039
902.973	20024
903.091	19803
903.21	19788
903.328	19723
903.446	19685
903.565	19533
903.683	19586
903.801	19460
903.919	19567
904.038	19662
904.156	19369
904.274	19464
904.392	19282
904.51	19263
904.627	19247
904.745	19282
904.863	19362
904.981	19141
905.098	18905
905.216	19072
905.334	19042
905.451	19034
905.569	19042
905.686	19023
905.803	19000
905.921	18806
906.038	18859
906.155	18859
906.272	18635
906.389	18635
906.506	18684
906.623	18604
906.74	18563
906.857	18342
906.974	18448
907.091	18426
907.208	18665
907.324	18559
907.441	18441
907.557	18330
907.674	18323
907.79	18239
907.907	18251
908.023	18292
908.139	18239
908.256	18239
908.372	18167
908.488	18064
908.604	18072
908.72	17958
908.836	17885
908.952	17847
909.068	17882
909.184	17961
909.3	17882
909.415	18057
909.531	17904
909.647	17665
909.762	17630
909.878	17554
909.993	17726
910.108	17649
910.224	17630
910.339	17665
910.454	17372
910.57	17429
910.685	17490
910.8	17634
910.915	17532
911.03	17337
911.145	17216
911.259	17181
911.374	17265
911.489	17166
911.604	17029
911.718	17090
911.833	16930
911.947	16904
912.062	16733
912.176	16862
912.291	16976
912.405	16991
912.519	17121
912.633	17121
912.748	17037
912.862	16987
912.976	16786
913.09	16649
913.204	16809
913.318	16797
913.431	16828
913.545	16710
913.659	16889
913.772	16702
913.886	16546
914	16485
914.113	16660
914.226	16656
914.34	16584
914.453	16424
914.566	16535
914.68	16455
914.793	16367
914.906	16181
915.019	16109
915.132	16021
915.245	16101
915.358	16090
915.47	15987
915.583	16169
915.696	16200
915.809	16139
915.921	16246
916.034	16032
916.146	16013
916.259	16021
916.371	16116
916.483	16166
916.595	15892
916.708	15895
916.82	15850
916.932	15857
917.044	15934
917.156	15884
917.268	15743
917.38	15778
917.491	15720
917.603	15774
917.715	15800
917.826	15770
917.938	15686
918.049	15591
918.161	15698
918.272	15876
918.384	15797
918.495	15644
918.606	15504
918.717	15428
918.828	15458
918.939	15420
919.05	15378
919.161	15439
919.272	15184
919.383	15325
919.494	15557
919.604	15526
919.715	15405
919.826	15298
919.936	15397
920.047	15500
920.157	15340
920.267	15663
920.378	15378
920.488	15351
920.598	15500
920.708	15797
920.818	15488
920.928	15549
921.038	15698
921.148	15629
921.258	15348
921.368	15275
921.477	15241
921.587	15020
921.697	15039
921.806	15138
921.916	14948
922.025	14857
922.134	14762
922.244	14735
922.353	14769
922.462	14708
922.571	14541
922.68	14377
922.789	14389
922.898	14442
923.007	14358
923.116	14484
923.224	14400
923.333	14343
923.442	14191
923.55	14271
923.659	14256
923.767	14248
923.876	14054
923.984	14218
924.092	14115
924.201	14115
924.309	14058
924.417	14100
924.525	14020
924.633	14058
924.741	14925
924.849	13811
924.956	13982
925.064	13757
925.172	13677
925.279	13757
925.387	13811
925.494	13715
925.602	13849
925.709	13704
925.816	13719
925.924	13757
926.031	13761
926.138	13731
926.245	13689
926.352	13514
926.459	13693
926.566	13738
926.673	13636
926.779	13521
926.886	13544
926.993	13358
927.099	13259
927.206	13278
927.312	13289
927.419	13373
927.525	13297
927.631	13320
927.737	13164
927.843	13069
927.95	13046
928.056	13076
928.162	13080
928.267	13141
928.373	13715
928.479	13126
928.585	12878
928.69	13015
928.796	13080
928.901	12939
929.007	12806
929.112	12993
929.218	12886
929.323	12817
929.428	12662
929.533	12924
929.638	12700
929.743	12669
929.848	12719
929.953	12768
930.058	12635
930.163	12467
930.267	12517
930.372	12570
930.477	12422
930.581	12646
930.685	12456
930.79	12346
930.894	12361
930.998	12338
931.103	12448
931.207	12178
931.311	12057
931.415	11950
931.519	11745
931.623	11672
