Data from test_V78500241_48.txt Node
Date: Fri Mar 25 15:42:08 CST 2022
User: usil
Spectrometer: V785-0024
Trigger mode: 0
Integration Time (sec): 4.000000E-1
Scans to average: 1
Nonlinearity correction enabled: false
Boxcar width: 0
Storing dark spectrum: false
XAxis mode: Wavelengths
Number of Pixels in Spectrum: 1024
>>>>>Begin Spectral Data<<<<<
801.071	29292
801.214	29018
801.356	28843
801.499	28607
801.641	28660
801.783	28546
801.926	28599
802.068	28550
802.211	28497
802.353	28531
802.496	28348
802.638	28196
802.78	28105
802.923	28177
803.065	28101
803.208	28238
803.35	28363
803.492	28246
803.635	28382
803.777	28291
803.919	28367
804.061	28729
804.204	28512
804.346	28314
804.488	28268
804.63	28287
804.773	28086
804.915	28314
805.057	28329
805.199	28276
805.341	28352
805.483	28223
805.626	28261
805.768	28268
805.91	28306
806.052	28333
806.194	28291
806.336	28565
806.478	28265
806.62	28322
806.762	28375
806.904	28615
807.046	28812
807.188	28736
807.33	28752
807.472	28816
807.614	28603
807.756	28687
807.898	28630
808.04	28470
808.182	28569
808.324	28561
808.465	28504
808.607	28774
808.749	28911
808.891	28885
809.033	28968
809.174	28820
809.316	28904
809.458	28896
809.6	28733
809.741	28847
809.883	29109
810.025	29208
810.166	29200
810.308	29060
810.45	29052
810.591	28934
810.733	28873
810.875	28767
811.016	28702
811.158	28744
811.299	28862
811.441	28862
811.582	28930
811.724	28778
811.865	28713
812.007	28824
812.148	28790
812.29	28733
812.431	28877
812.573	29010
812.714	29121
812.855	29330
812.997	29231
813.138	29585
813.279	29258
813.421	29383
813.562	29231
813.703	29220
813.845	28923
813.986	28668
814.127	28611
814.268	28371
814.41	28432
814.551	28356
814.692	28394
814.833	28322
814.974	28291
815.115	28367
815.256	28215
815.397	28246
815.539	28128
815.68	28090
815.821	27983
815.962	28006
816.103	27987
816.244	28048
816.385	27956
816.526	27770
816.666	27557
816.807	27450
816.948	27561
817.089	27637
817.23	27500
817.371	27534
817.512	27363
817.653	27450
817.793	27450
817.934	27340
818.075	27313
818.216	27416
818.356	27477
818.497	27135
818.638	27131
818.778	27264
818.919	27218
819.06	27161
819.2	27329
819.341	27275
819.481	27336
819.622	27530
819.762	27618
819.903	27671
820.043	27500
820.184	27252
820.324	27397
820.465	27610
820.605	27447
820.746	27424
820.886	27211
821.026	27336
821.167	27439
821.307	27405
821.447	27302
821.588	27256
821.728	27112
821.868	26906
822.008	26724
822.149	26861
822.289	26613
822.429	26537
822.569	26530
822.709	26339
822.849	26240
822.99	26199
823.13	26210
823.27	26119
823.41	26008
823.55	25883
823.69	26088
823.83	25883
823.97	26031
824.11	25708
824.25	25719
824.389	25670
824.529	25944
824.669	25833
824.809	25830
824.949	25693
825.089	25765
825.228	25738
825.368	25487
825.508	25556
825.648	25628
825.787	25712
825.927	25643
826.067	25529
826.206	25578
826.346	25487
826.485	25578
826.625	25521
826.765	25601
826.904	25628
827.044	25263
827.183	25266
827.323	25148
827.462	25320
827.601	25206
827.741	25213
827.88	25225
828.02	25084
828.159	25175
828.298	25187
828.437	25206
828.577	25129
828.716	25358
828.855	24966
828.994	24817
829.134	24951
829.273	24924
829.412	24806
829.551	24783
829.69	24821
829.829	24852
829.968	24905
830.107	24856
830.246	24878
830.385	24829
830.524	24692
830.663	24414
830.802	24551
830.941	24471
831.08	24342
831.219	24441
831.357	24498
831.496	24601
831.635	24388
831.774	24216
831.913	24167
832.051	24300
832.19	24114
832.329	24197
832.467	24095
832.606	23988
832.744	23969
832.883	24102
833.022	23984
833.16	23999
833.299	24018
833.437	23992
833.576	24053
833.714	23988
833.852	23969
833.991	24049
834.129	24068
834.267	24110
834.406	24034
834.544	23950
834.682	24026
834.821	24030
834.959	24102
835.097	24030
835.235	24041
835.373	23977
835.511	23988
835.65	23832
835.788	23703
835.926	23646
836.064	23573
836.202	23585
836.34	23840
836.478	23859
836.615	23836
836.753	23775
836.891	23885
837.029	23870
837.167	23863
837.305	23783
837.443	23653
837.58	23630
837.718	23703
837.856	23733
837.993	23608
838.131	23608
838.269	23570
838.406	23634
838.544	23425
838.681	23242
838.819	23349
838.956	23056
839.094	22987
839.231	23109
839.369	23166
839.506	23425
839.643	23155
839.781	23128
839.918	23010
840.055	22930
840.193	22934
840.33	22862
840.467	22961
840.604	22999
840.742	23273
840.879	22740
841.016	22866
841.153	22820
841.29	22999
841.427	22858
841.564	22896
841.701	22869
841.838	22866
841.975	22767
842.112	22812
842.249	22752
842.385	22622
842.522	22995
842.659	22687
842.796	22618
842.933	22607
843.069	22554
843.206	22417
843.343	22618
843.479	22607
843.616	22645
843.752	22478
843.889	22367
844.025	22584
844.162	22398
844.298	22394
844.435	22337
844.571	22325
844.708	22287
844.844	22386
844.98	22565
845.117	22485
845.253	22207
845.389	21979
845.525	22253
845.661	22158
845.798	22105
845.934	22093
846.07	22086
846.206	22124
846.342	22158
846.478	22040
846.614	21823
846.75	21675
846.886	21800
847.022	21926
847.158	21800
847.294	21739
847.429	21709
847.565	21755
847.701	21892
847.837	21545
847.972	21458
848.108	21591
848.244	21466
848.379	21351
848.515	21218
848.65	21192
848.786	21317
848.921	21283
849.057	21420
849.192	21412
849.328	21405
849.463	21283
849.598	21256
849.734	21264
849.869	21176
850.004	21237
850.14	21100
850.275	20998
850.41	21001
850.545	20891
850.68	20982
850.815	20994
850.95	21020
851.085	21154
851.22	21108
851.355	21013
851.49	20887
851.625	20887
851.76	21024
851.895	20937
852.03	20921
852.165	20979
852.299	21093
852.434	20998
852.569	21108
852.703	21119
852.838	21005
852.973	21176
853.107	21119
853.242	20876
853.376	20876
853.511	20644
853.645	20720
853.78	20823
853.914	20765
854.048	20819
854.183	20769
854.317	20838
854.451	21013
854.585	20792
854.72	20872
854.854	20788
854.988	20788
855.122	20868
855.256	20712
855.39	20762
855.524	20845
855.658	20769
855.792	20815
855.926	20826
856.06	20906
856.194	20758
856.327	20754
856.461	20667
856.595	20769
856.729	20804
856.862	20933
856.996	20720
857.13	20796
857.263	20941
857.397	20819
857.53	20720
857.664	20682
857.797	20910
857.931	20868
858.064	20842
858.197	20872
858.331	20651
858.464	20632
858.597	20499
858.731	20701
858.864	20655
858.997	20560
859.13	20724
859.263	20743
859.396	20868
859.529	20716
859.662	20545
859.795	20750
859.928	20769
860.061	20788
860.194	20857
860.327	20800
860.46	20705
860.592	20765
860.725	20857
860.858	20807
860.99	20727
861.123	20640
861.256	20511
861.388	20670
861.521	21203
861.653	20469
861.786	20583
861.918	20575
862.05	20682
862.183	20823
862.315	20697
862.447	20792
862.58	20659
862.712	20530
862.844	20370
862.976	20549
863.108	20461
863.24	20769
863.372	20393
863.504	20389
863.636	20400
863.768	20473
863.9	20434
864.032	20271
864.164	20248
864.296	20423
864.428	20495
864.559	20339
864.691	20530
864.823	20450
864.954	20324
865.086	20309
865.217	20355
865.349	20233
865.48	20263
865.612	20377
865.743	20400
865.875	20377
866.006	20351
866.137	20290
866.269	20267
866.4	20145
866.531	20309
866.662	20202
866.793	20278
866.924	20298
867.055	20191
867.186	20081
867.317	20180
867.448	20130
867.579	20161
867.71	20138
867.841	20096
867.972	20290
868.103	20157
868.233	20214
868.364	20172
868.495	20214
868.625	20275
868.756	20579
868.886	20305
869.017	20355
869.147	20560
869.278	20530
869.408	20358
869.539	20393
869.669	20423
869.799	20488
869.929	20503
870.06	20560
870.19	20640
870.32	20785
870.45	20857
870.58	20804
870.71	20982
870.84	20975
870.97	20914
871.1	20944
871.23	20910
871.36	21127
871.489	20906
871.619	21036
871.749	20933
871.879	21020
872.008	21180
872.138	20982
872.267	21150
872.397	20876
872.526	20800
872.656	20842
872.785	20891
872.915	21123
873.044	21154
873.173	20979
873.303	21066
873.432	21108
873.561	21062
873.69	21070
873.819	21093
873.948	21180
874.077	21077
874.206	21093
874.335	21017
874.464	21043
874.593	21355
874.722	21317
874.851	21416
874.979	21382
875.108	21519
875.237	21393
875.365	21272
875.494	21351
875.623	21447
875.751	21306
875.88	21325
876.008	21504
876.136	21504
876.265	21724
876.393	21831
876.521	21663
876.65	21720
876.778	21698
876.906	21728
877.034	21671
877.162	21694
877.29	21641
877.418	21736
877.546	21568
877.674	21580
877.802	21724
877.93	21652
878.058	21652
878.185	21629
878.313	21568
878.441	21690
878.568	21477
878.696	21568
878.824	21747
878.951	21827
879.079	21819
879.206	21937
879.333	21975
879.461	21694
879.588	21778
879.715	21899
879.842	21922
879.97	21694
880.097	21397
880.224	21443
880.351	21523
880.478	21519
880.605	21500
880.732	21485
880.859	21766
880.986	21564
881.112	21485
881.239	21466
881.366	21237
881.493	21058
881.619	21043
881.746	21001
881.872	21135
881.999	21055
882.125	20998
882.252	21150
882.378	21001
882.505	21291
882.631	21039
882.757	20834
882.883	20937
883.01	20807
883.136	20819
883.262	20693
883.388	20648
883.514	20864
883.64	20876
883.766	20781
883.892	20526
884.018	20606
884.143	20788
884.269	20727
884.395	20568
884.52	20450
884.646	20541
884.772	20393
884.897	20389
885.023	20412
885.148	20716
885.274	20701
885.399	20499
885.524	20454
885.65	20381
885.775	20533
885.9	20590
886.025	20530
886.15	20457
886.275	20294
886.4	20324
886.525	20324
886.65	20370
886.775	20244
886.9	20594
887.025	20594
887.149	20366
887.274	20278
887.399	20301
887.523	20259
887.648	20183
887.773	20157
887.897	20252
888.021	20301
888.146	20202
888.27	20377
888.395	20374
888.519	20168
888.643	20248
888.767	20286
888.891	20031
889.015	19894
889.139	20046
889.263	19875
889.387	20058
889.511	20180
889.635	20134
889.759	19997
889.883	19963
890.006	19959
890.13	20111
890.254	19860
890.377	19841
890.501	19784
890.624	19609
890.748	19803
890.871	19537
890.995	19578
891.118	19540
891.241	19578
891.364	19693
891.488	19757
891.611	19635
891.734	19487
891.857	19647
891.98	19552
892.103	19765
892.226	19620
892.349	19620
892.471	19354
892.594	19578
892.717	19567
892.839	19529
892.962	19609
893.085	19506
893.207	19635
893.33	19293
893.452	19419
893.575	19460
893.697	19441
893.819	19696
893.941	19700
894.064	19628
894.186	19373
894.308	19411
894.43	19674
894.552	19731
894.674	19559
894.796	19358
894.918	19464
895.04	19590
895.161	19575
895.283	19586
895.405	19510
895.526	19556
895.648	19396
895.769	19480
895.891	19468
896.012	19559
896.134	19491
896.255	19651
896.376	19521
896.498	19582
896.619	19586
896.74	19647
896.861	19605
896.982	19913
897.103	20062
897.224	19845
897.345	19807
897.466	19746
897.587	19830
897.708	19799
897.828	19841
897.949	19708
898.07	19548
898.19	19742
898.311	19875
898.431	19586
898.552	19628
898.672	19780
898.792	19780
898.913	19731
899.033	19472
899.153	19400
899.273	19400
899.393	19419
899.513	19540
899.633	19396
899.753	19388
899.873	19354
899.993	19403
900.113	19362
900.232	19415
900.352	19350
900.472	19301
900.591	19114
900.711	19358
900.83	19107
900.95	19316
901.069	19358
901.189	19175
901.308	19008
901.427	18745
901.546	18894
901.665	18882
901.784	18878
901.904	18734
902.023	18544
902.141	18448
902.26	18414
902.379	18414
902.498	18380
902.617	18380
902.735	18334
902.854	18342
902.973	18163
903.091	18053
903.21	18011
903.328	18140
903.446	17912
903.565	17847
903.683	17794
903.801	17760
903.919	17783
904.038	17786
904.156	17566
904.274	17703
904.392	17516
904.51	17630
904.627	17589
904.745	17699
904.863	17657
904.981	17360
905.098	17220
905.216	17216
905.334	17296
905.451	17246
905.569	17227
905.686	17349
905.803	17208
905.921	17014
906.038	17220
906.155	17045
906.272	16904
906.389	17025
906.506	16778
906.623	16816
906.74	16759
906.857	16622
906.974	16615
907.091	16869
907.208	16919
907.324	16824
907.441	16733
907.557	16554
907.674	16382
907.79	16382
907.907	16390
908.023	16451
908.139	16436
908.256	16382
908.372	16333
908.488	16276
908.604	16177
908.72	16120
908.836	16207
908.952	16219
909.068	16086
909.184	16200
909.3	16139
909.415	16078
909.531	16128
909.647	15884
909.762	15778
909.878	15774
909.993	15747
910.108	15869
910.224	15793
910.339	15850
910.454	15743
910.57	15694
910.685	15618
910.8	15865
910.915	15800
911.03	15557
911.145	15542
911.259	15428
911.374	15420
911.489	15454
911.604	15325
911.718	15252
911.833	15207
911.947	15100
912.062	15024
912.176	15256
912.291	15184
912.405	15302
912.519	15397
912.633	15325
912.748	15165
912.862	15173
912.976	14963
913.09	14876
913.204	14914
913.318	14979
913.431	15135
913.545	15024
913.659	15058
913.772	14933
913.886	14842
914	14769
914.113	14868
914.226	14895
914.34	14849
914.453	14621
914.566	14883
914.68	14629
914.793	14571
914.906	14514
915.019	14419
915.132	14465
915.245	14454
915.358	14415
915.47	14351
915.583	14499
915.696	14381
915.809	14556
915.921	14587
916.034	14412
916.146	14427
916.259	14282
916.371	14396
916.483	14454
916.595	14286
916.708	14267
916.82	14320
916.932	14263
917.044	14286
917.156	14145
917.268	14058
917.38	14027
917.491	14081
917.603	14103
917.715	14176
917.826	14134
917.938	14020
918.049	13970
918.161	14012
918.272	14153
918.384	14206
918.495	13993
918.606	13932
918.717	13837
918.828	13921
918.939	13917
919.05	13772
919.161	13776
919.272	13582
919.383	13712
919.494	13807
919.604	13993
919.715	13898
919.826	13719
919.936	13769
920.047	13947
920.157	13830
920.267	14046
920.378	13769
920.488	13837
920.598	13970
920.708	14119
920.818	13951
920.928	13913
921.038	14039
921.148	14035
921.258	13742
921.368	13632
921.477	13559
921.587	13521
921.697	13327
921.806	13525
921.916	13422
922.025	13217
922.134	13217
922.244	13053
922.353	13175
922.462	13103
922.571	12962
922.68	12859
922.789	12848
922.898	12814
923.007	12787
923.116	12867
923.224	12741
923.333	12703
923.442	12654
923.55	12597
923.659	12707
923.767	12810
923.876	12635
923.984	12669
924.092	12551
924.201	12563
924.309	12525
924.417	12574
924.525	12582
924.633	12467
924.741	13468
924.849	12311
924.956	12323
925.064	12224
925.172	12220
925.279	12262
925.387	12262
925.494	12289
925.602	12330
925.709	12342
925.816	12064
925.924	12311
926.031	12357
926.138	12285
926.245	12296
926.352	12213
926.459	12243
926.566	12273
926.673	12224
926.779	12049
926.886	12022
926.993	11855
927.099	11855
927.206	11821
927.312	11847
927.419	11813
927.525	11893
927.631	11889
927.737	11828
927.843	11649
927.95	11630
928.056	11638
928.162	11714
928.267	11752
928.373	12315
928.479	11733
928.585	11543
928.69	11608
928.796	11680
928.901	11524
929.007	11395
929.112	11672
929.218	11543
929.323	11463
929.428	11429
929.533	11551
929.638	11383
929.743	11288
929.848	11421
929.953	11341
930.058	11254
930.163	11105
930.267	11147
930.372	11322
930.477	11132
930.581	11353
930.685	11231
930.79	11033
930.894	10991
930.998	10881
931.103	11090
931.207	10790
931.311	10664
931.415	10542
931.519	10371
931.623	10398
