Data from test_V78500241_2658.txt Node
Date: Fri Mar 25 16:00:13 CST 2022
User: usil
Spectrometer: V785-0024
Trigger mode: 0
Integration Time (sec): 4.000000E-1
Scans to average: 1
Nonlinearity correction enabled: false
Boxcar width: 0
Storing dark spectrum: false
XAxis mode: Wavelengths
Number of Pixels in Spectrum: 1024
>>>>>Begin Spectral Data<<<<<
801.071	28812
801.214	28733
801.356	28489
801.499	28470
801.641	28363
801.783	28341
801.926	28390
802.068	28329
802.211	28265
802.353	28367
802.496	28048
802.638	28143
802.78	27953
802.923	27991
803.065	27827
803.208	27846
803.35	28082
803.492	28169
803.635	28120
803.777	28147
803.919	28139
804.061	28478
804.204	28253
804.346	28173
804.488	28230
804.63	28268
804.773	28215
804.915	28215
805.057	28394
805.199	28325
805.341	28382
805.483	28234
805.626	28329
805.768	28169
805.91	28341
806.052	28371
806.194	28253
806.336	28607
806.478	28436
806.62	28371
806.762	28557
806.904	28634
807.046	28919
807.188	28888
807.33	28965
807.472	28881
807.614	28885
807.756	28679
807.898	28755
808.04	28767
808.182	28691
808.324	28809
808.465	28744
808.607	28881
808.749	29033
808.891	29185
809.033	29311
809.174	29273
809.316	29033
809.458	29132
809.6	28961
809.741	29147
809.883	29265
810.025	29288
810.166	29368
810.308	29372
810.45	29303
810.591	29204
810.733	28881
810.875	29170
811.016	28968
811.158	29071
811.299	29197
811.441	29208
811.582	29136
811.724	29117
811.865	29102
812.007	29140
812.148	29220
812.29	29136
812.431	29124
812.573	29459
812.714	29615
812.855	29710
812.997	29653
813.138	29726
813.279	29699
813.421	29512
813.562	29592
813.703	29512
813.845	29239
813.986	29033
814.127	28915
814.268	28774
814.41	28908
814.551	28653
814.692	28915
814.833	28816
814.974	28801
815.115	28790
815.256	28736
815.397	28675
815.539	28759
815.68	28637
815.821	28584
815.962	28615
816.103	28584
816.244	28634
816.385	28421
816.526	28474
816.666	28215
816.807	28211
816.948	28124
817.089	28249
817.23	28116
817.371	28128
817.512	28154
817.653	28017
817.793	27945
817.934	28185
818.075	28128
818.216	28166
818.356	28082
818.497	28131
818.638	27835
818.778	27998
818.919	27914
819.06	27934
819.2	28105
819.341	28078
819.481	28295
819.622	28234
819.762	28535
819.903	28401
820.043	28398
820.184	28257
820.324	28310
820.465	28200
820.605	28207
820.746	28173
820.886	28109
821.026	28128
821.167	28249
821.307	28306
821.447	28265
821.588	28078
821.728	28086
821.868	27736
822.008	27595
822.149	27568
822.289	27618
822.429	27435
822.569	27104
822.709	27317
822.849	27241
822.99	27138
823.13	27009
823.27	27005
823.41	26902
823.55	26914
823.69	26883
823.83	26952
823.97	26937
824.11	26625
824.25	26682
824.389	26712
824.529	26849
824.669	26811
824.809	26914
824.949	26785
825.089	26826
825.228	26883
825.368	26609
825.508	26686
825.648	26549
825.787	26712
825.927	26693
826.067	26571
826.206	26739
826.346	26708
826.485	26651
826.625	26674
826.765	26758
826.904	26678
827.044	26438
827.183	26450
827.323	26351
827.462	26377
827.601	26537
827.741	26461
827.88	26385
828.02	26176
828.159	26358
828.298	26450
828.437	26309
828.577	26358
828.716	26362
828.855	26309
828.994	25978
829.134	26077
829.273	26088
829.412	26157
829.551	25970
829.69	26077
829.829	26138
829.968	26149
830.107	26149
830.246	25986
830.385	26016
830.524	26119
830.663	25913
830.802	25822
830.941	25765
831.08	25723
831.219	25742
831.357	25799
831.496	25833
831.635	25658
831.774	25708
831.913	25670
832.051	25434
832.19	25476
832.329	25483
832.467	25472
832.606	25339
832.744	25407
832.883	25171
833.022	25377
833.16	25460
833.299	25400
833.437	25415
833.576	25491
833.714	25430
833.852	25537
833.991	25635
834.129	25506
834.267	25419
834.406	25419
834.544	25514
834.682	25396
834.821	25316
834.959	25601
835.097	25209
835.235	25419
835.373	25343
835.511	25403
835.65	25247
835.788	25343
835.926	25133
836.064	25023
836.202	25053
836.34	25301
836.478	25255
836.615	25148
836.753	25240
836.891	25255
837.029	25259
837.167	25206
837.305	25187
837.443	25012
837.58	25145
837.718	25251
837.856	25069
837.993	24985
838.131	25084
838.269	24951
838.406	25080
838.544	24863
838.681	24749
838.819	24745
838.956	24574
839.094	24555
839.231	24612
839.369	24696
839.506	25008
839.643	24829
839.781	24498
839.918	24486
840.055	24433
840.193	24574
840.33	24388
840.467	24563
840.604	24464
840.742	24726
840.879	24296
841.016	24338
841.153	24361
841.29	24578
841.427	24540
841.564	24505
841.701	24308
841.838	24376
841.975	24372
842.112	24300
842.249	24254
842.385	24106
842.522	24361
842.659	24144
842.796	24148
842.933	24159
843.069	24190
843.206	24216
843.343	24270
843.479	24133
843.616	24247
843.752	24114
843.889	23954
844.025	24053
844.162	23908
844.298	24163
844.435	24041
844.571	23901
844.708	23939
844.844	23977
844.98	24106
845.117	24098
845.253	23923
845.389	23836
845.525	23984
845.661	23783
845.798	23699
845.934	23764
846.07	23783
846.206	23733
846.342	23840
846.478	23771
846.614	23558
846.75	23383
846.886	23421
847.022	23566
847.158	23330
847.294	23455
847.429	23554
847.565	23391
847.701	23729
847.837	23178
847.972	23151
848.108	23258
848.244	23265
848.379	23098
848.515	23067
848.65	23060
848.786	23140
848.921	22995
849.057	23102
849.192	23113
849.328	23075
849.463	22995
849.598	22968
849.734	22911
849.869	22850
850.004	22904
850.14	22729
850.275	22801
850.41	22668
850.545	22767
850.68	22691
850.815	22824
850.95	22812
851.085	22972
851.22	22858
851.355	22866
851.49	22668
851.625	22812
851.76	22694
851.895	22626
852.03	22713
852.165	22782
852.299	22649
852.434	22812
852.569	22793
852.703	22793
852.838	22828
852.973	22900
853.107	22885
853.242	22634
853.376	22618
853.511	22542
853.645	22592
853.78	22672
853.914	22611
854.048	22554
854.183	22641
854.317	22805
854.451	22790
854.585	22588
854.72	22592
854.854	22786
854.988	22653
855.122	22592
855.256	22493
855.39	22504
855.524	22706
855.658	22649
855.792	22557
855.926	22588
856.06	22615
856.194	22733
856.327	22542
856.461	22478
856.595	22489
856.729	22489
856.862	22717
856.996	22577
857.13	22729
857.263	22618
857.397	22744
857.53	22584
857.664	22626
857.797	22679
857.931	22790
858.064	22603
858.197	22740
858.331	22569
858.464	22538
858.597	22565
858.731	22607
858.864	22554
858.997	22508
859.13	22664
859.263	22588
859.396	22691
859.529	22569
859.662	22527
859.795	22516
859.928	22622
860.061	22740
860.194	22793
860.327	22672
860.46	22664
860.592	22816
860.725	22774
860.858	22733
860.99	22508
861.123	22447
861.256	22466
861.388	22538
861.521	23356
861.653	22459
861.786	22451
861.918	22436
862.05	22493
862.183	22402
862.315	22409
862.447	22713
862.58	22417
862.712	22291
862.844	22386
862.976	22303
863.108	22295
863.24	22645
863.372	22143
863.504	22360
863.636	22230
863.768	22394
863.9	22276
864.032	22219
864.164	22276
864.296	22219
864.428	22424
864.559	22436
864.691	22375
864.823	22249
864.954	22375
865.086	22265
865.217	22238
865.349	22082
865.48	22101
865.612	22211
865.743	22329
865.875	22204
866.006	22147
866.137	22230
866.269	22253
866.4	22177
866.531	22188
866.662	22116
866.793	22059
866.924	22169
867.055	22105
867.186	22139
867.317	22162
867.448	22002
867.579	22078
867.71	22116
867.841	21964
867.972	22162
868.103	22097
868.233	22048
868.364	22124
868.495	22246
868.625	22390
868.756	22428
868.886	22177
869.017	22303
869.147	22481
869.278	22394
869.408	22421
869.539	22299
869.669	22314
869.799	22363
869.929	22538
870.06	22508
870.19	22691
870.32	22580
870.45	22675
870.58	22805
870.71	22949
870.84	22733
870.97	22797
871.1	22725
871.23	22854
871.36	22953
871.489	22797
871.619	22873
871.749	22904
871.879	22991
872.008	22923
872.138	22934
872.267	22991
872.397	22824
872.526	22755
872.656	22862
872.785	22793
872.915	23094
873.044	23075
873.173	22949
873.303	22961
873.432	23067
873.561	23018
873.69	22991
873.819	22961
873.948	22930
874.077	22908
874.206	22965
874.335	22930
874.464	23048
874.593	23223
874.722	23075
874.851	23250
874.979	23147
875.108	23178
875.237	23067
875.365	22930
875.494	23140
875.623	23239
875.751	23178
875.88	23064
876.008	23239
876.136	23360
876.265	23611
876.393	23775
876.521	23783
876.65	23608
876.778	23589
876.906	23486
877.034	23539
877.162	23608
877.29	23505
877.418	23547
877.546	23493
877.674	23398
877.802	23531
877.93	23486
878.058	23493
878.185	23429
878.313	23478
878.441	23391
878.568	23326
878.696	23360
878.824	23531
878.951	23512
879.079	23630
879.206	23821
879.333	23611
879.461	23573
879.588	23581
879.715	23741
879.842	23726
879.97	23566
880.097	23258
880.224	23356
880.351	23391
880.478	23414
880.605	23337
880.732	23425
880.859	23604
880.986	23269
881.112	23288
881.239	23265
881.366	22980
881.493	22942
881.619	22911
881.746	22987
881.872	22877
881.999	22889
882.125	22755
882.252	23029
882.378	22881
882.505	22911
882.631	22626
882.757	22618
882.883	22580
883.01	22489
883.136	22489
883.262	22462
883.388	22265
883.514	22497
883.64	22584
883.766	22382
883.892	22322
884.018	22265
884.143	22405
884.269	22538
884.395	22230
884.52	22120
884.646	22124
884.772	22200
884.897	22078
885.023	22177
885.148	22234
885.274	22382
885.399	22276
885.524	22173
885.65	22177
885.775	22185
885.9	22128
886.025	22154
886.15	22284
886.275	22158
886.4	22090
886.525	22265
886.65	22055
886.775	22124
886.9	22211
887.025	22284
887.149	22166
887.274	22021
887.399	21964
887.523	21949
887.648	22006
887.773	21827
887.897	21922
888.021	21937
888.146	21781
888.27	22074
888.395	21937
888.519	21907
888.643	21911
888.767	21964
888.891	21934
889.015	21762
889.139	21850
889.263	21739
889.387	21865
889.511	21838
889.635	21854
889.759	21656
889.883	21694
890.006	21789
890.13	21778
890.254	21709
890.377	21698
890.501	21443
890.624	21538
890.748	21496
890.871	21416
890.995	21233
891.118	21203
891.241	21264
891.364	21329
891.488	21386
891.611	21332
891.734	21260
891.857	21382
891.98	21249
892.103	21359
892.226	21211
892.349	21237
892.471	21093
892.594	21119
892.717	21252
892.839	21119
892.962	21249
893.085	21226
893.207	21104
893.33	21112
893.452	21096
893.575	21245
893.697	21112
893.819	21291
893.941	21405
894.064	21298
894.186	21180
894.308	21116
894.43	21256
894.552	21302
894.674	21245
894.796	21062
894.918	21157
895.04	21157
895.161	21203
895.283	21260
895.405	21096
895.526	21131
895.648	21154
895.769	21249
895.891	21226
896.012	21135
896.134	21180
896.255	21245
896.376	21249
896.498	21093
896.619	21142
896.74	21154
896.861	21135
896.982	21450
897.103	21519
897.224	21439
897.345	21325
897.466	21275
897.587	21370
897.708	21458
897.828	21428
897.949	21222
898.07	21226
898.19	21199
898.311	21435
898.431	21317
898.552	21336
898.672	21306
898.792	21416
898.913	21363
899.033	21192
899.153	21150
899.273	21108
899.393	21074
899.513	20979
899.633	21135
899.753	21226
899.873	20952
899.993	21074
900.113	21028
900.232	20994
900.352	20963
900.472	20925
900.591	20861
900.711	20864
900.83	20777
900.95	20861
901.069	20845
901.189	20754
901.308	20564
901.427	20374
901.546	20549
901.665	20385
901.784	20461
901.904	20286
902.023	20081
902.141	19963
902.26	19868
902.379	20122
902.498	19974
902.617	19909
902.735	19906
902.854	19833
902.973	19826
903.091	19525
903.21	19685
903.328	19533
903.446	19525
903.565	19335
903.683	19365
903.801	19324
903.919	19343
904.038	19228
904.156	19190
904.274	19103
904.392	19065
904.51	19050
904.627	19088
904.745	19251
904.863	19232
904.981	19004
905.098	18806
905.216	18833
905.334	18875
905.451	18882
905.569	18787
905.686	18783
905.803	18814
905.921	18631
906.038	18559
906.155	18661
906.272	18471
906.389	18502
906.506	18369
906.623	18289
906.74	18353
906.857	18174
906.974	18194
907.091	18372
907.208	18445
907.324	18304
907.441	18167
907.557	17992
907.674	18117
907.79	17912
907.907	17897
908.023	18064
908.139	17961
908.256	17958
908.372	17992
908.488	17958
908.604	17764
908.72	17847
908.836	17691
908.952	17710
909.068	17786
909.184	17840
909.3	17676
909.415	17764
909.531	17649
909.647	17528
909.762	17482
909.878	17497
909.993	17353
910.108	17467
910.224	17402
910.339	17436
910.454	17277
910.57	17246
910.685	17231
910.8	17478
910.915	17277
911.03	17159
911.145	17136
911.259	17117
911.374	17014
911.489	16904
911.604	16847
911.718	16793
911.833	16793
911.947	16630
912.062	16592
912.176	16839
912.291	16763
912.405	16786
912.519	16904
912.633	16946
912.748	16828
912.862	16752
912.976	16603
913.09	16462
913.204	16478
913.318	16565
913.431	16561
913.545	16622
913.659	16725
913.772	16531
913.886	16447
914	16303
914.113	16348
914.226	16432
914.34	16504
914.453	16303
914.566	16394
914.68	16219
914.793	16204
914.906	16044
915.019	15907
915.132	15922
915.245	15907
915.358	15869
915.47	15937
915.583	15915
915.696	15884
915.809	16017
915.921	15994
916.034	15816
916.146	15854
916.259	15778
916.371	15838
916.483	15812
916.595	15709
916.708	15759
916.82	15755
916.932	15564
917.044	15663
917.156	15622
917.268	15599
917.38	15542
917.491	15534
917.603	15557
917.715	15610
917.826	15622
917.938	15477
918.049	15367
918.161	15462
918.272	15625
918.384	15652
918.495	15496
918.606	15374
918.717	15237
918.828	15412
918.939	15397
919.05	15176
919.161	15363
919.272	15081
919.383	15169
919.494	15317
919.604	15439
919.715	15298
919.826	15150
919.936	15260
920.047	15298
920.157	15184
920.267	15439
920.378	15180
920.488	15188
920.598	15382
920.708	15622
920.818	15336
920.928	15439
921.038	15492
921.148	15500
921.258	15142
921.368	15097
921.477	15081
921.587	14971
921.697	14796
921.806	14967
921.916	14842
922.025	14610
922.134	14636
922.244	14598
922.353	14617
922.462	14499
922.571	14362
922.68	14229
922.789	14164
922.898	14294
923.007	14142
923.116	14328
923.224	14225
923.333	14240
923.442	14073
923.55	14084
923.659	14088
923.767	14092
923.876	14043
923.984	14035
924.092	13928
924.201	14012
924.309	13974
924.417	13951
924.525	13902
924.633	13868
924.741	14838
924.849	13658
924.956	13727
925.064	13597
925.172	13487
925.279	13540
925.387	13655
925.494	13632
925.602	13734
925.709	13529
925.816	13514
925.924	13510
926.031	13696
926.138	13636
926.245	13636
926.352	13464
926.459	13586
926.566	13537
926.673	13434
926.779	13316
926.886	13228
926.993	13221
927.099	13247
927.206	13133
927.312	13008
927.419	13149
927.525	13072
927.631	13126
927.737	13004
927.843	13034
927.95	12863
928.056	12920
928.162	12943
928.267	13004
928.373	13514
928.479	13099
928.585	12817
928.69	12837
928.796	13042
928.901	12871
929.007	12684
929.112	12715
929.218	12696
929.323	12620
929.428	12700
929.533	12829
929.638	12616
929.743	12585
929.848	12608
929.953	12620
930.058	12585
930.163	12262
930.267	12273
930.372	12464
930.477	12270
930.581	12452
930.685	12308
930.79	12175
930.894	12308
930.998	12213
931.103	12289
931.207	11939
931.311	11931
931.415	11745
931.519	11657
931.623	11600
