Data from test_V78500241_389.txt Node
Date: Fri Mar 25 15:44:29 CST 2022
User: usil
Spectrometer: V785-0024
Trigger mode: 0
Integration Time (sec): 4.000000E-1
Scans to average: 1
Nonlinearity correction enabled: false
Boxcar width: 0
Storing dark spectrum: false
XAxis mode: Wavelengths
Number of Pixels in Spectrum: 1024
>>>>>Begin Spectral Data<<<<<
801.071	29322
801.214	29288
801.356	29128
801.499	29254
801.641	28965
801.783	28987
801.926	29113
802.068	28999
802.211	28858
802.353	28672
802.496	28767
802.638	28733
802.78	28683
802.923	28584
803.065	28531
803.208	28710
803.35	28569
803.492	28888
803.635	28843
803.777	28759
803.919	28793
804.061	29098
804.204	28854
804.346	28793
804.488	28653
804.63	28927
804.773	28672
804.915	28915
805.057	28987
805.199	28706
805.341	28881
805.483	28919
805.626	28847
805.768	28702
805.91	28923
806.052	28862
806.194	28869
806.336	29086
806.478	28980
806.62	28900
806.762	29033
806.904	29311
807.046	29478
807.188	29471
807.33	29326
807.472	29699
807.614	29353
807.756	29242
807.898	29147
808.04	29288
808.182	29231
808.324	29223
808.465	29197
808.607	29463
808.749	29680
808.891	29745
809.033	29805
809.174	29615
809.316	29490
809.458	29649
809.6	29665
809.741	29851
809.883	29722
810.025	29859
810.166	29874
810.308	29862
810.45	30015
810.591	29980
810.733	29703
810.875	29630
811.016	29490
811.158	29505
811.299	29729
811.441	29737
811.582	29783
811.724	29653
811.865	29585
812.007	29562
812.148	29551
812.29	29554
812.431	29665
812.573	29809
812.714	29866
812.855	30079
812.997	30144
813.138	30342
813.279	30254
813.421	30209
813.562	30079
813.703	29969
813.845	29851
813.986	29528
814.127	29497
814.268	29467
814.41	29402
814.551	29269
814.692	29497
814.833	29220
814.974	29318
815.115	29345
815.256	29094
815.397	29109
815.539	29311
815.68	29075
815.821	29018
815.962	29022
816.103	28984
816.244	28854
816.385	28942
816.526	28668
816.666	28542
816.807	28474
816.948	28390
817.089	28774
817.23	28683
817.371	28615
817.512	28519
817.653	28489
817.793	28500
817.934	28466
818.075	28577
818.216	28508
818.356	28394
818.497	28401
818.638	28192
818.778	28196
818.919	28246
819.06	28287
819.2	28417
819.341	28603
819.481	28535
819.622	28630
819.762	28771
819.903	28748
820.043	28622
820.184	28607
820.324	28668
820.465	28812
820.605	28618
820.746	28580
820.886	28424
821.026	28512
821.167	28535
821.307	28630
821.447	28527
821.588	28249
821.728	28318
821.868	27846
822.008	27934
822.149	27937
822.289	27888
822.429	27739
822.569	27720
822.709	27439
822.849	27317
822.99	27458
823.13	27466
823.27	27332
823.41	27260
823.55	27096
823.69	27294
823.83	27264
823.97	27222
824.11	27119
824.25	26929
824.389	26975
824.529	27096
824.669	26963
824.809	27161
824.949	27157
825.089	27066
825.228	27024
825.368	26834
825.508	26895
825.648	26975
825.787	26982
825.927	26849
826.067	26815
826.206	26918
826.346	26807
826.485	26868
826.625	26830
826.765	27005
826.904	26979
827.044	26613
827.183	26545
827.323	26613
827.462	26636
827.601	26568
827.741	26682
827.88	26625
828.02	26606
828.159	26617
828.298	26552
828.437	26461
828.577	26507
828.716	26651
828.855	26488
828.994	26210
829.134	26286
829.273	26282
829.412	26218
829.551	26221
829.69	26286
829.829	26290
829.968	26320
830.107	26389
830.246	26317
830.385	26161
830.524	26062
830.663	26024
830.802	25932
830.941	25780
831.08	25799
831.219	25822
831.357	25833
831.496	26077
831.635	25753
831.774	25693
831.913	25776
832.051	25605
832.19	25784
832.329	25620
832.467	25518
832.606	25422
832.744	25464
832.883	25381
833.022	25369
833.16	25487
833.299	25377
833.437	25449
833.576	25537
833.714	25624
833.852	25479
833.991	25578
834.129	25540
834.267	25453
834.406	25426
834.544	25510
834.682	25514
834.821	25362
834.959	25632
835.097	25373
835.235	25460
835.373	25506
835.511	25400
835.65	25308
835.788	25449
835.926	25202
836.064	25099
836.202	25213
836.34	25190
836.478	25453
836.615	25240
836.753	25327
836.891	25343
837.029	25343
837.167	25225
837.305	25168
837.443	25122
837.58	25160
837.718	25255
837.856	25209
837.993	25000
838.131	25118
838.269	24996
838.406	25027
838.544	24916
838.681	24814
838.819	24661
838.956	24505
839.094	24566
839.231	24582
839.369	24760
839.506	24935
839.643	24825
839.781	24505
839.918	24509
840.055	24525
840.193	24471
840.33	24460
840.467	24646
840.604	24426
840.742	24726
840.879	24296
841.016	24266
841.153	24342
841.29	24574
841.427	24452
841.564	24433
841.701	24407
841.838	24433
841.975	24304
842.112	24350
842.249	24220
842.385	24251
842.522	24262
842.659	24235
842.796	24152
842.933	24148
843.069	24205
843.206	24106
843.343	24243
843.479	24155
843.616	24148
843.752	23863
843.889	23946
844.025	24060
844.162	23779
844.298	23958
844.435	23779
844.571	23901
844.708	23996
844.844	23958
844.98	23969
845.117	23920
845.253	23703
845.389	23882
845.525	23775
845.661	23703
845.798	23680
845.934	23653
846.07	23547
846.206	23585
846.342	23786
846.478	23737
846.614	23406
846.75	23315
846.886	23288
847.022	23406
847.158	23284
847.294	23284
847.429	23292
847.565	23242
847.701	23429
847.837	23060
847.972	22984
848.108	23048
848.244	23064
848.379	22885
848.515	22843
848.65	22892
848.786	22980
848.921	22957
849.057	22987
849.192	23071
849.328	22896
849.463	22911
849.598	22771
849.734	22729
849.869	22683
850.004	22774
850.14	22664
850.275	22607
850.41	22706
850.545	22615
850.68	22641
850.815	22596
850.95	22542
851.085	22831
851.22	22744
851.355	22641
851.49	22603
851.625	22550
851.76	22694
851.895	22618
852.03	22481
852.165	22459
852.299	22698
852.434	22637
852.569	22603
852.703	22649
852.838	22675
852.973	22668
853.107	22771
853.242	22622
853.376	22451
853.511	22314
853.645	22508
853.78	22569
853.914	22580
854.048	22481
854.183	22546
854.317	22474
854.451	22675
854.585	22489
854.72	22341
854.854	22538
854.988	22394
855.122	22268
855.256	22265
855.39	22436
855.524	22424
855.658	22428
855.792	22440
855.926	22493
856.06	22508
856.194	22432
856.327	22341
856.461	22360
856.595	22363
856.729	22402
856.862	22489
856.996	22523
857.13	22508
857.263	22489
857.397	22489
857.53	22481
857.664	22402
857.797	22424
857.931	22592
858.064	22337
858.197	22557
858.331	22356
858.464	22253
858.597	22360
858.731	22379
858.864	22417
858.997	22268
859.13	22443
859.263	22478
859.396	22470
859.529	22421
859.662	22424
859.795	22382
859.928	22352
860.061	22485
860.194	22649
860.327	22333
860.46	22428
860.592	22413
860.725	22542
860.858	22565
860.99	22280
861.123	22249
861.256	22481
861.388	22360
861.521	22991
861.653	22196
861.786	22169
861.918	22116
862.05	22211
862.183	22379
862.315	22466
862.447	22447
862.58	22325
862.712	22090
862.844	22185
862.976	22306
863.108	22070
863.24	22504
863.372	21953
863.504	22048
863.636	22116
863.768	22150
863.9	22067
864.032	22055
864.164	22162
864.296	22112
864.428	22131
864.559	22090
864.691	22261
864.823	22021
864.954	22029
865.086	21949
865.217	22010
865.349	21846
865.48	21983
865.612	21926
865.743	22002
865.875	21926
866.006	21987
866.137	21998
866.269	21819
866.4	22029
866.531	21937
866.662	21819
866.793	21934
866.924	21987
867.055	21960
867.186	21842
867.317	21739
867.448	21895
867.579	21800
867.71	21838
867.841	21800
867.972	21793
868.103	21785
868.233	21903
868.364	21743
868.495	21949
868.625	22196
868.756	22215
868.886	22116
869.017	21975
869.147	22192
869.278	22215
869.408	22055
869.539	22116
869.669	22070
869.799	22097
869.929	22276
870.06	22169
870.19	22310
870.32	22356
870.45	22519
870.58	22451
870.71	22645
870.84	22656
870.97	22519
871.1	22462
871.23	22645
871.36	22744
871.489	22645
871.619	22641
871.749	22603
871.879	22748
872.008	22873
872.138	22645
872.267	22645
872.397	22694
872.526	22599
872.656	22512
872.785	22660
872.915	22740
873.044	22710
873.173	22805
873.303	22771
873.432	22691
873.561	22953
873.69	22649
873.819	22649
873.948	22733
874.077	22812
874.206	22683
874.335	22603
874.464	22759
874.593	22919
874.722	22839
874.851	22946
874.979	23083
875.108	23010
875.237	22869
875.365	22923
875.494	22946
875.623	23022
875.751	23006
875.88	22987
876.008	23083
876.136	23189
876.265	23227
876.393	23467
876.521	23486
876.65	23364
876.778	23292
876.906	23322
877.034	23185
877.162	23307
877.29	23204
877.418	23353
877.546	23273
877.674	23204
877.802	23341
877.93	23364
878.058	23155
878.185	23147
878.313	23216
878.441	23318
878.568	23113
878.696	23117
878.824	23280
878.951	23433
879.079	23493
879.206	23611
879.333	23383
879.461	23299
879.588	23440
879.715	23455
879.842	23505
879.97	23376
880.097	23155
880.224	23041
880.351	23067
880.478	22972
880.605	23083
880.732	23113
880.859	23269
880.986	23090
881.112	23216
881.239	22896
881.366	22858
881.493	22831
881.619	22755
881.746	22675
881.872	22748
881.999	22630
882.125	22542
882.252	22649
882.378	22653
882.505	22710
882.631	22546
882.757	22462
882.883	22344
883.01	22295
883.136	22265
883.262	22109
883.388	22219
883.514	22470
883.64	22459
883.766	22257
883.892	22128
884.018	22226
884.143	22314
884.269	22478
884.395	22055
884.52	21869
884.646	22070
884.772	21991
884.897	21911
885.023	22097
885.148	22211
885.274	22169
885.399	22059
885.524	22032
885.65	21987
885.775	21956
885.9	21975
886.025	22162
886.15	22230
886.275	21926
886.4	21873
886.525	21979
886.65	21926
886.775	21899
886.9	22101
887.025	22116
887.149	21941
887.274	21884
887.399	21713
887.523	21667
887.648	21736
887.773	21660
887.897	21930
888.021	21778
888.146	21705
888.27	21838
888.395	21895
888.519	21728
888.643	21736
888.767	21781
888.891	21625
889.015	21568
889.139	21568
889.263	21481
889.387	21637
889.511	21656
889.635	21709
889.759	21485
889.883	21424
890.006	21458
890.13	21660
890.254	21431
890.377	21473
890.501	21298
890.624	21116
890.748	21245
890.871	21207
890.995	21028
891.118	21077
891.241	21146
891.364	21043
891.488	21150
891.611	20960
891.734	20960
891.857	21226
891.98	21051
892.103	21013
892.226	21116
892.349	21036
892.471	20872
892.594	20971
892.717	20956
892.839	21013
892.962	20979
893.085	21036
893.207	20994
893.33	20857
893.452	20796
893.575	20986
893.697	20948
893.819	21150
893.941	21108
894.064	21043
894.186	20887
894.308	20853
894.43	21028
894.552	21104
894.674	20967
894.796	20762
894.918	20982
895.04	20895
895.161	20952
895.283	20952
895.405	20880
895.526	20910
895.648	20864
895.769	21013
895.891	20925
896.012	21055
896.134	21058
896.255	20910
896.376	20925
896.498	20853
896.619	21017
896.74	20918
896.861	21241
896.982	21336
897.103	21351
897.224	21222
897.345	21119
897.466	21017
897.587	21195
897.708	21287
897.828	21256
897.949	21036
898.07	21066
898.19	21013
898.311	21142
898.431	21226
898.552	21154
898.672	21169
898.792	21157
898.913	21203
899.033	20918
899.153	21055
899.273	20899
899.393	20887
899.513	20826
899.633	20826
899.753	20781
899.873	20746
899.993	20815
900.113	20857
900.232	20921
900.352	20845
900.472	20636
900.591	20648
900.711	20621
900.83	20568
900.95	20800
901.069	20686
901.189	20541
901.308	20351
901.427	20206
901.546	20153
901.665	20305
901.784	20252
901.904	20092
902.023	20039
902.141	19803
902.26	19734
902.379	19860
902.498	19655
902.617	19658
902.735	19769
902.854	19655
902.973	19586
903.091	19301
903.21	19453
903.328	19403
903.446	19285
903.565	19164
903.683	19251
903.801	19050
903.919	19152
904.038	19069
904.156	18837
904.274	19031
904.392	18871
904.51	18951
904.627	18909
904.745	18920
904.863	18844
904.981	18623
905.098	18593
905.216	18620
905.334	18604
905.451	18559
905.569	18585
905.686	18555
905.803	18585
905.921	18414
906.038	18391
906.155	18441
906.272	18224
906.389	18216
906.506	18095
906.623	18091
906.74	18011
906.857	18019
906.974	18007
907.091	18228
907.208	18140
907.324	17992
907.441	17969
907.557	17843
907.674	17821
907.79	17885
907.907	17832
908.023	17805
908.139	17817
908.256	17687
908.372	17668
908.488	17649
908.604	17562
908.72	17562
908.836	17497
908.952	17490
909.068	17444
909.184	17558
909.3	17448
909.415	17501
909.531	17539
909.647	17147
909.762	17025
909.878	17204
909.993	17239
910.108	17170
910.224	17075
910.339	17159
910.454	16961
910.57	16999
910.685	16927
910.8	17128
910.915	17166
911.03	16953
911.145	16805
911.259	16687
911.374	16755
911.489	16550
911.604	16588
911.718	16500
911.833	16481
911.947	16478
912.062	16512
912.176	16470
912.291	16424
912.405	16561
912.519	16649
912.633	16603
912.748	16413
912.862	16382
912.976	16291
913.09	16230
913.204	16166
913.318	16215
913.431	16390
913.545	16341
913.659	16382
913.772	16177
913.886	16078
914	16048
914.113	16150
914.226	16162
914.34	16074
914.453	16013
914.566	16139
914.68	15964
914.793	15994
914.906	15823
915.019	15701
915.132	15663
915.245	15675
915.358	15671
915.47	15774
915.583	15576
915.696	15701
915.809	15766
915.921	15686
916.034	15603
916.146	15561
916.259	15477
916.371	15606
916.483	15526
916.595	15572
916.708	15469
916.82	15443
916.932	15405
917.044	15473
917.156	15492
917.268	15310
917.38	15401
917.491	15176
917.603	15287
917.715	15428
917.826	15500
917.938	15176
918.049	15066
918.161	15340
918.272	15401
918.384	15298
918.495	15230
918.606	15066
918.717	14956
918.828	15020
918.939	15001
919.05	15001
919.161	14963
919.272	14830
919.383	14876
919.494	15100
919.604	15100
919.715	15017
919.826	14937
919.936	14910
920.047	15032
920.157	15005
920.267	15142
920.378	15024
920.488	14979
920.598	15127
920.708	15370
920.818	15001
920.928	15081
921.038	15279
921.148	15192
921.258	14929
921.368	14796
921.477	14708
921.587	14708
921.697	14568
921.806	14739
921.916	14499
922.025	14465
922.134	14336
922.244	14298
922.353	14324
922.462	14225
922.571	14218
922.68	14073
922.789	13963
922.898	14016
923.007	13917
923.116	13898
923.224	13936
923.333	13936
923.442	13845
923.55	13860
923.659	13811
923.767	13830
923.876	13712
923.984	13849
924.092	13727
924.201	13719
924.309	13616
924.417	13696
924.525	13468
924.633	13696
924.741	14583
924.849	13476
924.956	13548
925.064	13388
925.172	13320
925.279	13403
925.387	13472
925.494	13396
925.602	13430
925.709	13377
925.816	13278
925.924	13331
926.031	13415
926.138	13312
926.245	13411
926.352	13171
926.459	13282
926.566	13403
926.673	13297
926.779	13107
926.886	13160
926.993	12981
927.099	12939
927.206	12821
927.312	12882
927.419	13012
927.525	12867
927.631	12913
927.737	12768
927.843	12745
927.95	12585
928.056	12757
928.162	12730
928.267	12783
928.373	13362
928.479	12844
928.585	12574
928.69	12681
928.796	12658
928.901	12635
929.007	12426
929.112	12509
929.218	12597
929.323	12521
929.428	12555
929.533	12601
929.638	12365
929.743	12334
929.848	12426
929.953	12410
930.058	12281
930.163	12106
930.267	12182
930.372	12251
930.477	11996
930.581	12350
930.685	12190
930.79	12015
930.894	11992
930.998	11920
931.103	12125
931.207	11688
931.311	11668
931.415	11562
931.519	11471
931.623	11387
