Data from test_V78500241_3020.txt Node
Date: Fri Mar 25 16:02:43 CST 2022
User: usil
Spectrometer: V785-0024
Trigger mode: 0
Integration Time (sec): 4.000000E-1
Scans to average: 1
Nonlinearity correction enabled: false
Boxcar width: 0
Storing dark spectrum: false
XAxis mode: Wavelengths
Number of Pixels in Spectrum: 1024
>>>>>Begin Spectral Data<<<<<
801.071	28793
801.214	28725
801.356	28459
801.499	28405
801.641	28329
801.783	28204
801.926	28382
802.068	28234
802.211	28272
802.353	28204
802.496	28040
802.638	27998
802.78	27964
802.923	27937
803.065	27987
803.208	28025
803.35	27983
803.492	28051
803.635	28192
803.777	28086
803.919	28230
804.061	28470
804.204	28249
804.346	28158
804.488	28154
804.63	28246
804.773	28192
804.915	28272
805.057	28424
805.199	28276
805.341	28356
805.483	28489
805.626	28401
805.768	28268
805.91	28394
806.052	28588
806.194	28424
806.336	28584
806.478	28394
806.62	28523
806.762	28607
806.904	28675
807.046	28767
807.188	28752
807.33	28900
807.472	28866
807.614	28839
807.756	28980
807.898	28774
808.04	28687
808.182	28694
808.324	28645
808.465	28725
808.607	28908
808.749	29098
808.891	29079
809.033	29364
809.174	29197
809.316	29071
809.458	28984
809.6	29003
809.741	29185
809.883	29360
810.025	29440
810.166	29436
810.308	29254
810.45	29360
810.591	29178
810.733	29235
810.875	29220
811.016	29067
811.158	29075
811.299	29181
811.441	29212
811.582	29326
811.724	29178
811.865	29094
812.007	29117
812.148	29102
812.29	29197
812.431	29250
812.573	29444
812.714	29493
812.855	29516
812.997	29672
813.138	29931
813.279	29786
813.421	29543
813.562	29573
813.703	29436
813.845	29375
813.986	29121
814.127	28896
814.268	28759
814.41	28793
814.551	28820
814.692	28885
814.833	28930
814.974	28622
815.115	28759
815.256	28683
815.397	28611
815.539	28771
815.68	28519
815.821	28497
815.962	28649
816.103	28653
816.244	28531
816.385	28455
816.526	28531
816.666	28295
816.807	28124
816.948	28272
817.089	28367
817.23	28249
817.371	28067
817.512	28204
817.653	28036
817.793	28162
817.934	28032
818.075	28158
818.216	28177
818.356	28086
818.497	27960
818.638	27914
818.778	27964
818.919	27918
819.06	27975
819.2	28090
819.341	28268
819.481	28177
819.622	28432
819.762	28474
819.903	28508
820.043	28436
820.184	28360
820.324	28341
820.465	28428
820.605	28382
820.746	28204
820.886	28124
821.026	28306
821.167	28211
821.307	28226
821.447	28253
821.588	28131
821.728	27975
821.868	27682
822.008	27618
822.149	27656
822.289	27583
822.429	27405
822.569	27367
822.709	27443
822.849	27112
822.99	27226
823.13	27165
823.27	27226
823.41	26971
823.55	26800
823.69	26967
823.83	27009
823.97	26895
824.11	26800
824.25	26724
824.389	26807
824.529	26830
824.669	26845
824.809	26902
824.949	26918
825.089	26883
825.228	26720
825.368	26625
825.508	26663
825.648	26781
825.787	26663
825.927	26689
826.067	26758
826.206	26670
826.346	26708
826.485	26735
826.625	26682
826.765	26807
826.904	26739
827.044	26484
827.183	26560
827.323	26408
827.462	26484
827.601	26419
827.741	26393
827.88	26396
828.02	26176
828.159	26385
828.298	26533
828.437	26499
828.577	26343
828.716	26412
828.855	26339
828.994	26134
829.134	25978
829.273	26065
829.412	26164
829.551	25982
829.69	26176
829.829	26126
829.968	26073
830.107	26259
830.246	26157
830.385	25947
830.524	26043
830.663	25890
830.802	25761
830.941	25772
831.08	25712
831.219	25746
831.357	25674
831.496	25986
831.635	25624
831.774	25518
831.913	25426
832.051	25639
832.19	25685
832.329	25556
832.467	25381
832.606	25324
832.744	25236
832.883	25422
833.022	25335
833.16	25354
833.299	25327
833.437	25537
833.576	25460
833.714	25266
833.852	25518
833.991	25449
834.129	25396
834.267	25495
834.406	25445
834.544	25468
834.682	25354
834.821	25487
834.959	25658
835.097	25411
835.235	25491
835.373	25316
835.511	25476
835.65	25324
835.788	25343
835.926	25148
836.064	25069
836.202	25160
836.34	25339
836.478	25415
836.615	25110
836.753	25148
836.891	25316
837.029	25171
837.167	25114
837.305	25164
837.443	25141
837.58	25038
837.718	25053
837.856	25080
837.993	25004
838.131	25057
838.269	24920
838.406	24897
838.544	24894
838.681	24738
838.819	24730
838.956	24467
839.094	24505
839.231	24578
839.369	24719
839.506	24913
839.643	24871
839.781	24525
839.918	24532
840.055	24429
840.193	24578
840.33	24502
840.467	24403
840.604	24589
840.742	24700
840.879	24372
841.016	24429
841.153	24289
841.29	24544
841.427	24464
841.564	24475
841.701	24464
841.838	24414
841.975	24251
842.112	24448
842.249	24327
842.385	24216
842.522	24426
842.659	24365
842.796	24140
842.933	24213
843.069	24224
843.206	24205
843.343	24258
843.479	24327
843.616	24239
843.752	24018
843.889	23958
844.025	24197
844.162	23973
844.298	24087
844.435	24072
844.571	23939
844.708	24015
844.844	24125
844.98	24201
845.117	24098
845.253	23977
845.389	23996
845.525	23817
845.661	23904
845.798	23775
845.934	23809
846.07	23710
846.206	23729
846.342	23733
846.478	23779
846.614	23634
846.75	23433
846.886	23433
847.022	23440
847.158	23528
847.294	23425
847.429	23505
847.565	23372
847.701	23661
847.837	23124
847.972	23254
848.108	23356
848.244	23410
848.379	23124
848.515	23037
848.65	22991
848.786	23044
848.921	23010
849.057	23159
849.192	23033
849.328	23083
849.463	23124
849.598	23048
849.734	22927
849.869	22824
850.004	22729
850.14	22835
850.275	22805
850.41	22748
850.545	22580
850.68	22736
850.815	22835
850.95	22812
851.085	22957
851.22	22938
851.355	22809
851.49	22793
851.625	22694
851.76	22763
851.895	22649
852.03	22736
852.165	22679
852.299	22710
852.434	22805
852.569	22908
852.703	22744
852.838	22892
852.973	22965
853.107	22991
853.242	22790
853.376	22660
853.511	22508
853.645	22645
853.78	22755
853.914	22607
854.048	22618
854.183	22607
854.317	22721
854.451	22767
854.585	22698
854.72	22672
854.854	22736
854.988	22596
855.122	22683
855.256	22413
855.39	22618
855.524	22672
855.658	22809
855.792	22588
855.926	22637
856.06	22622
856.194	22672
856.327	22622
856.461	22485
856.595	22474
856.729	22713
856.862	22702
856.996	22675
857.13	22675
857.263	22679
857.397	22778
857.53	22630
857.664	22656
857.797	22725
857.931	22733
858.064	22752
858.197	22744
858.331	22626
858.464	22554
858.597	22474
858.731	22668
858.864	22607
858.997	22672
859.13	22637
859.263	22592
859.396	22767
859.529	22668
859.662	22603
859.795	22577
859.928	22626
860.061	22828
860.194	22816
860.327	22603
860.46	22664
860.592	22767
860.725	22774
860.858	22744
860.99	22653
861.123	22645
861.256	22596
861.388	22675
861.521	23452
861.653	22447
861.786	22440
861.918	22455
862.05	22542
862.183	22573
862.315	22577
862.447	22653
862.58	22459
862.712	22295
862.844	22211
862.976	22504
863.108	22417
863.24	22862
863.372	22314
863.504	22386
863.636	22325
863.768	22398
863.9	22356
864.032	22169
864.164	22265
864.296	22238
864.428	22344
864.559	22512
864.691	22371
864.823	22291
864.954	22352
865.086	22295
865.217	22173
865.349	22196
865.48	22223
865.612	22261
865.743	22280
865.875	22192
866.006	22181
866.137	22166
866.269	22234
866.4	22234
866.531	22166
866.662	22154
866.793	22188
866.924	22280
867.055	22093
867.186	22188
867.317	22147
867.448	22059
867.579	22185
867.71	22051
867.841	22116
867.972	22169
868.103	22173
868.233	22280
868.364	22105
868.495	22109
868.625	22325
868.756	22504
868.886	22223
869.017	22322
869.147	22474
869.278	22459
869.408	22284
869.539	22306
869.669	22405
869.799	22443
869.929	22493
870.06	22516
870.19	22736
870.32	22706
870.45	22744
870.58	22774
870.71	22881
870.84	22930
870.97	22767
871.1	22831
871.23	23033
871.36	23105
871.489	22930
871.619	22965
871.749	23071
871.879	22911
872.008	23140
872.138	22892
872.267	22984
872.397	22828
872.526	22847
872.656	22824
872.785	22782
872.915	23006
873.044	23037
873.173	22923
873.303	23056
873.432	23029
873.561	23033
873.69	22885
873.819	22911
873.948	23208
874.077	23064
874.206	23014
874.335	22980
874.464	23147
874.593	23250
874.722	23159
874.851	23364
874.979	23246
875.108	23220
875.237	23258
875.365	23060
875.494	23189
875.623	23242
875.751	23273
875.88	23178
876.008	23269
876.136	23398
876.265	23600
876.393	23756
876.521	23672
876.65	23680
876.778	23608
876.906	23547
877.034	23497
877.162	23668
877.29	23459
877.418	23497
877.546	23520
877.674	23657
877.802	23562
877.93	23505
878.058	23543
878.185	23516
878.313	23474
878.441	23520
878.568	23368
878.696	23474
878.824	23486
878.951	23600
879.079	23748
879.206	23809
879.333	23722
879.461	23710
879.588	23642
879.715	23729
879.842	23847
879.97	23531
880.097	23376
880.224	23421
880.351	23455
880.478	23531
880.605	23341
880.732	23455
880.859	23627
880.986	23356
881.112	23429
881.239	23246
881.366	23128
881.493	22953
881.619	23014
881.746	22934
881.872	22869
881.999	22869
882.125	22938
882.252	22919
882.378	22858
882.505	23124
882.631	22782
882.757	22637
882.883	22790
883.01	22546
883.136	22622
883.262	22550
883.388	22398
883.514	22573
883.64	22649
883.766	22550
883.892	22508
884.018	22398
884.143	22356
884.269	22561
884.395	22268
884.52	22109
884.646	22413
884.772	22063
884.897	22177
885.023	22135
885.148	22253
885.274	22375
885.399	22310
885.524	22154
885.65	22310
885.775	22280
885.9	22223
886.025	22405
886.15	22341
886.275	22242
886.4	22147
886.525	22295
886.65	22204
886.775	22169
886.9	22268
887.025	22417
887.149	22135
887.274	21945
887.399	22040
887.523	21892
887.648	21861
887.773	21816
887.897	22002
888.021	22048
888.146	21934
888.27	22059
888.395	21941
888.519	22105
888.643	21903
888.767	22188
888.891	21812
889.015	21816
889.139	21842
889.263	21793
889.387	21926
889.511	22010
889.635	21892
889.759	21823
889.883	21800
890.006	21660
890.13	21789
890.254	21778
890.377	21705
890.501	21534
890.624	21488
890.748	21583
890.871	21412
890.995	21408
891.118	21275
891.241	21272
891.364	21386
891.488	21374
891.611	21294
891.734	21355
891.857	21321
891.98	21367
892.103	21435
892.226	21245
892.349	21214
892.471	21116
892.594	21313
892.717	21214
892.839	21298
892.962	21131
893.085	21249
893.207	21294
893.33	21104
893.452	21176
893.575	21241
893.697	21207
893.819	21393
893.941	21431
894.064	21389
894.186	21176
894.308	21154
894.43	21287
894.552	21313
894.674	21226
894.796	21161
894.918	21192
895.04	21214
895.161	21218
895.283	21294
895.405	21157
895.526	21188
895.648	21226
895.769	21184
895.891	21245
896.012	21275
896.134	21188
896.255	21218
896.376	21138
896.498	21096
896.619	21214
896.74	21256
896.861	21207
896.982	21431
897.103	21545
897.224	21458
897.345	21428
897.466	21351
897.587	21500
897.708	21420
897.828	21454
897.949	21294
898.07	21302
898.19	21256
898.311	21424
898.431	21245
898.552	21466
898.672	21637
898.792	21374
898.913	21424
899.033	21230
899.153	21173
899.273	21017
899.393	21150
899.513	21188
899.633	21146
899.753	21116
899.873	21017
899.993	21116
900.113	21058
900.232	21096
900.352	20967
900.472	20952
900.591	20937
900.711	20994
900.83	20792
900.95	20967
901.069	20998
901.189	20724
901.308	20552
901.427	20484
901.546	20621
901.665	20408
901.784	20434
901.904	20336
902.023	20134
902.141	19947
902.26	20016
902.379	19902
902.498	19902
902.617	19902
902.735	19936
902.854	19902
902.973	19799
903.091	19655
903.21	19609
903.328	19658
903.446	19556
903.565	19411
903.683	19445
903.801	19407
903.919	19255
904.038	19445
904.156	19171
904.274	19190
904.392	19061
904.51	19126
904.627	19088
904.745	19175
904.863	19148
904.981	18943
905.098	18776
905.216	18779
905.334	18856
905.451	18875
905.569	18722
905.686	18882
905.803	18772
905.921	18635
906.038	18722
906.155	18719
906.272	18540
906.389	18559
906.506	18334
906.623	18338
906.74	18338
906.857	18220
906.974	18323
907.091	18353
907.208	18528
907.324	18376
907.441	18292
907.557	18022
907.674	18174
907.79	18045
907.907	18057
908.023	18140
908.139	18095
908.256	18053
908.372	17942
908.488	17912
908.604	17764
908.72	17813
908.836	17828
908.952	17707
909.068	17809
909.184	17851
909.3	17672
909.415	17794
909.531	17680
909.647	17512
909.762	17478
909.878	17482
909.993	17406
910.108	17402
910.224	17509
910.339	17463
910.454	17254
910.57	17349
910.685	17284
910.8	17486
910.915	17387
911.03	17269
911.145	17143
911.259	17162
911.374	17132
911.489	17045
911.604	16968
911.718	16767
911.833	16752
911.947	16736
912.062	16679
912.176	16801
912.291	16843
912.405	16862
912.519	16987
912.633	16820
912.748	16942
912.862	16847
912.976	16558
913.09	16432
913.204	16455
913.318	16519
913.431	16736
913.545	16603
913.659	16744
913.772	16504
913.886	16386
914	16451
914.113	16584
914.226	16470
914.34	16371
914.453	16272
914.566	16421
914.68	16306
914.793	16215
914.906	15987
915.019	16036
915.132	15941
915.245	15998
915.358	15964
915.47	16044
915.583	15934
915.696	15968
915.809	16040
915.921	16044
916.034	15953
916.146	15903
916.259	15838
916.371	15899
916.483	15873
916.595	15762
916.708	15899
916.82	15819
916.932	15816
917.044	15831
917.156	15747
917.268	15622
917.38	15614
917.491	15663
917.603	15557
917.715	15671
917.826	15663
917.938	15538
918.049	15348
918.161	15568
918.272	15629
918.384	15599
918.495	15435
918.606	15431
918.717	15272
918.828	15275
918.939	15351
919.05	15298
919.161	15336
919.272	15074
919.383	15188
919.494	15317
919.604	15515
919.715	15249
919.826	15157
919.936	15222
920.047	15359
920.157	15233
920.267	15458
920.378	15313
920.488	15237
920.598	15428
920.708	15606
920.818	15291
920.928	15317
921.038	15542
921.148	15439
921.258	15260
921.368	15222
921.477	15028
921.587	15047
921.697	14811
921.806	14994
921.916	14895
922.025	14826
922.134	14610
922.244	14518
922.353	14667
922.462	14556
922.571	14530
922.68	14210
922.789	14339
922.898	14336
923.007	14195
923.116	14233
923.224	14199
923.333	14252
923.442	14176
923.55	14073
923.659	14183
923.767	14077
923.876	14073
923.984	14134
924.092	13967
924.201	14077
924.309	14050
924.417	14058
924.525	13955
924.633	13887
924.741	14792
924.849	13803
924.956	13868
925.064	13738
925.172	13632
925.279	13734
925.387	13704
925.494	13575
925.602	13753
925.709	13658
925.816	13510
925.924	13616
926.031	13719
926.138	13533
926.245	13662
926.352	13441
926.459	13628
926.566	13647
926.673	13559
926.779	13362
926.886	13350
926.993	13114
927.099	13228
927.206	13137
927.312	13160
927.419	13221
927.525	13156
927.631	13213
927.737	13061
927.843	13046
927.95	12985
928.056	12977
928.162	13023
928.267	12996
928.373	13639
928.479	13038
928.585	12852
928.69	12878
928.796	13038
928.901	12840
929.007	12787
929.112	12909
929.218	12806
929.323	12741
929.428	12738
929.533	12817
929.638	12608
929.743	12684
929.848	12635
929.953	12764
930.058	12540
930.163	12350
930.267	12330
930.372	12460
930.477	12346
930.581	12631
930.685	12464
930.79	12178
930.894	12308
930.998	12167
931.103	12315
931.207	11965
931.311	11897
931.415	11809
931.519	11733
931.623	11615
