Data from test_V78500241_338.txt Node
Date: Fri Mar 25 15:44:08 CST 2022
User: usil
Spectrometer: V785-0024
Trigger mode: 0
Integration Time (sec): 4.000000E-1
Scans to average: 1
Nonlinearity correction enabled: false
Boxcar width: 0
Storing dark spectrum: false
XAxis mode: Wavelengths
Number of Pixels in Spectrum: 1024
>>>>>Begin Spectral Data<<<<<
801.071	29714
801.214	29539
801.356	29433
801.499	29433
801.641	29383
801.783	29265
801.926	29368
802.068	29433
802.211	29197
802.353	29220
802.496	29044
802.638	28999
802.78	28987
802.923	29075
803.065	28809
803.208	29067
803.35	29048
803.492	29109
803.635	29102
803.777	29037
803.919	29204
804.061	29505
804.204	29239
804.346	29200
804.488	29052
804.63	29197
804.773	29025
804.915	29280
805.057	29296
805.199	29064
805.341	29223
805.483	29250
805.626	29265
805.768	29254
805.91	29239
806.052	29398
806.194	29318
806.336	29417
806.478	29379
806.62	29372
806.762	29337
806.904	29558
807.046	29897
807.188	29741
807.33	29843
807.472	29824
807.614	29657
807.756	29786
807.898	29482
808.04	29539
808.182	29505
808.324	29577
808.465	29455
808.607	29828
808.749	29859
808.891	30057
809.033	30102
809.174	30007
809.316	29939
809.458	29958
809.6	29912
809.741	29996
809.883	29999
810.025	30102
810.166	30388
810.308	30186
810.45	30277
810.591	30102
810.733	30102
810.875	30026
811.016	29874
811.158	29901
811.299	30007
811.441	29927
811.582	30178
811.724	29889
811.865	29992
812.007	29859
812.148	30057
812.29	30034
812.431	29992
812.573	30334
812.714	30391
812.855	30311
812.997	30631
813.138	30658
813.279	30631
813.421	30525
813.562	30422
813.703	30213
813.845	30076
813.986	29767
814.127	29661
814.268	29718
814.41	29490
814.551	29459
814.692	29733
814.833	29577
814.974	29535
815.115	29684
815.256	29547
815.397	29535
815.539	29452
815.68	29474
815.821	29299
815.962	29402
816.103	29330
816.244	29269
816.385	29067
816.526	29124
816.666	28953
816.807	28824
816.948	28923
817.089	29128
817.23	28854
817.371	28771
817.512	28824
817.653	28831
817.793	28835
817.934	28778
818.075	28839
818.216	28828
818.356	28843
818.497	28698
818.638	28478
818.778	28592
818.919	28523
819.06	28531
819.2	28839
819.341	28748
819.481	28824
819.622	28854
819.762	29250
819.903	29121
820.043	28984
820.184	28866
820.324	28923
820.465	28976
820.605	28961
820.746	28900
820.886	28801
821.026	28801
821.167	28786
821.307	28957
821.447	28896
821.588	28793
821.728	28538
821.868	28401
822.008	28291
822.149	28185
822.289	28272
822.429	28051
822.569	27838
822.709	28013
822.849	27717
822.99	27690
823.13	27747
823.27	27808
823.41	27492
823.55	27450
823.69	27618
823.83	27462
823.97	27603
824.11	27207
824.25	27233
824.389	27336
824.529	27488
824.669	27340
824.809	27466
824.949	27310
825.089	27313
825.228	27477
825.368	27112
825.508	27272
825.648	27321
825.787	27214
825.927	27256
826.067	27249
826.206	27104
826.346	27203
826.485	27291
826.625	27180
826.765	27439
826.904	27256
827.044	26982
827.183	26914
827.323	26849
827.462	26998
827.601	27043
827.741	26743
827.88	26880
828.02	26853
828.159	26891
828.298	26815
828.437	26849
828.577	26659
828.716	26925
828.855	26724
828.994	26575
829.134	26579
829.273	26651
829.412	26476
829.551	26355
829.69	26453
829.829	26450
829.968	26651
830.107	26541
830.246	26530
830.385	26453
830.524	26366
830.663	26351
830.802	26183
830.941	26054
831.08	26180
831.219	26275
831.357	26138
831.496	26423
831.635	26054
831.774	26035
831.913	26001
832.051	26008
832.19	25795
832.329	25947
832.467	25841
832.606	25712
832.744	25712
832.883	25765
833.022	25761
833.16	25776
833.299	25799
833.437	25917
833.576	25849
833.714	25921
833.852	25788
833.991	25833
834.129	25856
834.267	25849
834.406	25765
834.544	25742
834.682	25849
834.821	25753
834.959	25780
835.097	25715
835.235	25913
835.373	25795
835.511	25742
835.65	25571
835.788	25658
835.926	25479
836.064	25320
836.202	25544
836.34	25476
836.478	25708
836.615	25438
836.753	25548
836.891	25635
837.029	25525
837.167	25453
837.305	25468
837.443	25544
837.58	25537
837.718	25407
837.856	25426
837.993	25324
838.131	25377
838.269	25232
838.406	25225
838.544	25126
838.681	24958
838.819	25042
838.956	24776
839.094	24757
839.231	24920
839.369	25008
839.506	25110
839.643	25065
839.781	24833
839.918	24833
840.055	24802
840.193	24802
840.33	24741
840.467	24673
840.604	24821
840.742	24977
840.879	24745
841.016	24707
841.153	24525
841.29	24768
841.427	24707
841.564	24741
841.701	24681
841.838	24677
841.975	24566
842.112	24620
842.249	24502
842.385	24407
842.522	24574
842.659	24608
842.796	24452
842.933	24391
843.069	24467
843.206	24361
843.343	24388
843.479	24407
843.616	24414
843.752	24098
843.889	24369
844.025	24296
844.162	24186
844.298	24304
844.435	24235
844.571	23992
844.708	24129
844.844	24232
844.98	24251
845.117	24186
845.253	24034
845.389	24011
845.525	24011
845.661	23939
845.798	23999
845.934	23939
846.07	23726
846.206	23889
846.342	23950
846.478	23756
846.614	23733
846.75	23516
846.886	23497
847.022	23630
847.158	23577
847.294	23596
847.429	23577
847.565	23501
847.701	23855
847.837	23326
847.972	23197
848.108	23356
848.244	23261
848.379	23200
848.515	23242
848.65	23227
848.786	22991
848.921	23212
849.057	23174
849.192	23086
849.328	23151
849.463	23159
849.598	23044
849.734	23113
849.869	22995
850.004	22904
850.14	22896
850.275	22911
850.41	22828
850.545	22927
850.68	22790
850.815	22946
850.95	22843
851.085	22987
851.22	23006
851.355	22923
851.49	22782
851.625	22721
851.76	22892
851.895	22786
852.03	22752
852.165	22885
852.299	22873
852.434	22908
852.569	22850
852.703	22820
852.838	22850
852.973	22809
853.107	22953
853.242	22896
853.376	22713
853.511	22519
853.645	22596
853.78	22634
853.914	22630
854.048	22588
854.183	22740
854.317	22691
854.451	22759
854.585	22584
854.72	22710
854.854	22729
854.988	22516
855.122	22649
855.256	22577
855.39	22573
855.524	22611
855.658	22733
855.792	22588
855.926	22675
856.06	22717
856.194	22713
856.327	22630
856.461	22634
856.595	22634
856.729	22626
856.862	22774
856.996	22634
857.13	22687
857.263	22889
857.397	22713
857.53	22611
857.664	22630
857.797	22668
857.931	22675
858.064	22729
858.197	22694
858.331	22641
858.464	22573
858.597	22569
858.731	22573
858.864	22641
858.997	22497
859.13	22752
859.263	22679
859.396	22656
859.529	22523
859.662	22504
859.795	22470
859.928	22474
860.061	22729
860.194	22771
860.327	22656
860.46	22584
860.592	22679
860.725	22850
860.858	22748
860.99	22630
861.123	22523
861.256	22573
861.388	22542
861.521	23318
861.653	22455
861.786	22466
861.918	22375
862.05	22485
862.183	22588
862.315	22557
862.447	22679
862.58	22519
862.712	22455
862.844	22299
862.976	22447
863.108	22367
863.24	22748
863.372	22268
863.504	22337
863.636	22382
863.768	22280
863.9	22379
864.032	22215
864.164	22246
864.296	22257
864.428	22386
864.559	22322
864.691	22348
864.823	22154
864.954	22257
865.086	22268
865.217	22139
865.349	22158
865.48	22181
865.612	22158
865.743	22265
865.875	22200
866.006	22063
866.137	22070
866.269	22280
866.4	21968
866.531	22093
866.662	22036
866.793	22090
866.924	22181
867.055	22188
867.186	22196
867.317	22166
867.448	22025
867.579	22063
867.71	22044
867.841	21895
867.972	22025
868.103	21994
868.233	22059
868.364	22059
868.495	22166
868.625	22371
868.756	22398
868.886	22204
869.017	22363
869.147	22421
869.278	22402
869.408	22375
869.539	22402
869.669	22341
869.799	22322
869.929	22478
870.06	22497
870.19	22645
870.32	22618
870.45	22706
870.58	22740
870.71	22927
870.84	22873
870.97	22679
871.1	22752
871.23	22938
871.36	23010
871.489	22812
871.619	23003
871.749	22930
871.879	22976
872.008	23064
872.138	22839
872.267	22892
872.397	22786
872.526	22767
872.656	22675
872.785	22782
872.915	23041
873.044	23105
873.173	23037
873.303	22911
873.432	22892
873.561	23003
873.69	22976
873.819	23056
873.948	22968
874.077	22934
874.206	23067
874.335	22896
874.464	23166
874.593	23220
874.722	23086
874.851	23296
874.979	23258
875.108	23128
875.237	23200
875.365	23067
875.494	23083
875.623	23181
875.751	23117
875.88	23071
876.008	23334
876.136	23379
876.265	23756
876.393	23684
876.521	23573
876.65	23528
876.778	23558
876.906	23497
877.034	23600
877.162	23493
877.29	23585
877.418	23611
877.546	23592
877.674	23573
877.802	23493
877.93	23486
878.058	23573
878.185	23395
878.313	23364
878.441	23474
878.568	23334
878.696	23421
878.824	23512
878.951	23554
879.079	23642
879.206	23870
879.333	23558
879.461	23623
879.588	23718
879.715	23680
879.842	23870
879.97	23486
880.097	23410
880.224	23299
880.351	23288
880.478	23364
880.605	23273
880.732	23261
880.859	23638
880.986	23337
881.112	23296
881.239	23193
881.366	23102
881.493	22942
881.619	22900
881.746	23003
881.872	22866
881.999	22892
882.125	22748
882.252	22934
882.378	22850
882.505	23010
882.631	22748
882.757	22622
882.883	22755
883.01	22573
883.136	22542
883.262	22459
883.388	22447
883.514	22645
883.64	22538
883.766	22451
883.892	22432
884.018	22375
884.143	22557
884.269	22584
884.395	22318
884.52	22226
884.646	22261
884.772	22128
884.897	22051
885.023	22166
885.148	22303
885.274	22348
885.399	22318
885.524	22280
885.65	22242
885.775	22249
885.9	22215
886.025	22291
886.15	22226
886.275	22112
886.4	22116
886.525	22166
886.65	22112
886.775	22093
886.9	22325
887.025	22443
887.149	22234
887.274	22040
887.399	21964
887.523	21968
887.648	21937
887.773	21686
887.897	22086
888.021	22025
888.146	21846
888.27	22078
888.395	22082
888.519	21991
888.643	21915
888.767	22032
888.891	21789
889.015	21705
889.139	21880
889.263	21755
889.387	21854
889.511	21850
889.635	21781
889.759	21739
889.883	21743
890.006	21816
890.13	21781
890.254	21606
890.377	21610
890.501	21511
890.624	21393
890.748	21641
890.871	21332
890.995	21317
891.118	21157
891.241	21287
891.364	21275
891.488	21393
891.611	21294
891.734	21252
891.857	21264
891.98	21329
892.103	21233
892.226	21332
892.349	21348
892.471	21081
892.594	21169
892.717	21256
892.839	21096
892.962	21089
893.085	21195
893.207	21150
893.33	21096
893.452	21165
893.575	21199
893.697	21058
893.819	21306
893.941	21355
894.064	21313
894.186	21081
894.308	21058
894.43	21283
894.552	21287
894.674	21252
894.796	21116
894.918	21173
895.04	21173
895.161	21180
895.283	21169
895.405	21043
895.526	21180
895.648	21062
895.769	21264
895.891	21188
896.012	21218
896.134	21184
896.255	21096
896.376	21154
896.498	21256
896.619	21230
896.74	21176
896.861	21272
896.982	21443
897.103	21603
897.224	21405
897.345	21458
897.466	21287
897.587	21389
897.708	21428
897.828	21363
897.949	21351
898.07	21264
898.19	21310
898.311	21500
898.431	21287
898.552	21275
898.672	21454
898.792	21473
898.913	21332
899.033	21252
899.153	21146
899.273	20944
899.393	21043
899.513	21207
899.633	21036
899.753	21032
899.873	21005
899.993	21032
900.113	21055
900.232	21066
900.352	20864
900.472	20876
900.591	20678
900.711	20933
900.83	20754
900.95	20933
901.069	20872
901.189	20727
901.308	20541
901.427	20351
901.546	20415
901.665	20408
901.784	20537
901.904	20328
902.023	20161
902.141	20024
902.26	19871
902.379	19913
902.498	19928
902.617	19887
902.735	19978
902.854	19921
902.973	19704
903.091	19597
903.21	19590
903.328	19514
903.446	19453
903.565	19369
903.683	19308
903.801	19270
903.919	19426
904.038	19324
904.156	19084
904.274	19282
904.392	19114
904.51	19031
904.627	19080
904.745	19160
904.863	19099
904.981	18897
905.098	18768
905.216	18791
905.334	18878
905.451	18829
905.569	18783
905.686	18764
905.803	18734
905.921	18498
906.038	18589
906.155	18604
906.272	18384
906.389	18452
906.506	18266
906.623	18258
906.74	18270
906.857	18079
906.974	18243
907.091	18296
907.208	18270
907.324	18273
907.441	18110
907.557	17923
907.674	18049
907.79	17935
907.907	17920
908.023	17980
908.139	17897
908.256	17813
908.372	17870
908.488	17802
908.604	17745
908.72	17501
908.836	17668
908.952	17501
909.068	17661
909.184	17824
909.3	17615
909.415	17589
909.531	17558
909.647	17349
909.762	17379
909.878	17318
909.993	17303
910.108	17311
910.224	17292
910.339	17322
910.454	17132
910.57	17132
910.685	16991
910.8	17410
910.915	17254
911.03	17197
911.145	17006
911.259	16850
911.374	16980
911.489	16862
911.604	16774
911.718	16618
911.833	16645
911.947	16474
912.062	16489
912.176	16660
912.291	16752
912.405	16717
912.519	16733
912.633	16839
912.748	16672
912.862	16611
912.976	16516
913.09	16363
913.204	16421
913.318	16348
913.431	16656
913.545	16493
913.659	16580
913.772	16402
913.886	16356
914	16150
914.113	16291
914.226	16341
914.34	16234
914.453	16059
914.566	16188
914.68	16135
914.793	16093
914.906	15934
915.019	15755
915.132	15759
915.245	15850
915.358	15793
915.47	15781
915.583	15831
915.696	15892
915.809	15907
915.921	15846
916.034	15800
916.146	15774
916.259	15595
916.371	15766
916.483	15797
916.595	15652
916.708	15625
916.82	15549
916.932	15538
917.044	15534
917.156	15545
917.268	15450
917.38	15447
917.491	15496
917.603	15462
917.715	15519
917.826	15561
917.938	15378
918.049	15195
918.161	15329
918.272	15473
918.384	15370
918.495	15321
918.606	15214
918.717	15214
918.828	15188
918.939	15157
919.05	15123
919.161	15135
919.272	14918
919.383	15028
919.494	15214
919.604	15401
919.715	15142
919.826	15032
919.936	15089
920.047	15146
920.157	15154
920.267	15275
920.378	15116
920.488	15017
920.598	15310
920.708	15439
920.818	15226
920.928	15272
921.038	15363
921.148	15237
921.258	15097
921.368	14971
921.477	14804
921.587	14834
921.697	14663
921.806	14739
921.916	14800
922.025	14571
922.134	14522
922.244	14438
922.353	14408
922.462	14374
922.571	14244
922.68	14119
922.789	14119
922.898	14062
923.007	14008
923.116	14202
923.224	14058
923.333	14100
923.442	13947
923.55	13871
923.659	13974
923.767	13982
923.876	13868
923.984	13898
924.092	13818
924.201	13902
924.309	13807
924.417	13791
924.525	13799
924.633	13765
924.741	14522
924.849	13426
924.956	13647
925.064	13601
925.172	13445
925.279	13525
925.387	13506
925.494	13552
925.602	13483
925.709	13548
925.816	13320
925.924	13457
926.031	13537
926.138	13388
926.245	13419
926.352	13373
926.459	13426
926.566	13499
926.673	13339
926.779	13171
926.886	13088
926.993	13046
927.099	13042
927.206	12924
927.312	12985
927.419	12947
927.525	13046
927.631	12951
927.737	12745
927.843	12867
927.95	12684
928.056	12871
928.162	12726
928.267	12897
928.373	13472
928.479	12913
928.585	12703
928.69	12909
928.796	12734
928.901	12684
929.007	12570
929.112	12738
929.218	12654
929.323	12589
929.428	12551
929.533	12608
929.638	12467
929.743	12441
929.848	12467
929.953	12506
930.058	12311
930.163	12296
930.267	12224
930.372	12399
930.477	12117
930.581	12346
930.685	12186
930.79	12079
930.894	12079
930.998	12083
931.103	12163
931.207	11752
931.311	11760
931.415	11638
931.519	11360
931.623	11505
