Data from test_V78500241_1359.txt Node
Date: Fri Mar 25 15:51:12 CST 2022
User: usil
Spectrometer: V785-0024
Trigger mode: 0
Integration Time (sec): 4.000000E-1
Scans to average: 1
Nonlinearity correction enabled: false
Boxcar width: 0
Storing dark spectrum: false
XAxis mode: Wavelengths
Number of Pixels in Spectrum: 1024
>>>>>Begin Spectral Data<<<<<
801.071	28253
801.214	28169
801.356	27983
801.499	27880
801.641	27816
801.783	27857
801.926	27739
802.068	27789
802.211	27686
802.353	27713
802.496	27397
802.638	27393
802.78	27424
802.923	27302
803.065	27325
803.208	27469
803.35	27515
803.492	27553
803.635	27736
803.777	27652
803.919	27599
804.061	28021
804.204	27701
804.346	27652
804.488	27625
804.63	27629
804.773	27633
804.915	27625
805.057	27785
805.199	27618
805.341	27759
805.483	27770
805.626	27835
805.768	27808
805.91	27835
806.052	27816
806.194	27789
806.336	28017
806.478	27793
806.62	27743
806.762	27956
806.904	27907
807.046	28299
807.188	28204
807.33	28226
807.472	28287
807.614	28181
807.756	28135
807.898	28078
808.04	28055
808.182	28131
808.324	28040
808.465	28242
808.607	28428
808.749	28550
808.891	28622
809.033	28580
809.174	28580
809.316	28466
809.458	28394
809.6	28603
809.741	28565
809.883	28687
810.025	28812
810.166	28733
810.308	28801
810.45	28588
810.591	28736
810.733	28405
810.875	28470
811.016	28348
811.158	28367
811.299	28603
811.441	28554
811.582	28603
811.724	28417
811.865	28523
812.007	28348
812.148	28531
812.29	28504
812.431	28565
812.573	28831
812.714	28980
812.855	29044
812.997	29025
813.138	29200
813.279	29204
813.421	29083
813.562	29113
813.703	28812
813.845	28736
813.986	28394
814.127	28242
814.268	28158
814.41	28257
814.551	28093
814.692	28272
814.833	28135
814.974	28128
815.115	28211
815.256	27979
815.397	27953
815.539	28040
815.68	28025
815.821	27930
815.962	28021
816.103	27983
816.244	27983
816.385	27812
816.526	27800
816.666	27622
816.807	27420
816.948	27443
817.089	27568
817.23	27583
817.371	27587
817.512	27500
817.653	27504
817.793	27401
817.934	27447
818.075	27549
818.216	27553
818.356	27462
818.497	27401
818.638	27283
818.778	27298
818.919	27336
819.06	27317
819.2	27321
819.341	27523
819.481	27473
819.622	27656
819.762	27743
819.903	27625
820.043	27671
820.184	27686
820.324	27652
820.465	27595
820.605	27656
820.746	27717
820.886	27435
821.026	27504
821.167	27561
821.307	27629
821.447	27454
821.588	27507
821.728	27370
821.868	27100
822.008	27127
822.149	27070
822.289	26868
822.429	26598
822.569	26731
822.709	26640
822.849	26541
822.99	26465
823.13	26518
823.27	26457
823.41	26305
823.55	26202
823.69	26351
823.83	26366
823.97	26256
824.11	26187
824.25	26107
824.389	26088
824.529	26233
824.669	26221
824.809	26278
824.949	26202
825.089	26191
825.228	26218
825.368	25974
825.508	25936
825.648	26020
825.787	25966
825.927	26012
826.067	25982
826.206	25940
826.346	26046
826.485	26161
826.625	25750
826.765	26134
826.904	26103
827.044	25871
827.183	25788
827.323	25575
827.462	25803
827.601	25818
827.741	25666
827.88	25715
828.02	25582
828.159	25601
828.298	25575
828.437	25704
828.577	25693
828.716	25757
828.855	25731
828.994	25464
829.134	25400
829.273	25506
829.412	25426
829.551	25327
829.69	25438
829.829	25384
829.968	25407
830.107	25426
830.246	25491
830.385	25453
830.524	25259
830.663	25217
830.802	25164
830.941	24985
831.08	24996
831.219	25061
831.357	25145
831.496	25232
831.635	25004
831.774	24905
831.913	24939
832.051	24897
832.19	24722
832.329	24798
832.467	24661
832.606	24719
832.744	24726
832.883	24627
833.022	24661
833.16	24730
833.299	24749
833.437	24661
833.576	24821
833.714	24669
833.852	24859
833.991	24837
834.129	24856
834.267	24798
834.406	24875
834.544	24722
834.682	24795
834.821	24631
834.959	24825
835.097	24623
835.235	24730
835.373	24692
835.511	24810
835.65	24544
835.788	24574
835.926	24467
836.064	24426
836.202	24323
836.34	24582
836.478	24658
836.615	24635
836.753	24654
836.891	24582
837.029	24631
837.167	24551
837.305	24460
837.443	24475
837.58	24380
837.718	24350
837.856	24410
837.993	24308
838.131	24395
838.269	24266
838.406	24327
838.544	24270
838.681	24041
838.819	23999
838.956	23866
839.094	23882
839.231	23958
839.369	24102
839.506	24330
839.643	24178
839.781	23828
839.918	23714
840.055	23897
840.193	23802
840.33	23790
840.467	24060
840.604	23961
840.742	24083
840.879	23642
841.016	23859
841.153	23611
841.29	23775
841.427	23741
841.564	23824
841.701	23809
841.838	23699
841.975	23665
842.112	23642
842.249	23604
842.385	23539
842.522	23699
842.659	23661
842.796	23638
842.933	23497
843.069	23509
843.206	23509
843.343	23592
843.479	23570
843.616	23493
843.752	23421
843.889	23277
844.025	23482
844.162	23330
844.298	23360
844.435	23204
844.571	23277
844.708	23330
844.844	23444
844.98	23493
845.117	23391
845.253	23216
845.389	23189
845.525	23349
845.661	23181
845.798	23060
845.934	23048
846.07	23014
846.206	23044
846.342	23109
846.478	23048
846.614	22919
846.75	22801
846.886	22759
847.022	22831
847.158	22824
847.294	22790
847.429	22797
847.565	22729
847.701	22968
847.837	22478
847.972	22500
848.108	22752
848.244	22592
848.379	22405
848.515	22470
848.65	22306
848.786	22306
848.921	22322
849.057	22508
849.192	22489
849.328	22523
849.463	22348
849.598	22325
849.734	22215
849.869	22284
850.004	22086
850.14	22147
850.275	22185
850.41	22017
850.545	22063
850.68	22074
850.815	22097
850.95	22147
851.085	22356
851.22	22265
851.355	22078
851.49	22158
851.625	22086
851.76	22112
851.895	21926
852.03	22029
852.165	22032
852.299	22169
852.434	22147
852.569	22128
852.703	22177
852.838	22280
852.973	22257
853.107	22268
853.242	22143
853.376	21873
853.511	21899
853.645	21888
853.78	22074
853.914	21895
854.048	21945
854.183	21816
854.317	21854
854.451	22192
854.585	21922
854.72	21956
854.854	21987
854.988	21865
855.122	21869
855.256	21899
855.39	21968
855.524	21937
855.658	21869
855.792	21956
855.926	21934
856.06	21934
856.194	21949
856.327	21842
856.461	21857
856.595	21804
856.729	21876
856.862	22021
856.996	21972
857.13	22036
857.263	22097
857.397	21960
857.53	22029
857.664	22067
857.797	22021
857.931	21949
858.064	21956
858.197	22036
858.331	21960
858.464	21850
858.597	21842
858.731	21816
858.864	21804
858.997	21846
859.13	21911
859.263	21991
859.396	22029
859.529	21759
859.662	21854
859.795	21892
859.928	21930
860.061	22063
860.194	22188
860.327	22013
860.46	21915
860.592	22051
860.725	22029
860.858	21949
860.99	21964
861.123	21949
861.256	21960
861.388	21838
861.521	22542
861.653	21759
861.786	21675
861.918	21736
862.05	21599
862.183	21823
862.315	21831
862.447	21972
862.58	21926
862.712	21698
862.844	21488
862.976	21720
863.108	21797
863.24	22040
863.372	21690
863.504	21629
863.636	21530
863.768	21599
863.9	21747
864.032	21553
864.164	21580
864.296	21778
864.428	21717
864.559	21819
864.691	21629
864.823	21610
864.954	21568
865.086	21587
865.217	21545
865.349	21363
865.48	21564
865.612	21534
865.743	21675
865.875	21545
866.006	21610
866.137	21447
866.269	21637
866.4	21492
866.531	21340
866.662	21557
866.793	21420
866.924	21389
867.055	21538
867.186	21450
867.317	21389
867.448	21355
867.579	21382
867.71	21412
867.841	21389
867.972	21428
868.103	21492
868.233	21397
868.364	21549
868.495	21496
868.625	21827
868.756	21717
868.886	21454
869.017	21869
869.147	21785
869.278	21915
869.408	21785
869.539	21743
869.669	21857
869.799	21759
869.929	21781
870.06	21827
870.19	21945
870.32	21964
870.45	21949
870.58	22090
870.71	22173
870.84	22139
870.97	22093
871.1	22109
871.23	22268
871.36	22356
871.489	22204
871.619	22318
871.749	22348
871.879	22375
872.008	22417
872.138	22276
872.267	22215
872.397	22207
872.526	22032
872.656	22200
872.785	22147
872.915	22284
873.044	22363
873.173	22265
873.303	22344
873.432	22325
873.561	22348
873.69	22363
873.819	22402
873.948	22409
874.077	22371
874.206	22413
874.335	22200
874.464	22443
874.593	22550
874.722	22592
874.851	22428
874.979	22626
875.108	22611
875.237	22519
875.365	22428
875.494	22535
875.623	22607
875.751	22542
875.88	22634
876.008	22596
876.136	22744
876.265	23003
876.393	22923
876.521	22957
876.65	22984
876.778	22946
876.906	22862
877.034	22934
877.162	22953
877.29	22896
877.418	22908
877.546	22953
877.674	22923
877.802	22930
877.93	22752
878.058	22797
878.185	22675
878.313	22843
878.441	22809
878.568	22706
878.696	22797
878.824	22812
878.951	23029
879.079	23265
879.206	23166
879.333	23143
879.461	22946
879.588	23109
879.715	23117
879.842	23143
879.97	22869
880.097	22828
880.224	22698
880.351	22755
880.478	22782
880.605	22767
880.732	22645
880.859	22869
880.986	22786
881.112	22736
881.239	22519
881.366	22409
881.493	22303
881.619	22261
881.746	22306
881.872	22341
881.999	22276
882.125	22188
882.252	22265
882.378	22185
882.505	22272
882.631	22090
882.757	21987
882.883	22093
883.01	22021
883.136	21892
883.262	21808
883.388	21793
883.514	21956
883.64	21949
883.766	21953
883.892	21686
884.018	21663
884.143	21766
884.269	22013
884.395	21686
884.52	21591
884.646	21614
884.772	21370
884.897	21443
885.023	21561
885.148	21625
885.274	21690
885.399	21739
885.524	21469
885.65	21667
885.775	21622
885.9	21561
886.025	21739
886.15	21583
886.275	21458
886.4	21492
886.525	21466
886.65	21492
886.775	21557
886.9	21743
887.025	21831
887.149	21599
887.274	21344
887.399	21450
887.523	21260
887.648	21302
887.773	21325
887.897	21408
888.021	21431
888.146	21252
888.27	21504
888.395	21473
888.519	21260
888.643	21431
888.767	21370
888.891	21355
889.015	21226
889.139	21154
889.263	21150
889.387	21298
889.511	21355
889.635	21127
889.759	21032
889.883	21123
890.006	21119
890.13	21142
890.254	21100
890.377	21028
890.501	20941
890.624	20853
890.748	20872
890.871	20739
890.995	20788
891.118	20545
891.241	20697
891.364	20708
891.488	20815
891.611	20632
891.734	20648
891.857	20785
891.98	20762
892.103	20796
892.226	20708
892.349	20621
892.471	20537
892.594	20689
892.717	20686
892.839	20579
892.962	20587
893.085	20746
893.207	20564
893.33	20537
893.452	20499
893.575	20663
893.697	20552
893.819	20693
893.941	20746
894.064	20693
894.186	20495
894.308	20507
894.43	20693
894.552	20796
894.674	20590
894.796	20434
894.918	20598
895.04	20587
895.161	20743
895.283	20556
895.405	20511
895.526	20549
895.648	20632
895.769	20739
895.891	20629
896.012	20682
896.134	20674
896.255	20579
896.376	20507
896.498	20514
896.619	20495
896.74	20602
896.861	20697
896.982	20960
897.103	20982
897.224	20883
897.345	20842
897.466	20689
897.587	20849
897.708	20914
897.828	20796
897.949	20743
898.07	20689
898.19	20887
898.311	20910
898.431	20743
898.552	20792
898.672	20838
898.792	20918
898.913	20861
899.033	20724
899.153	20556
899.273	20541
899.393	20533
899.513	20617
899.633	20541
899.753	20560
899.873	20583
899.993	20590
900.113	20636
900.232	20499
900.352	20396
900.472	20393
900.591	20259
900.711	20465
900.83	20351
900.95	20362
901.069	20438
901.189	20393
901.308	19875
901.427	20081
901.546	19837
901.665	19883
901.784	19906
901.904	19742
902.023	19658
902.141	19544
902.26	19430
902.379	19422
902.498	19407
902.617	19255
902.735	19400
902.854	19430
902.973	19259
903.091	19076
903.21	19057
903.328	19042
903.446	18890
903.565	18825
903.683	18916
903.801	18798
903.919	18833
904.038	18707
904.156	18627
904.274	18696
904.392	18532
904.51	18620
904.627	18688
904.745	18540
904.863	18681
904.981	18445
905.098	18403
905.216	18319
905.334	18243
905.451	18224
905.569	18266
905.686	18395
905.803	18388
905.921	18114
906.038	18220
906.155	18030
906.272	18022
906.389	18007
906.506	17870
906.623	17999
906.74	17741
906.857	17710
906.974	17726
907.091	17893
907.208	18003
907.324	17916
907.441	17756
907.557	17585
907.674	17554
907.79	17490
907.907	17596
908.023	17570
908.139	17619
908.256	17452
908.372	17474
908.488	17372
908.604	17383
908.72	17147
908.836	17379
908.952	17147
909.068	17280
909.184	17372
909.3	17269
909.415	17273
909.531	17227
909.647	17029
909.762	16866
909.878	17029
909.993	16957
910.108	16896
910.224	16965
910.339	16885
910.454	16706
910.57	16835
910.685	16660
910.8	16908
910.915	16953
911.03	16873
911.145	16649
911.259	16478
911.374	16516
911.489	16451
911.604	16436
911.718	16318
911.833	16246
911.947	16257
912.062	16154
912.176	16356
912.291	16303
912.405	16246
912.519	16554
912.633	16459
912.748	16291
912.862	16196
912.976	16120
913.09	15918
913.204	16078
913.318	16139
913.431	16211
913.545	16158
913.659	16211
913.772	16021
913.886	15930
914	15934
914.113	16006
914.226	15975
914.34	15949
914.453	15759
914.566	15838
914.68	15739
914.793	15812
914.906	15568
915.019	15542
915.132	15542
915.245	15511
915.358	15488
915.47	15481
915.583	15557
915.696	15496
915.809	15717
915.921	15622
916.034	15412
916.146	15405
916.259	15431
916.371	15447
916.483	15367
916.595	15298
916.708	15275
916.82	15306
916.932	15233
917.044	15214
917.156	15302
917.268	15176
917.38	15062
917.491	15005
917.603	15123
917.715	15336
917.826	15207
917.938	15051
918.049	14876
918.161	15055
918.272	15222
918.384	15287
918.495	15058
918.606	14937
918.717	14765
918.828	14914
918.939	14918
919.05	14796
919.161	14796
919.272	14655
919.383	14720
919.494	14986
919.604	15074
919.715	14948
919.826	14670
919.936	14788
920.047	14906
920.157	14845
920.267	15051
920.378	14906
920.488	14819
920.598	14986
920.708	15108
920.818	14895
920.928	14960
921.038	15116
921.148	15131
921.258	14819
921.368	14686
921.477	14606
921.587	14644
921.697	14423
921.806	14590
921.916	14366
922.025	14298
922.134	14161
922.244	14176
922.353	14229
922.462	14096
922.571	13993
922.68	13947
922.789	13761
922.898	13894
923.007	13712
923.116	13791
923.224	13845
923.333	13845
923.442	13693
923.55	13708
923.659	13780
923.767	13712
923.876	13616
923.984	13746
924.092	13567
924.201	13624
924.309	13632
924.417	13578
924.525	13468
924.633	13578
924.741	14408
924.849	13297
924.956	13392
925.064	13206
925.172	13251
925.279	13293
925.387	13278
925.494	13282
925.602	13377
925.709	13289
925.816	13198
925.924	13194
926.031	13251
926.138	13118
926.245	13217
926.352	13145
926.459	13240
926.566	13320
926.673	13091
926.779	12970
926.886	13004
926.993	12856
927.099	12776
927.206	12741
927.312	12711
927.419	12764
927.525	12863
927.631	12894
927.737	12654
927.843	12707
927.95	12513
928.056	12627
928.162	12559
928.267	12722
928.373	13255
928.479	12692
928.585	12437
928.69	12551
928.796	12563
928.901	12479
929.007	12296
929.112	12437
929.218	12372
929.323	12330
929.428	12372
929.533	12490
929.638	12372
929.743	12319
929.848	12338
929.953	12262
930.058	12186
930.163	11996
930.267	12057
930.372	12190
930.477	11958
930.581	12171
930.685	12117
930.79	11977
930.894	11946
930.998	11817
931.103	12026
931.207	11608
931.311	11592
931.415	11577
931.519	11307
931.623	11189
