Data from test_V78500241_1773.txt Node
Date: Fri Mar 25 15:54:04 CST 2022
User: usil
Spectrometer: V785-0024
Trigger mode: 0
Integration Time (sec): 4.000000E-1
Scans to average: 1
Nonlinearity correction enabled: false
Boxcar width: 0
Storing dark spectrum: false
XAxis mode: Wavelengths
Number of Pixels in Spectrum: 1024
>>>>>Begin Spectral Data<<<<<
801.071	28489
801.214	28459
801.356	28124
801.499	28204
801.641	28025
801.783	28067
801.926	28086
802.068	28029
802.211	27964
802.353	28063
802.496	27850
802.638	27766
802.78	27660
802.923	27690
803.065	27633
803.208	27762
803.35	27747
803.492	27880
803.635	27892
803.777	27835
803.919	28017
804.061	28230
804.204	28067
804.346	27987
804.488	27934
804.63	28067
804.773	27918
804.915	27922
805.057	28097
805.199	27949
805.341	27979
805.483	28169
805.626	28067
805.768	28032
805.91	28284
806.052	28135
806.194	28059
806.336	28348
806.478	28192
806.62	28131
806.762	28360
806.904	28401
807.046	28691
807.188	28489
807.33	28542
807.472	28603
807.614	28557
807.756	28516
807.898	28508
808.04	28497
808.182	28478
808.324	28443
808.465	28470
808.607	28660
808.749	28717
808.891	28744
809.033	29083
809.174	28885
809.316	28706
809.458	28744
809.6	28877
809.741	28888
809.883	28919
810.025	29170
810.166	29246
810.308	29105
810.45	29098
810.591	28991
810.733	28816
810.875	28763
811.016	28782
811.158	28561
811.299	28942
811.441	28923
811.582	29037
811.724	28809
811.865	28683
812.007	28839
812.148	28790
812.29	28919
812.431	28972
812.573	29121
812.714	29208
812.855	29307
812.997	29254
813.138	29535
813.279	29512
813.421	29258
813.562	29242
813.703	29197
813.845	29083
813.986	28767
814.127	28603
814.268	28493
814.41	28603
814.551	28577
814.692	28599
814.833	28455
814.974	28512
815.115	28519
815.256	28382
815.397	28356
815.539	28447
815.68	28325
815.821	28272
815.962	28436
816.103	28253
816.244	28276
816.385	28116
816.526	28055
816.666	27930
816.807	27793
816.948	27918
817.089	27983
817.23	27884
817.371	27861
817.512	27842
817.653	27698
817.793	27770
817.934	27831
818.075	27800
818.216	27762
818.356	27698
818.497	27732
818.638	27576
818.778	27599
818.919	27553
819.06	27622
819.2	27762
819.341	27720
819.481	27660
819.622	28013
819.762	28261
819.903	28048
820.043	27930
820.184	27854
820.324	27873
820.465	27987
820.605	28029
820.746	28017
820.886	27778
821.026	28067
821.167	27842
821.307	27903
821.447	27800
821.588	27652
821.728	27488
821.868	27401
822.008	27222
822.149	27492
822.289	27386
822.429	27017
822.569	27032
822.709	26963
822.849	26906
822.99	26883
823.13	26686
823.27	26781
823.41	26670
823.55	26682
823.69	26663
823.83	26701
823.97	26625
824.11	26499
824.25	26442
824.389	26450
824.529	26663
824.669	26537
824.809	26564
824.949	26533
825.089	26556
825.228	26583
825.368	26301
825.508	26290
825.648	26259
825.787	26339
825.927	26393
826.067	26393
826.206	26305
826.346	26400
826.485	26286
826.625	26419
826.765	26522
826.904	26404
827.044	26111
827.183	26115
827.323	26012
827.462	26142
827.601	26142
827.741	26103
827.88	26077
828.02	25849
828.159	26142
828.298	26180
828.437	26191
828.577	26088
828.716	26278
828.855	25955
828.994	25845
829.134	25746
829.273	25734
829.412	25723
829.551	25632
829.69	25734
829.829	25841
829.968	25807
830.107	25822
830.246	25712
830.385	25651
830.524	25719
830.663	25635
830.802	25518
830.941	25350
831.08	25381
831.219	25544
831.357	25445
831.496	25559
831.635	25350
831.774	25327
831.913	25209
832.051	25217
832.19	25209
832.329	25190
832.467	25038
832.606	25034
832.744	25145
832.883	25103
833.022	25027
833.16	25034
833.299	25088
833.437	25095
833.576	25008
833.714	24989
833.852	25114
833.991	24935
834.129	25080
834.267	25099
834.406	25061
834.544	25171
834.682	25152
834.821	25065
834.959	25266
835.097	24916
835.235	25247
835.373	25110
835.511	25160
835.65	24947
835.788	24943
835.926	24753
836.064	24772
836.202	24848
836.34	24992
836.478	24951
836.615	24916
836.753	24802
836.891	25031
837.029	24928
837.167	24764
837.305	24825
837.443	24757
837.58	24726
837.718	24810
837.856	24817
837.993	24677
838.131	24703
838.269	24528
838.406	24730
838.544	24620
838.681	24448
838.819	24330
838.956	24319
839.094	24251
839.231	24201
839.369	24369
839.506	24646
839.643	24513
839.781	24296
839.918	24216
840.055	24140
840.193	24140
840.33	24117
840.467	24136
840.604	24045
840.742	24315
840.879	23927
841.016	24015
841.153	24091
841.29	24106
841.427	24072
841.564	24087
841.701	24041
841.838	24129
841.975	23847
842.112	23942
842.249	23954
842.385	23916
842.522	24087
842.659	24026
842.796	23878
842.933	23828
843.069	23786
843.206	23824
843.343	23923
843.479	23798
843.616	23836
843.752	23657
843.889	23573
844.025	23695
844.162	23600
844.298	23786
844.435	23657
844.571	23539
844.708	23691
844.844	23729
844.98	23958
845.117	23653
845.253	23505
845.389	23436
845.525	23581
845.661	23467
845.798	23383
845.934	23398
846.07	23242
846.206	23334
846.342	23592
846.478	23395
846.614	23094
846.75	23105
846.886	23029
847.022	23060
847.158	23067
847.294	23117
847.429	23155
847.565	23033
847.701	23277
847.837	22790
847.972	22843
848.108	22885
848.244	22942
848.379	22812
848.515	22831
848.65	22599
848.786	22668
848.921	22592
849.057	22683
849.192	22691
849.328	22733
849.463	22713
849.598	22672
849.734	22577
849.869	22493
850.004	22474
850.14	22500
850.275	22394
850.41	22348
850.545	22367
850.68	22363
850.815	22386
850.95	22421
851.085	22607
851.22	22557
851.355	22512
851.49	22485
851.625	22382
851.76	22451
851.895	22291
852.03	22280
852.165	22386
852.299	22478
852.434	22626
852.569	22523
852.703	22333
852.838	22405
852.973	22557
853.107	22577
853.242	22466
853.376	22299
853.511	22135
853.645	22265
853.78	22363
853.914	22238
854.048	22196
854.183	22219
854.317	22318
854.451	22436
854.585	22234
854.72	22238
854.854	22295
854.988	22177
855.122	22215
855.256	22238
855.39	22139
855.524	22318
855.658	22249
855.792	22303
855.926	22382
856.06	22276
856.194	22329
856.327	22181
856.461	22131
856.595	22192
856.729	22226
856.862	22310
856.996	22356
857.13	22333
857.263	22417
857.397	22462
857.53	22223
857.664	22265
857.797	22341
857.931	22382
858.064	22337
858.197	22398
858.331	22219
858.464	22200
858.597	21922
858.731	22185
858.864	22074
858.997	22329
859.13	22341
859.263	22185
859.396	22333
859.529	22021
859.662	22211
859.795	22131
859.928	22207
860.061	22375
860.194	22390
860.327	22363
860.46	22223
860.592	22428
860.725	22363
860.858	22394
860.99	22390
861.123	22162
861.256	22166
861.388	22352
861.521	22949
861.653	22124
861.786	22021
861.918	22067
862.05	22310
862.183	22257
862.315	22158
862.447	22226
862.58	22181
862.712	21880
862.844	22044
862.976	21968
863.108	22078
863.24	22310
863.372	21945
863.504	22074
863.636	21953
863.768	21953
863.9	21888
864.032	21884
864.164	21953
864.296	21838
864.428	21941
864.559	21922
864.691	21941
864.823	21998
864.954	21918
865.086	21960
865.217	21888
865.349	21850
865.48	21876
865.612	21755
865.743	22017
865.875	21907
866.006	21842
866.137	21781
866.269	21869
866.4	21899
866.531	21827
866.662	21778
866.793	21827
866.924	21876
867.055	21857
867.186	21759
867.317	21743
867.448	21743
867.579	21816
867.71	21724
867.841	21622
867.972	21850
868.103	21728
868.233	21736
868.364	21808
868.495	21797
868.625	22025
868.756	22048
868.886	21854
869.017	22006
869.147	22128
869.278	22166
869.408	22059
869.539	22097
869.669	22051
869.799	21930
869.929	22192
870.06	22025
870.19	22337
870.32	22344
870.45	22432
870.58	22478
870.71	22512
870.84	22516
870.97	22367
871.1	22466
871.23	22664
871.36	22641
871.489	22508
871.619	22554
871.749	22599
871.879	22729
872.008	22672
872.138	22622
872.267	22626
872.397	22474
872.526	22481
872.656	22504
872.785	22443
872.915	22618
873.044	22725
873.173	22679
873.303	22672
873.432	22622
873.561	22797
873.69	22733
873.819	22706
873.948	22824
874.077	22603
874.206	22557
874.335	22752
874.464	22782
874.593	22843
874.722	22820
874.851	22759
874.979	23022
875.108	22885
875.237	22755
875.365	22721
875.494	22900
875.623	22892
875.751	22881
875.88	22820
876.008	22953
876.136	22850
876.265	23189
876.393	23364
876.521	23406
876.65	23311
876.778	23307
876.906	23258
877.034	23162
877.162	23162
877.29	23090
877.418	23193
877.546	23254
877.674	23204
877.802	23151
877.93	23113
878.058	23083
878.185	23060
878.313	23075
878.441	23242
878.568	22896
878.696	23178
878.824	23189
878.951	23242
879.079	23372
879.206	23501
879.333	23326
879.461	23212
879.588	23265
879.715	23231
879.842	23448
879.97	23318
880.097	23044
880.224	22968
880.351	23223
880.478	22984
880.605	22953
880.732	23075
880.859	23197
880.986	22987
881.112	22858
881.239	22946
881.366	22797
881.493	22611
881.619	22679
881.746	22592
881.872	22660
881.999	22493
882.125	22402
882.252	22660
882.378	22451
882.505	22626
882.631	22390
882.757	22284
882.883	22344
883.01	22074
883.136	22147
883.262	22158
883.388	22249
883.514	22398
883.64	22249
883.766	22226
883.892	21949
884.018	22120
884.143	22169
884.269	22287
884.395	21937
884.52	21823
884.646	21831
884.772	22029
884.897	21789
885.023	21911
885.148	21884
885.274	21949
885.399	22055
885.524	21956
885.65	21873
885.775	21861
885.9	21827
886.025	21934
886.15	22032
886.275	21797
886.4	21701
886.525	21880
886.65	21743
886.775	21743
886.9	21960
887.025	22040
887.149	22063
887.274	21778
887.399	21648
887.523	21614
887.648	21496
887.773	21564
887.897	21656
888.021	21618
888.146	21485
888.27	21713
888.395	21679
888.519	21785
888.643	21728
888.767	21614
888.891	21443
889.015	21443
889.139	21572
889.263	21424
889.387	21542
889.511	21564
889.635	21439
889.759	21481
889.883	21431
890.006	21538
890.13	21504
890.254	21332
890.377	21298
890.501	21222
890.624	21127
890.748	21211
890.871	21074
890.995	21028
891.118	20941
891.241	21074
891.364	20971
891.488	21112
891.611	21081
891.734	21051
891.857	21104
891.98	20952
892.103	21013
892.226	20979
892.349	20804
892.471	20765
892.594	20853
892.717	20979
892.839	20815
892.962	20796
893.085	20937
893.207	20887
893.33	20739
893.452	20842
893.575	20910
893.697	20804
893.819	21051
893.941	21081
894.064	20960
894.186	20887
894.308	20804
894.43	20963
894.552	21062
894.674	20960
894.796	20921
894.918	20830
895.04	20887
895.161	20876
895.283	20823
895.405	20883
895.526	21058
895.648	20819
895.769	20880
895.891	20891
896.012	20785
896.134	20906
896.255	20910
896.376	20857
896.498	20918
896.619	20960
896.74	20952
896.861	20963
896.982	21116
897.103	21135
897.224	21157
897.345	21096
897.466	21157
897.587	20975
897.708	21169
897.828	21070
897.949	21058
898.07	20921
898.19	20979
898.311	21188
898.431	21013
898.552	21043
898.672	21135
898.792	21184
898.913	21116
899.033	20929
899.153	20895
899.273	20754
899.393	20781
899.513	20762
899.633	20819
899.753	20899
899.873	20693
899.993	20918
900.113	20762
900.232	20731
900.352	20678
900.472	20640
900.591	20549
900.711	20552
900.83	20389
900.95	20632
901.069	20636
901.189	20469
901.308	20233
901.427	20122
901.546	20035
901.665	20195
901.784	20202
901.904	20050
902.023	19875
902.141	19734
902.26	19753
902.379	19708
902.498	19655
902.617	19601
902.735	19761
902.854	19616
902.973	19639
903.091	19320
903.21	19308
903.328	19343
903.446	19255
903.565	19061
903.683	19160
903.801	18924
903.919	18993
904.038	19095
904.156	18943
904.274	19069
904.392	18878
904.51	18863
904.627	18798
904.745	18859
904.863	18962
904.981	18821
905.098	18506
905.216	18658
905.334	18578
905.451	18612
905.569	18471
905.686	18593
905.803	18456
905.921	18262
906.038	18380
906.155	18285
906.272	18258
906.389	18262
906.506	18144
906.623	18098
906.74	18155
906.857	17969
906.974	17958
907.091	18057
907.208	18216
907.324	18148
907.441	17984
907.557	17870
907.674	17760
907.79	17714
907.907	17752
908.023	17821
908.139	17843
908.256	17619
908.372	17630
908.488	17657
908.604	17497
908.72	17520
908.836	17486
908.952	17444
909.068	17505
909.184	17547
909.3	17490
909.415	17505
909.531	17589
909.647	17288
909.762	17216
909.878	17121
909.993	17208
910.108	17250
910.224	17090
910.339	17109
910.454	17014
910.57	16995
910.685	16885
910.8	17200
910.915	17067
911.03	17018
911.145	16850
911.259	16725
911.374	16793
911.489	16725
911.604	16611
911.718	16474
911.833	16527
911.947	16466
912.062	16428
912.176	16424
912.291	16592
912.405	16493
912.519	16710
912.633	16615
912.748	16538
912.862	16428
912.976	16314
913.09	16162
913.204	16261
913.318	16291
913.431	16337
913.545	16417
913.659	16333
913.772	16211
913.886	16154
914	15994
914.113	16196
914.226	16200
914.34	16036
914.453	16082
914.566	16196
914.68	15991
914.793	15861
914.906	15732
915.019	15766
915.132	15656
915.245	15690
915.358	15739
915.47	15663
915.583	15660
915.696	15625
915.809	15808
915.921	15892
916.034	15736
916.146	15519
916.259	15618
916.371	15667
916.483	15671
916.595	15500
916.708	15523
916.82	15477
916.932	15496
917.044	15477
917.156	15481
917.268	15264
917.38	15428
917.491	15260
917.603	15306
917.715	15485
917.826	15351
917.938	15233
918.049	15119
918.161	15203
918.272	15325
918.384	15340
918.495	15264
918.606	15157
918.717	15036
918.828	15104
918.939	15089
919.05	14944
919.161	15024
919.272	14826
919.383	14891
919.494	15032
919.604	15351
919.715	15074
919.826	14906
919.936	15070
920.047	15055
920.157	15047
920.267	15245
920.378	14967
920.488	15005
920.598	15165
920.708	15291
920.818	15142
920.928	15142
921.038	15260
921.148	15264
921.258	14857
921.368	14842
921.477	14815
921.587	14750
921.697	14720
921.806	14781
921.916	14590
922.025	14488
922.134	14473
922.244	14336
922.353	14465
922.462	14400
922.571	14195
922.68	14115
922.789	13959
922.898	14088
923.007	13947
923.116	14012
923.224	14005
923.333	14069
923.442	13947
923.55	13830
923.659	13769
923.767	13856
923.876	13769
923.984	13921
924.092	13715
924.201	13807
924.309	13814
924.417	13727
924.525	13658
924.633	13639
924.741	14396
924.849	13392
924.956	13715
925.064	13491
925.172	13343
925.279	13514
925.387	13434
925.494	13430
925.602	13605
925.709	13476
925.816	13411
925.924	13343
926.031	13422
926.138	13335
926.245	13354
926.352	13228
926.459	13358
926.566	13460
926.673	13263
926.779	13145
926.886	13137
926.993	13042
927.099	12932
927.206	12875
927.312	12932
927.419	13027
927.525	12989
927.631	12951
927.737	12859
927.843	12817
927.95	12726
928.056	12844
928.162	12715
928.267	12795
928.373	13464
928.479	12837
928.585	12631
928.69	12776
928.796	12760
928.901	12635
929.007	12464
929.112	12650
929.218	12703
929.323	12601
929.428	12528
929.533	12597
929.638	12441
929.743	12372
929.848	12532
929.953	12380
930.058	12414
930.163	12182
930.267	12201
930.372	12300
930.477	12167
930.581	12357
930.685	12258
930.79	11980
930.894	12106
930.998	12034
931.103	12129
931.207	11767
931.311	11752
931.415	11649
931.519	11379
931.623	11406
