Data from test_V78500241_2081.txt Node
Date: Fri Mar 25 15:56:13 CST 2022
User: usil
Spectrometer: V785-0024
Trigger mode: 0
Integration Time (sec): 4.000000E-1
Scans to average: 1
Nonlinearity correction enabled: false
Boxcar width: 0
Storing dark spectrum: false
XAxis mode: Wavelengths
Number of Pixels in Spectrum: 1024
>>>>>Begin Spectral Data<<<<<
801.071	29258
801.214	29239
801.356	29029
801.499	28900
801.641	28706
801.783	28812
801.926	28801
802.068	28809
802.211	28908
802.353	28622
802.496	28592
802.638	28622
802.78	28451
802.923	28440
803.065	28405
803.208	28440
803.35	28455
803.492	28660
803.635	28702
803.777	28637
803.919	28759
804.061	29018
804.204	28698
804.346	28622
804.488	28839
804.63	28622
804.773	28691
804.915	28797
805.057	28869
805.199	28744
805.341	28744
805.483	28927
805.626	28873
805.768	28919
805.91	28972
806.052	28866
806.194	28824
806.336	29147
806.478	28972
806.62	29052
806.762	28999
806.904	29208
807.046	29562
807.188	29318
807.33	29315
807.472	29440
807.614	29375
807.756	29429
807.898	29436
808.04	29284
808.182	29242
808.324	29273
808.465	29326
808.607	29512
808.749	29695
808.891	29783
809.033	29882
809.174	29821
809.316	29627
809.458	29501
809.6	29623
809.741	29836
809.883	29722
810.025	29927
810.166	29916
810.308	29885
810.45	29802
810.591	29977
810.733	29729
810.875	29535
811.016	29512
811.158	29509
811.299	29882
811.441	29859
811.582	29836
811.724	29752
811.865	29551
812.007	29585
812.148	29668
812.29	29802
812.431	29939
812.573	30034
812.714	30083
812.855	30060
812.997	30311
813.138	30338
813.279	30376
813.421	30216
813.562	30205
813.703	30038
813.845	29851
813.986	29741
814.127	29554
814.268	29433
814.41	29570
814.551	29349
814.692	29353
814.833	29322
814.974	29410
815.115	29379
815.256	29296
815.397	29254
815.539	29360
815.68	29227
815.821	29288
815.962	29258
816.103	29258
816.244	29056
816.385	29018
816.526	28934
816.666	28805
816.807	28672
816.948	28904
817.089	28828
817.23	28603
817.371	28744
817.512	28713
817.653	28611
817.793	28611
817.934	28607
818.075	28755
818.216	28774
818.356	28736
818.497	28630
818.638	28565
818.778	28508
818.919	28287
819.06	28531
819.2	28755
819.341	28706
819.481	28866
819.622	28938
819.762	29155
819.903	29052
820.043	29018
820.184	28828
820.324	28797
820.465	28957
820.605	28809
820.746	28771
820.886	28653
821.026	28816
821.167	28835
821.307	28968
821.447	28774
821.588	28778
821.728	28557
821.868	28360
822.008	28466
822.149	28177
822.289	28154
822.429	27979
822.569	27914
822.709	27994
822.849	27850
822.99	27709
823.13	27724
823.27	27652
823.41	27667
823.55	27500
823.69	27614
823.83	27701
823.97	27519
824.11	27237
824.25	27416
824.389	27389
824.529	27500
824.669	27374
824.809	27553
824.949	27534
825.089	27439
825.228	27408
825.368	27317
825.508	27138
825.648	27321
825.787	27359
825.927	27214
826.067	27294
826.206	27241
826.346	27317
826.485	27287
826.625	27256
826.765	27397
826.904	27370
827.044	27104
827.183	27154
827.323	27055
827.462	27165
827.601	27116
827.741	27058
827.88	27043
828.02	26956
828.159	26921
828.298	27047
828.437	26952
828.577	26921
828.716	27077
828.855	26826
828.994	26655
829.134	26727
829.273	26727
829.412	26708
829.551	26651
829.69	26590
829.829	26686
829.968	26712
830.107	26777
830.246	26708
830.385	26693
830.524	26495
830.663	26427
830.802	26488
830.941	26259
831.08	26233
831.219	26488
831.357	26389
831.496	26590
831.635	26301
831.774	26221
831.913	26214
832.051	26161
832.19	26168
832.329	26012
832.467	26012
832.606	25928
832.744	25982
832.883	26020
833.022	25963
833.16	25986
833.299	26058
833.437	26039
833.576	26115
833.714	26081
833.852	26073
833.991	26077
834.129	26187
834.267	26054
834.406	26008
834.544	26020
834.682	26092
834.821	26027
834.959	26153
835.097	26043
835.235	26024
835.373	26069
835.511	25955
835.65	25989
835.788	25852
835.926	25791
836.064	25738
836.202	25807
836.34	25841
836.478	25989
836.615	25811
836.753	25833
836.891	25868
837.029	25894
837.167	25868
837.305	25761
837.443	25746
837.58	25696
837.718	25799
837.856	25799
837.993	25609
838.131	25628
838.269	25529
838.406	25521
838.544	25430
838.681	25373
838.819	25346
838.956	25114
839.094	25084
839.231	25240
839.369	25400
839.506	25533
839.643	25460
839.781	25225
839.918	25213
840.055	25126
840.193	25133
840.33	25042
840.467	25122
840.604	25034
840.742	25232
840.879	24905
841.016	24973
841.153	25034
841.29	25129
841.427	24905
841.564	25057
841.701	25008
841.838	24977
841.975	25050
842.112	24943
842.249	24897
842.385	24772
842.522	25091
842.659	24894
842.796	24814
842.933	24875
843.069	24798
843.206	24779
843.343	24905
843.479	24791
843.616	24772
843.752	24555
843.889	24646
844.025	24681
844.162	24703
844.298	24627
844.435	24661
844.571	24673
844.708	24665
844.844	24760
844.98	24650
845.117	24707
845.253	24540
845.389	24475
845.525	24536
845.661	24426
845.798	24372
845.934	24296
846.07	24270
846.206	24315
846.342	24505
846.478	24315
846.614	24129
846.75	24011
846.886	23939
847.022	24167
847.158	24125
847.294	24079
847.429	24022
847.565	24057
847.701	24205
847.837	23729
847.972	23665
848.108	23874
848.244	23882
848.379	23657
848.515	23604
848.65	23551
848.786	23558
848.921	23676
849.057	23783
849.192	23760
849.328	23604
849.463	23638
849.598	23562
849.734	23459
849.869	23600
850.004	23330
850.14	23436
850.275	23307
850.41	23315
850.545	23315
850.68	23250
850.815	23349
850.95	23383
851.085	23551
851.22	23497
851.355	23467
851.49	23360
851.625	23395
851.76	23406
851.895	23318
852.03	23299
852.165	23326
852.299	23474
852.434	23459
852.569	23421
852.703	23277
852.838	23421
852.973	23581
853.107	23600
853.242	23315
853.376	23181
853.511	23044
853.645	23216
853.78	23303
853.914	23250
854.048	23220
854.183	23174
854.317	23288
854.451	23429
854.585	23128
854.72	23064
854.854	23246
854.988	23197
855.122	23174
855.256	22991
855.39	23151
855.524	23478
855.658	23356
855.792	23250
855.926	23265
856.06	23193
856.194	23349
856.327	23227
856.461	23075
856.595	23060
856.729	23185
856.862	23345
856.996	23193
857.13	23162
857.263	23254
857.397	23421
857.53	23235
857.664	23360
857.797	23246
857.931	23311
858.064	23151
858.197	23273
858.331	23220
858.464	23086
858.597	23044
858.731	23147
858.864	23155
858.997	23109
859.13	23170
859.263	23064
859.396	23147
859.529	23155
859.662	23121
859.795	23090
859.928	23299
860.061	23258
860.194	23330
860.327	23318
860.46	23284
860.592	23277
860.725	23383
860.858	23269
860.99	23185
861.123	23189
861.256	23094
861.388	23181
861.521	23950
861.653	22972
861.786	22999
861.918	23048
862.05	23098
862.183	23010
862.315	23223
862.447	23010
862.58	23083
862.712	22839
862.844	23006
862.976	23060
863.108	22961
863.24	23318
863.372	22778
863.504	22953
863.636	22793
863.768	22961
863.9	22896
864.032	22866
864.164	22812
864.296	22968
864.428	22968
864.559	22923
864.691	22991
864.823	22904
864.954	22721
865.086	22763
865.217	22778
865.349	22729
865.48	22839
865.612	22637
865.743	22980
865.875	22786
866.006	22706
866.137	22835
866.269	22801
866.4	22710
866.531	22675
866.662	22733
866.793	22687
866.924	22675
867.055	22550
867.186	22702
867.317	22683
867.448	22588
867.579	22702
867.71	22489
867.841	22664
867.972	22656
868.103	22713
868.233	22637
868.364	22691
868.495	22793
868.625	22889
868.756	23010
868.886	22831
869.017	22930
869.147	23014
869.278	22866
869.408	22820
869.539	22862
869.669	23003
869.799	22984
869.929	23162
870.06	23022
870.19	23299
870.32	23296
870.45	23246
870.58	23379
870.71	23337
870.84	23459
870.97	23383
871.1	23303
871.23	23585
871.36	23589
871.489	23486
871.619	23528
871.749	23360
871.879	23554
872.008	23638
872.138	23615
872.267	23493
872.397	23372
872.526	23189
872.656	23368
872.785	23292
872.915	23433
873.044	23665
873.173	23482
873.303	23524
873.432	23577
873.561	23539
873.69	23444
873.819	23471
873.948	23528
874.077	23455
874.206	23406
874.335	23463
874.464	23558
874.593	23836
874.722	23703
874.851	23851
874.979	23737
875.108	23828
875.237	23649
875.365	23596
875.494	23745
875.623	23718
875.751	23630
875.88	23775
876.008	23999
876.136	23863
876.265	24072
876.393	24190
876.521	24159
876.65	24205
876.778	24155
876.906	24068
877.034	24007
877.162	24152
877.29	24049
877.418	24110
877.546	24095
877.674	24064
877.802	23999
877.93	24038
878.058	23939
878.185	23958
878.313	24057
878.441	24030
878.568	23977
878.696	23977
878.824	24129
878.951	24171
879.079	24224
879.206	24334
879.333	24205
879.461	24083
879.588	24018
879.715	24098
879.842	24308
879.97	24182
880.097	23832
880.224	23771
880.351	23885
880.478	23912
880.605	23847
880.732	23809
880.859	24232
880.986	23745
881.112	23912
881.239	23748
881.366	23589
881.493	23554
881.619	23364
881.746	23524
881.872	23524
881.999	23322
882.125	23402
882.252	23509
882.378	23292
882.505	23608
882.631	23326
882.757	23121
882.883	23124
883.01	23140
883.136	23117
883.262	22968
883.388	22927
883.514	23060
883.64	23094
883.766	22927
883.892	22801
884.018	22873
884.143	23155
884.269	23064
884.395	22812
884.52	22702
884.646	22710
884.772	22607
884.897	22584
885.023	22763
885.148	22790
885.274	22801
885.399	22847
885.524	22752
885.65	22721
885.775	22755
885.9	22713
886.025	22755
886.15	22809
886.275	22687
886.4	22607
886.525	22710
886.65	22675
886.775	22580
886.9	22759
887.025	22961
887.149	22725
887.274	22580
887.399	22451
887.523	22417
887.648	22428
887.773	22360
887.897	22523
888.021	22535
888.146	22371
888.27	22462
888.395	22497
888.519	22485
888.643	22535
888.767	22508
888.891	22379
889.015	22265
889.139	22455
889.263	22223
889.387	22424
889.511	22367
889.635	22428
889.759	22234
889.883	22284
890.006	22280
890.13	22325
890.254	22097
890.377	22207
890.501	22044
890.624	22025
890.748	21953
890.871	21934
890.995	21835
891.118	21800
891.241	21838
891.364	21739
891.488	21937
891.611	21819
891.734	21861
891.857	21937
891.98	21679
892.103	21797
892.226	21728
892.349	21850
892.471	21637
892.594	21671
892.717	21652
892.839	21606
892.962	21625
893.085	21644
893.207	21663
893.33	21610
893.452	21595
893.575	21739
893.697	21557
893.819	21804
893.941	21854
894.064	21800
894.186	21637
894.308	21542
894.43	21675
894.552	21736
894.674	21713
894.796	21595
894.918	21663
895.04	21629
895.161	21637
895.283	21686
895.405	21675
895.526	21648
895.648	21625
895.769	21641
895.891	21629
896.012	21679
896.134	21591
896.255	21690
896.376	21428
896.498	21667
896.619	21587
896.74	21511
896.861	21675
896.982	21987
897.103	22112
897.224	21888
897.345	21823
897.466	21709
897.587	21819
897.708	21945
897.828	21926
897.949	21694
898.07	21644
898.19	21701
898.311	21793
898.431	21717
898.552	21759
898.672	21934
898.792	21812
898.913	21717
899.033	21644
899.153	21618
899.273	21302
899.393	21488
899.513	21641
899.633	21538
899.753	21511
899.873	21507
899.993	21538
900.113	21408
900.232	21431
900.352	21428
900.472	21355
900.591	21268
900.711	21252
900.83	21199
900.95	21336
901.069	21477
901.189	21184
901.308	20948
901.427	20918
901.546	20819
901.665	20914
901.784	20963
901.904	20701
902.023	20602
902.141	20423
902.26	20389
902.379	20446
902.498	20408
902.617	20400
902.735	20377
902.854	20290
902.973	20313
903.091	20107
903.21	20039
903.328	19974
903.446	19944
903.565	19875
903.683	19700
903.801	19696
903.919	19856
904.038	19803
904.156	19594
904.274	19700
904.392	19575
904.51	19476
904.627	19419
904.745	19620
904.863	19521
904.981	19339
905.098	19160
905.216	19297
905.334	19346
905.451	19297
905.569	19293
905.686	19301
905.803	19164
905.921	18962
906.038	19053
906.155	18913
906.272	18897
906.389	18951
906.506	18730
906.623	18772
906.74	18669
906.857	18593
906.974	18612
907.091	18776
907.208	18848
907.324	18749
907.441	18719
907.557	18498
907.674	18521
907.79	18369
907.907	18327
908.023	18437
908.139	18559
908.256	18395
908.372	18330
908.488	18311
908.604	18224
908.72	18045
908.836	18224
908.952	18194
909.068	18201
909.184	18205
909.3	18114
909.415	18243
909.531	18140
909.647	17992
909.762	17931
909.878	17866
909.993	17859
910.108	17847
910.224	17824
910.339	17764
910.454	17699
910.57	17581
910.685	17512
910.8	17904
910.915	17741
911.03	17600
911.145	17528
911.259	17440
911.374	17448
911.489	17318
911.604	17254
911.718	17140
911.833	17193
911.947	17090
912.062	16976
912.176	17166
912.291	17258
912.405	17102
912.519	17318
912.633	17337
912.748	17277
912.862	17075
912.976	16995
913.09	16885
913.204	16877
913.318	16980
913.431	17037
913.545	17014
913.659	17086
913.772	16946
913.886	16873
914	16771
914.113	16816
914.226	16793
914.34	16790
914.453	16577
914.566	16839
914.68	16561
914.793	16580
914.906	16371
915.019	16436
915.132	16276
915.245	16341
915.358	16207
915.47	16367
915.583	16276
915.696	16291
915.809	16436
915.921	16554
916.034	16200
916.146	16234
916.259	16272
916.371	16246
916.483	16230
916.595	16112
916.708	16139
916.82	16101
916.932	15972
917.044	16032
917.156	16002
917.268	15964
917.38	16051
917.491	15899
917.603	15941
917.715	16010
917.826	16025
917.938	15819
918.049	15781
918.161	15945
918.272	15960
918.384	15884
918.495	15857
918.606	15732
918.717	15538
918.828	15656
918.939	15625
919.05	15606
919.161	15618
919.272	15405
919.383	15473
919.494	15656
919.604	15785
919.715	15720
919.826	15507
919.936	15568
920.047	15625
920.157	15564
920.267	15686
920.378	15557
920.488	15606
920.598	15698
920.708	15899
920.818	15720
920.928	15663
921.038	15770
921.148	15804
921.258	15572
921.368	15439
921.477	15367
921.587	15302
921.697	15157
921.806	15291
921.916	15180
922.025	14944
922.134	14925
922.244	14921
922.353	14979
922.462	14777
922.571	14777
922.68	14571
922.789	14511
922.898	14583
923.007	14537
923.116	14594
923.224	14552
923.333	14473
923.442	14343
923.55	14396
923.659	14343
923.767	14492
923.876	14263
923.984	14396
924.092	14263
924.201	14343
924.309	14374
924.417	14267
924.525	14278
924.633	14149
924.741	15093
924.849	14081
924.956	14145
925.064	14039
925.172	13879
925.279	13909
925.387	14039
925.494	13963
925.602	14096
925.709	13959
925.816	13788
925.924	13826
926.031	13951
926.138	13837
926.245	13887
926.352	13826
926.459	13906
926.566	13837
926.673	13799
926.779	13742
926.886	13647
926.993	13453
927.099	13419
927.206	13434
927.312	13419
927.419	13548
927.525	13491
927.631	13422
927.737	13365
927.843	13354
927.95	13171
928.056	13206
928.162	13228
928.267	13297
928.373	13898
928.479	13255
928.585	12943
928.69	13236
928.796	13236
928.901	13236
929.007	12943
929.112	13118
929.218	13103
929.323	12993
929.428	12993
929.533	13065
929.638	12958
929.743	12913
929.848	12985
929.953	12840
930.058	12814
930.163	12654
930.267	12688
930.372	12730
930.477	12570
930.581	12787
930.685	12658
930.79	12467
930.894	12547
930.998	12509
931.103	12654
931.207	12273
931.311	12121
931.415	12095
931.519	11802
931.623	11882
