Data from test_V78500241_3215.txt Node
Date: Fri Mar 25 16:04:04 CST 2022
User: usil
Spectrometer: V785-0024
Trigger mode: 0
Integration Time (sec): 4.000000E-1
Scans to average: 1
Nonlinearity correction enabled: false
Boxcar width: 0
Storing dark spectrum: false
XAxis mode: Wavelengths
Number of Pixels in Spectrum: 1024
>>>>>Begin Spectral Data<<<<<
801.071	28816
801.214	28782
801.356	28546
801.499	28462
801.641	28428
801.783	28447
801.926	28367
802.068	28523
802.211	28306
802.353	28253
802.496	28158
802.638	28200
802.78	28040
802.923	28044
803.065	28120
803.208	28200
803.35	28166
803.492	28234
803.635	28424
803.777	28325
803.919	28462
804.061	28599
804.204	28386
804.346	28261
804.488	28211
804.63	28424
804.773	28185
804.915	28375
805.057	28675
805.199	28500
805.341	28474
805.483	28485
805.626	28485
805.768	28333
805.91	28379
806.052	28603
806.194	28500
806.336	28630
806.478	28489
806.62	28630
806.762	28504
806.904	28847
807.046	29124
807.188	28930
807.33	29029
807.472	29079
807.614	28995
807.756	28919
807.898	28961
808.04	28740
808.182	28733
808.324	28877
808.465	28839
808.607	29048
808.749	29174
808.891	29345
809.033	29433
809.174	29334
809.316	29288
809.458	29254
809.6	29265
809.741	29315
809.883	29406
810.025	29524
810.166	29570
810.308	29535
810.45	29406
810.591	29315
810.733	29307
810.875	29330
811.016	29136
811.158	29239
811.299	29364
811.441	29471
811.582	29402
811.724	29383
811.865	29303
812.007	29242
812.148	29223
812.29	29395
812.431	29570
812.573	29562
812.714	29619
812.855	29767
812.997	29897
813.138	30041
813.279	29954
813.421	29817
813.562	29741
813.703	29630
813.845	29554
813.986	29277
814.127	29189
814.268	29014
814.41	28968
814.551	28927
814.692	29025
814.833	28877
814.974	29025
815.115	28980
815.256	28793
815.397	28774
815.539	28900
815.68	28911
815.821	28805
815.962	28835
816.103	28831
816.244	28569
816.385	28630
816.526	28508
816.666	28485
816.807	28306
816.948	28371
817.089	28478
817.23	28325
817.371	28295
817.512	28318
817.653	28261
817.793	28261
817.934	28169
818.075	28303
818.216	28352
818.356	28276
818.497	28306
818.638	28105
818.778	28105
818.919	28010
819.06	28211
819.2	28166
819.341	28291
819.481	28158
819.622	28523
819.762	28637
819.903	28653
820.043	28451
820.184	28409
820.324	28413
820.465	28550
820.605	28481
820.746	28337
820.886	28325
821.026	28352
821.167	28314
821.307	28512
821.447	28276
821.588	28173
821.728	28128
821.868	27823
822.008	27736
822.149	27739
822.289	27793
822.429	27523
822.569	27568
822.709	27393
822.849	27302
822.99	27359
823.13	27389
823.27	27157
823.41	27169
823.55	27020
823.69	27192
823.83	27283
823.97	27127
824.11	26914
824.25	26845
824.389	27009
824.529	27024
824.669	26986
824.809	27062
824.949	27020
825.089	27169
825.228	27085
825.368	26823
825.508	26918
825.648	26731
825.787	26910
825.927	26937
826.067	26773
826.206	26807
826.346	26807
826.485	26880
826.625	26792
826.765	26788
826.904	26887
827.044	26587
827.183	26549
827.323	26571
827.462	26651
827.601	26514
827.741	26613
827.88	26606
828.02	26545
828.159	26575
828.298	26590
828.437	26663
828.577	26507
828.716	26640
828.855	26381
828.994	26370
829.134	26347
829.273	26408
829.412	26225
829.551	26206
829.69	26168
829.829	26214
829.968	26187
830.107	26370
830.246	26252
830.385	26324
830.524	26092
830.663	26084
830.802	26058
830.941	25811
831.08	25776
831.219	26031
831.357	25845
831.496	26001
831.635	25875
831.774	25799
831.913	25734
832.051	25658
832.19	25597
832.329	25628
832.467	25396
832.606	25396
832.744	25457
832.883	25552
833.022	25483
833.16	25457
833.299	25643
833.437	25525
833.576	25575
833.714	25457
833.852	25567
833.991	25483
834.129	25616
834.267	25738
834.406	25635
834.544	25609
834.682	25571
834.821	25662
834.959	25655
835.097	25472
835.235	25567
835.373	25643
835.511	25529
835.65	25483
835.788	25464
835.926	25187
836.064	25160
836.202	25327
836.34	25479
836.478	25605
836.615	25308
836.753	25369
836.891	25384
837.029	25377
837.167	25304
837.305	25285
837.443	25350
837.58	25190
837.718	25324
837.856	25308
837.993	25266
838.131	25122
838.269	25027
838.406	25175
838.544	25137
838.681	24928
838.819	24897
838.956	24757
839.094	24700
839.231	24802
839.369	24951
839.506	25202
839.643	24970
839.781	24722
839.918	24669
840.055	24673
840.193	24681
840.33	24582
840.467	24646
840.604	24703
840.742	24935
840.879	24479
841.016	24616
841.153	24528
841.29	24601
841.427	24593
841.564	24525
841.701	24593
841.838	24597
841.975	24608
842.112	24544
842.249	24441
842.385	24338
842.522	24574
842.659	24456
842.796	24376
842.933	24334
843.069	24311
843.206	24426
843.343	24460
843.479	24365
843.616	24270
843.752	24232
843.889	24098
844.025	24410
844.162	24083
844.298	24155
844.435	24133
844.571	24106
844.708	24232
844.844	24220
844.98	24273
845.117	24235
845.253	24106
845.389	23946
845.525	24011
845.661	24106
845.798	23859
845.934	24034
846.07	23764
846.206	23935
846.342	24057
846.478	23889
846.614	23745
846.75	23562
846.886	23528
847.022	23646
847.158	23646
847.294	23668
847.429	23764
847.565	23493
847.701	23889
847.837	23303
847.972	23250
848.108	23410
848.244	23280
848.379	23277
848.515	23113
848.65	23086
848.786	23250
848.921	23136
849.057	23220
849.192	23258
849.328	23140
849.463	23174
849.598	23193
849.734	23010
849.869	23102
850.004	23041
850.14	22961
850.275	22911
850.41	22831
850.545	22938
850.68	22911
850.815	23018
850.95	23029
851.085	23075
851.22	23048
851.355	22847
851.49	22991
851.625	22892
851.76	22938
851.895	22908
852.03	22881
852.165	22987
852.299	22938
852.434	23094
852.569	23022
852.703	22961
852.838	22961
852.973	23067
853.107	23010
853.242	22847
853.376	22889
853.511	22626
853.645	22755
853.78	22953
853.914	22790
854.048	22675
854.183	22835
854.317	22790
854.451	23010
854.585	22850
854.72	22805
854.854	22976
854.988	22687
855.122	22778
855.256	22801
855.39	22744
855.524	22740
855.658	22809
855.792	22801
855.926	22797
856.06	22725
856.194	22919
856.327	22717
856.461	22744
856.595	22713
856.729	22847
856.862	22938
856.996	22687
857.13	22873
857.263	22843
857.397	22866
857.53	22668
857.664	22759
857.797	22869
857.931	22953
858.064	22839
858.197	22755
858.331	22744
858.464	22626
858.597	22641
858.731	22816
858.864	22786
858.997	22713
859.13	22790
859.263	22774
859.396	22812
859.529	22786
859.662	22740
859.795	22710
859.928	22729
860.061	22885
860.194	23064
860.327	22793
860.46	22763
860.592	22968
860.725	22904
860.858	22980
860.99	22755
861.123	22672
861.256	22774
861.388	22763
861.521	23467
861.653	22668
861.786	22565
861.918	22596
862.05	22713
862.183	22710
862.315	22790
862.447	22713
862.58	22618
862.712	22523
862.844	22546
862.976	22611
863.108	22622
863.24	22904
863.372	22405
863.504	22382
863.636	22352
863.768	22485
863.9	22485
864.032	22497
864.164	22440
864.296	22550
864.428	22504
864.559	22508
864.691	22538
864.823	22512
864.954	22535
865.086	22432
865.217	22303
865.349	22306
865.48	22333
865.612	22390
865.743	22580
865.875	22535
866.006	22318
866.137	22371
866.269	22295
866.4	22253
866.531	22310
866.662	22223
866.793	22215
866.924	22382
867.055	22287
867.186	22325
867.317	22211
867.448	22215
867.579	22200
867.71	22158
867.841	22124
867.972	22230
868.103	22276
868.233	22196
868.364	22325
868.495	22337
868.625	22516
868.756	22721
868.886	22455
869.017	22504
869.147	22596
869.278	22733
869.408	22584
869.539	22512
869.669	22664
869.799	22561
869.929	22615
870.06	22504
870.19	22824
870.32	22877
870.45	22721
870.58	22866
870.71	23124
870.84	23029
870.97	23006
871.1	22995
871.23	23048
871.36	23174
871.489	23071
871.619	23147
871.749	23220
871.879	23162
872.008	23227
872.138	23143
872.267	23083
872.397	22869
872.526	22972
872.656	22889
872.785	22953
872.915	23200
873.044	23166
873.173	23124
873.303	23159
873.432	23170
873.561	23341
873.69	23189
873.819	23220
873.948	23246
874.077	23242
874.206	23102
874.335	23178
874.464	23246
874.593	23265
874.722	23277
874.851	23410
874.979	23337
875.108	23383
875.237	23387
875.365	23109
875.494	23277
875.623	23391
875.751	23258
875.88	23524
876.008	23524
876.136	23539
876.265	23684
876.393	23786
876.521	23809
876.65	23828
876.778	23672
876.906	23722
877.034	23589
877.162	23756
877.29	23722
877.418	23783
877.546	23783
877.674	23771
877.802	23649
877.93	23566
878.058	23691
878.185	23497
878.313	23611
878.441	23638
878.568	23501
878.696	23657
878.824	23710
878.951	23737
879.079	23980
879.206	23931
879.333	23851
879.461	23691
879.588	23821
879.715	23885
879.842	23893
879.97	23836
880.097	23592
880.224	23691
880.351	23611
880.478	23509
880.605	23501
880.732	23463
880.859	23604
880.986	23497
881.112	23531
881.239	23402
881.366	23105
881.493	23128
881.619	23086
881.746	23140
881.872	23094
881.999	22968
882.125	22892
882.252	23124
882.378	23090
882.505	23056
882.631	22881
882.757	22698
882.883	22824
883.01	22683
883.136	22721
883.262	22706
883.388	22592
883.514	22790
883.64	22828
883.766	22596
883.892	22592
884.018	22599
884.143	22736
884.269	22805
884.395	22497
884.52	22390
884.646	22489
884.772	22291
884.897	22299
885.023	22295
885.148	22527
885.274	22504
885.399	22485
885.524	22398
885.65	22341
885.775	22348
885.9	22318
886.025	22436
886.15	22428
886.275	22322
886.4	22238
886.525	22413
886.65	22276
886.775	22303
886.9	22367
887.025	22538
887.149	22333
887.274	22219
887.399	22196
887.523	22154
887.648	22139
887.773	22105
887.897	22253
888.021	22173
888.146	22090
888.27	22211
888.395	22249
888.519	22070
888.643	22105
888.767	22196
888.891	22082
889.015	21842
889.139	22017
889.263	21876
889.387	21994
889.511	21975
889.635	22048
889.759	21884
889.883	21869
890.006	21941
890.13	22044
890.254	21759
890.377	21781
890.501	21694
890.624	21603
890.748	21690
890.871	21564
890.995	21431
891.118	21416
891.241	21477
891.364	21450
891.488	21679
891.611	21469
891.734	21412
891.857	21614
891.98	21523
892.103	21500
892.226	21591
892.349	21393
892.471	21184
892.594	21439
892.717	21313
892.839	21420
892.962	21272
893.085	21302
893.207	21287
893.33	21180
893.452	21123
893.575	21393
893.697	21332
893.819	21469
893.941	21359
894.064	21473
894.186	21283
894.308	21230
894.43	21370
894.552	21538
894.674	21408
894.796	21306
894.918	21268
895.04	21344
895.161	21435
895.283	21393
895.405	21332
895.526	21351
895.648	21275
895.769	21389
895.891	21321
896.012	21332
896.134	21279
896.255	21363
896.376	21325
896.498	21408
896.619	21374
896.74	21283
896.861	21351
896.982	21629
897.103	21884
897.224	21591
897.345	21580
897.466	21485
897.587	21523
897.708	21545
897.828	21637
897.949	21591
898.07	21336
898.19	21428
898.311	21648
898.431	21447
898.552	21538
898.672	21580
898.792	21500
898.913	21644
899.033	21351
899.153	21321
899.273	21260
899.393	21180
899.513	21142
899.633	21161
899.753	21233
899.873	21116
899.993	21123
900.113	21039
900.232	21294
900.352	21237
900.472	21214
900.591	21036
900.711	21058
900.83	20960
900.95	21074
901.069	21013
901.189	20811
901.308	20724
901.427	20530
901.546	20617
901.665	20526
901.784	20530
901.904	20537
902.023	20355
902.141	20180
902.26	20084
902.379	20229
902.498	20084
902.617	20008
902.735	20130
902.854	20100
902.973	20058
903.091	19833
903.21	19693
903.328	19742
903.446	19628
903.565	19586
903.683	19495
903.801	19381
903.919	19533
904.038	19468
904.156	19301
904.274	19457
904.392	19183
904.51	19301
904.627	19289
904.745	19187
904.863	19297
904.981	19232
905.098	18856
905.216	19046
905.334	18966
905.451	18958
905.569	18973
905.686	18894
905.803	19000
905.921	18738
906.038	18852
906.155	18791
906.272	18642
906.389	18608
906.506	18452
906.623	18407
906.74	18547
906.857	18395
906.974	18216
907.091	18467
907.208	18635
907.324	18563
907.441	18388
907.557	18228
907.674	18247
907.79	18133
907.907	18159
908.023	18235
908.139	18152
908.256	18106
908.372	18114
908.488	18049
908.604	17923
908.72	17946
908.836	17813
908.952	17882
909.068	17980
909.184	17965
909.3	17904
909.415	17897
909.531	17836
909.647	17573
909.762	17551
909.878	17577
909.993	17638
910.108	17505
910.224	17573
910.339	17539
910.454	17512
910.57	17322
910.685	17345
910.8	17608
910.915	17509
911.03	17376
911.145	17159
911.259	17136
911.374	17124
911.489	17079
911.604	16995
911.718	16790
911.833	16885
911.947	16889
912.062	16748
912.176	17006
912.291	16934
912.405	16957
912.519	17029
912.633	17090
912.748	16995
912.862	16805
912.976	16717
913.09	16691
913.204	16664
913.318	16653
913.431	16831
913.545	16778
913.659	16820
913.772	16542
913.886	16531
914	16470
914.113	16523
914.226	16645
914.34	16542
914.453	16371
914.566	16588
914.68	16398
914.793	16360
914.906	16226
915.019	16078
915.132	16059
915.245	16063
915.358	16067
915.47	16093
915.583	15983
915.696	16086
915.809	16040
915.921	16139
916.034	15926
916.146	15907
916.259	15922
916.371	16059
916.483	15998
916.595	15968
916.708	15968
916.82	15922
916.932	15911
917.044	15861
917.156	15804
917.268	15652
917.38	15759
917.491	15648
917.603	15751
917.715	15739
917.826	15720
917.938	15625
918.049	15458
918.161	15599
918.272	15785
918.384	15739
918.495	15625
918.606	15439
918.717	15443
918.828	15359
918.939	15488
919.05	15298
919.161	15443
919.272	15214
919.383	15264
919.494	15496
919.604	15622
919.715	15469
919.826	15230
919.936	15405
920.047	15405
920.157	15412
920.267	15595
920.378	15363
920.488	15367
920.598	15450
920.708	15610
920.818	15507
920.928	15469
921.038	15595
921.148	15545
921.258	15291
921.368	15241
921.477	15039
921.587	15108
921.697	14956
921.806	15093
921.916	15013
922.025	14777
922.134	14640
922.244	14667
922.353	14754
922.462	14594
922.571	14507
922.68	14400
922.789	14393
922.898	14385
923.007	14320
923.116	14339
923.224	14248
923.333	14328
923.442	14172
923.55	14244
923.659	14145
923.767	14218
923.876	14157
923.984	14168
924.092	13993
924.201	14046
924.309	13993
924.417	13978
924.525	13944
924.633	13978
924.741	14758
924.849	13864
924.956	13974
925.064	13750
925.172	13719
925.279	13662
925.387	13731
925.494	13799
925.602	13841
925.709	13776
925.816	13609
925.924	13696
926.031	13738
926.138	13700
926.245	13712
926.352	13529
926.459	13658
926.566	13715
926.673	13586
926.779	13426
926.886	13411
926.993	13362
927.099	13293
927.206	13301
927.312	13156
927.419	13285
927.525	13301
927.631	13232
927.737	13179
927.843	13061
927.95	13065
928.056	12954
928.162	13080
928.267	13095
928.373	13544
928.479	13145
928.585	12920
928.69	13012
928.796	13012
928.901	12985
929.007	12753
929.112	12894
929.218	12848
929.323	12738
929.428	12707
929.533	12943
929.638	12692
929.743	12673
929.848	12627
929.953	12673
930.058	12574
930.163	12395
930.267	12445
930.372	12563
930.477	12486
930.581	12703
930.685	12490
930.79	12346
930.894	12304
930.998	12285
931.103	12395
931.207	12072
931.311	11897
931.415	11969
931.519	11714
931.623	11634
