Data from test_V78500241_812.txt Node
Date: Fri Mar 25 15:47:25 CST 2022
User: usil
Spectrometer: V785-0024
Trigger mode: 0
Integration Time (sec): 4.000000E-1
Scans to average: 1
Nonlinearity correction enabled: false
Boxcar width: 0
Storing dark spectrum: false
XAxis mode: Wavelengths
Number of Pixels in Spectrum: 1024
>>>>>Begin Spectral Data<<<<<
801.071	27751
801.214	27648
801.356	27500
801.499	27374
801.641	27188
801.783	27310
801.926	27272
802.068	27317
802.211	27161
802.353	27051
802.496	26933
802.638	26819
802.78	26899
802.923	26883
803.065	26792
803.208	26849
803.35	26944
803.492	26944
803.635	26994
803.777	26933
803.919	27169
804.061	27462
804.204	27150
804.346	26994
804.488	26899
804.63	27020
804.773	26963
804.915	27241
805.057	27222
805.199	27024
805.341	27275
805.483	27195
805.626	27256
805.768	26944
805.91	27180
806.052	27195
806.194	27173
806.336	27291
806.478	27264
806.62	27222
806.762	27424
806.904	27629
807.046	27705
807.188	27660
807.33	27663
807.472	27530
807.614	27587
807.756	27576
807.898	27401
808.04	27363
808.182	27492
808.324	27545
808.465	27561
808.607	27743
808.749	27884
808.891	27937
809.033	28029
809.174	27857
809.316	27770
809.458	27895
809.6	27751
809.741	27953
809.883	27987
810.025	28276
810.166	28048
810.308	28105
810.45	28238
810.591	28211
810.733	27968
810.875	27895
811.016	27793
811.158	27713
811.299	27979
811.441	28055
811.582	28055
811.724	27945
811.865	27747
812.007	27854
812.148	27850
812.29	28078
812.431	28105
812.573	28181
812.714	28318
812.855	28504
812.997	28417
813.138	28615
813.279	28527
813.421	28451
813.562	28440
813.703	28223
813.845	28181
813.986	27846
814.127	27648
814.268	27572
814.41	27641
814.551	27485
814.692	27603
814.833	27709
814.974	27534
815.115	27580
815.256	27405
815.397	27416
815.539	27389
815.68	27336
815.821	27321
815.962	27336
816.103	27355
816.244	27207
816.385	27165
816.526	27036
816.666	26868
816.807	26918
816.948	26952
817.089	26906
817.23	26834
817.371	26800
817.512	26697
817.653	26842
817.793	26804
817.934	26826
818.075	26937
818.216	26834
818.356	26769
818.497	26743
818.638	26583
818.778	26568
818.919	26587
819.06	26648
819.2	26712
819.341	26796
819.481	26796
819.622	26925
819.762	27268
819.903	27184
820.043	27116
820.184	26845
820.324	26940
820.465	26895
820.605	26960
820.746	26956
820.886	26800
821.026	26899
821.167	26990
821.307	27051
821.447	26925
821.588	26667
821.728	26644
821.868	26568
822.008	26278
822.149	26278
822.289	26427
822.429	26035
822.569	26069
822.709	26035
822.849	25738
822.99	25864
823.13	25814
823.27	25940
823.41	25772
823.55	25533
823.69	25742
823.83	25662
823.97	25472
824.11	25453
824.25	25453
824.389	25578
824.529	25552
824.669	25540
824.809	25643
824.949	25556
825.089	25571
825.228	25502
825.368	25327
825.508	25445
825.648	25324
825.787	25358
825.927	25335
826.067	25312
826.206	25285
826.346	25434
826.485	25343
826.625	25392
826.765	25392
826.904	25438
827.044	25160
827.183	25190
827.323	24981
827.462	25091
827.601	25244
827.741	25027
827.88	25183
828.02	25072
828.159	25164
828.298	24935
828.437	25084
828.577	25076
828.716	25027
828.855	24928
828.994	24738
829.134	24741
829.273	24905
829.412	24726
829.551	24749
829.69	24779
829.829	24764
829.968	24806
830.107	24715
830.246	24719
830.385	24692
830.524	24673
830.663	24589
830.802	24494
830.941	24311
831.08	24399
831.219	24559
831.357	24475
831.496	24677
831.635	24486
831.774	24178
831.913	24205
832.051	24148
832.19	24129
832.329	24133
832.467	24155
832.606	23980
832.744	24026
832.883	24155
833.022	24011
833.16	24068
833.299	24068
833.437	24060
833.576	24057
833.714	24136
833.852	24190
833.991	24205
834.129	24163
834.267	24163
834.406	24079
834.544	24091
834.682	24201
834.821	24136
834.959	24171
835.097	24068
835.235	24159
835.373	24216
835.511	24114
835.65	24018
835.788	23984
835.926	23775
836.064	23707
836.202	23786
836.34	23958
836.478	24015
836.615	23893
836.753	23927
836.891	23973
837.029	23977
837.167	23931
837.305	23885
837.443	23893
837.58	23767
837.718	23927
837.856	23695
837.993	23684
838.131	23733
838.269	23737
838.406	23668
838.544	23516
838.681	23474
838.819	23368
838.956	23239
839.094	23387
839.231	23391
839.369	23296
839.506	23611
839.643	23452
839.781	23246
839.918	23178
840.055	23132
840.193	23200
840.33	23220
840.467	23326
840.604	23212
840.742	23383
840.879	23094
841.016	23193
841.153	22961
841.29	23174
841.427	23216
841.564	23250
841.701	23170
841.838	23181
841.975	22987
842.112	23083
842.249	23037
842.385	22930
842.522	23197
842.659	23052
842.796	22904
842.933	22877
843.069	22919
843.206	22923
843.343	22839
843.479	22892
843.616	22953
843.752	22675
843.889	22713
844.025	22801
844.162	22668
844.298	22755
844.435	22649
844.571	22729
844.708	22691
844.844	22778
844.98	22816
845.117	22752
845.253	22618
845.389	22580
845.525	22577
845.661	22618
845.798	22417
845.934	22432
846.07	22344
846.206	22375
846.342	22607
846.478	22318
846.614	22280
846.75	22131
846.886	22147
847.022	22109
847.158	22257
847.294	22128
847.429	22207
847.565	22154
847.701	22360
847.837	21857
847.972	21789
848.108	21941
848.244	21899
848.379	21800
848.515	21709
848.65	21789
848.786	21701
848.921	21770
849.057	21819
849.192	21701
849.328	21759
849.463	21759
849.598	21739
849.734	21492
849.869	21576
850.004	21458
850.14	21572
850.275	21462
850.41	21507
850.545	21401
850.68	21553
850.815	21526
850.95	21591
851.085	21705
851.22	21739
851.355	21504
851.49	21481
851.625	21420
851.76	21504
851.895	21454
852.03	21447
852.165	21542
852.299	21523
852.434	21644
852.569	21622
852.703	21405
852.838	21587
852.973	21534
853.107	21591
853.242	21412
853.376	21340
853.511	21313
853.645	21249
853.78	21466
853.914	21424
854.048	21233
854.183	21313
854.317	21443
854.451	21473
854.585	21340
854.72	21420
854.854	21348
854.988	21222
855.122	21344
855.256	21363
855.39	21340
855.524	21344
855.658	21386
855.792	21291
855.926	21310
856.06	21321
856.194	21439
856.327	21332
856.461	21306
856.595	21294
856.729	21348
856.862	21397
856.996	21287
857.13	21439
857.263	21431
857.397	21405
857.53	21344
857.664	21412
857.797	21454
857.931	21454
858.064	21401
858.197	21420
858.331	21279
858.464	21264
858.597	21222
858.731	21237
858.864	21378
858.997	21272
859.13	21435
859.263	21401
859.396	21523
859.529	21313
859.662	21275
859.795	21306
859.928	21374
860.061	21488
860.194	21591
860.327	21450
860.46	21496
860.592	21523
860.725	21591
860.858	21340
860.99	21340
861.123	21256
861.256	21355
861.388	21397
861.521	21892
861.653	21199
861.786	21100
861.918	21203
862.05	21241
862.183	21329
862.315	21245
862.447	21393
862.58	21195
862.712	21009
862.844	20963
862.976	21127
863.108	21020
863.24	21549
863.372	21112
863.504	21123
863.636	21062
863.768	21017
863.9	20994
864.032	20876
864.164	21039
864.296	21131
864.428	21180
864.559	21058
864.691	21218
864.823	20998
864.954	21051
865.086	20986
865.217	20914
865.349	20861
865.48	20941
865.612	20937
865.743	21237
865.875	20971
866.006	20986
866.137	20982
866.269	20982
866.4	20944
866.531	20982
866.662	20777
866.793	20990
866.924	21013
867.055	20941
867.186	20823
867.317	20781
867.448	20830
867.579	20769
867.71	20807
867.841	20800
867.972	20933
868.103	20880
868.233	20887
868.364	20883
868.495	21116
868.625	21066
868.756	21211
868.886	21032
869.017	21017
869.147	21367
869.278	21218
869.408	21089
869.539	21051
869.669	21100
869.799	21165
869.929	21256
870.06	21245
870.19	21450
870.32	21447
870.45	21428
870.58	21530
870.71	21686
870.84	21580
870.97	21485
871.1	21542
871.23	21743
871.36	21778
871.489	21679
871.619	21713
871.749	21705
871.879	21720
872.008	21709
872.138	21835
872.267	21637
872.397	21572
872.526	21450
872.656	21660
872.785	21496
872.915	21717
873.044	21709
873.173	21823
873.303	21785
873.432	21835
873.561	21850
873.69	21717
873.819	21842
873.948	21732
874.077	21732
874.206	21724
874.335	21686
874.464	21774
874.593	21857
874.722	21926
874.851	21918
874.979	22017
875.108	22109
875.237	21983
875.365	21907
875.494	21884
875.623	21934
875.751	21895
875.88	21918
876.008	22082
876.136	22093
876.265	22462
876.393	22512
876.521	22344
876.65	22363
876.778	22394
876.906	22291
877.034	22333
877.162	22188
877.29	22295
877.418	22234
877.546	22322
877.674	22352
877.802	22344
877.93	22284
878.058	22333
878.185	22124
878.313	22371
878.441	22249
878.568	22200
878.696	22280
878.824	22318
878.951	22386
879.079	22451
879.206	22573
879.333	22531
879.461	22390
879.588	22386
879.715	22481
879.842	22603
879.97	22310
880.097	22147
880.224	22135
880.351	22207
880.478	22169
880.605	22150
880.732	22135
880.859	22432
880.986	22200
881.112	22059
881.239	22025
881.366	21930
881.493	21808
881.619	21679
881.746	21671
881.872	21679
881.999	21675
882.125	21591
882.252	21770
882.378	21622
882.505	21869
882.631	21549
882.757	21515
882.883	21439
883.01	21477
883.136	21355
883.262	21161
883.388	21275
883.514	21416
883.64	21401
883.766	21397
883.892	21165
884.018	21173
884.143	21466
884.269	21363
884.395	21169
884.52	20979
884.646	20971
884.772	20994
884.897	20925
885.023	21066
885.148	21131
885.274	21146
885.399	21043
885.524	21096
885.65	21081
885.775	21142
885.9	21039
886.025	21074
886.15	21138
886.275	20986
886.4	20937
886.525	21119
886.65	20902
886.775	20960
886.9	21123
887.025	21169
887.149	20971
887.274	20921
887.399	20853
887.523	20872
887.648	20621
887.773	20583
887.897	20937
888.021	20842
888.146	20769
888.27	20853
888.395	20918
888.519	20849
888.643	20929
888.767	20845
888.891	20575
889.015	20651
889.139	20663
889.263	20689
889.387	20849
889.511	20845
889.635	20746
889.759	20590
889.883	20526
890.006	20602
890.13	20682
890.254	20518
890.377	20492
890.501	20465
890.624	20343
890.748	20518
890.871	20206
890.995	20119
891.118	20096
891.241	20278
891.364	20145
891.488	20324
891.611	20233
891.734	20221
891.857	20267
891.98	20263
892.103	20256
892.226	20218
892.349	20122
892.471	20012
892.594	20187
892.717	20214
892.839	20092
892.962	20046
893.085	20221
893.207	20062
893.33	20035
893.452	20008
893.575	20218
893.697	20107
893.819	20199
893.941	20267
894.064	20145
894.186	20077
894.308	20050
894.43	20202
894.552	20240
894.674	20252
894.796	19955
894.918	20100
895.04	20115
895.161	20149
895.283	20157
895.405	20054
895.526	20027
895.648	19989
895.769	20161
895.891	20088
896.012	20259
896.134	20069
896.255	20168
896.376	20183
896.498	20077
896.619	20062
896.74	20119
896.861	20210
896.982	20393
897.103	20511
897.224	20290
897.345	20161
897.466	20111
897.587	20202
897.708	20320
897.828	20332
897.949	20298
898.07	20088
898.19	20161
898.311	20396
898.431	20252
898.552	20324
898.672	20434
898.792	20431
898.913	20351
899.033	20237
899.153	20081
899.273	19883
899.393	20039
899.513	20096
899.633	20187
899.753	20119
899.873	19974
899.993	19978
900.113	20008
900.232	20027
900.352	19947
900.472	19852
900.591	19799
900.711	19860
900.83	19719
900.95	19955
901.069	19894
901.189	19700
901.308	19670
901.427	19457
901.546	19441
901.665	19312
901.784	19400
901.904	19362
902.023	19084
902.141	19046
902.26	19004
902.379	19027
902.498	18829
902.617	19000
902.735	18848
902.854	18859
902.973	18791
903.091	18745
903.21	18597
903.328	18642
903.446	18681
903.565	18429
903.683	18429
903.801	18311
903.919	18357
904.038	18350
904.156	18201
904.274	18224
904.392	18140
904.51	18087
904.627	18228
904.745	18140
904.863	18095
904.981	17920
905.098	17832
905.216	17935
905.334	17916
905.451	17794
905.569	17859
905.686	17729
905.803	17748
905.921	17562
906.038	17821
906.155	17615
906.272	17539
906.389	17535
906.506	17296
906.623	17444
906.74	17391
906.857	17277
906.974	17307
907.091	17417
907.208	17448
907.324	17379
907.441	17322
907.557	17155
907.674	17102
907.79	17060
907.907	17105
908.023	17105
908.139	17033
908.256	17041
908.372	17014
908.488	16835
908.604	16968
908.72	16885
908.836	16782
908.952	16805
909.068	16820
909.184	17003
909.3	16816
909.415	16847
909.531	16953
909.647	16618
909.762	16603
909.878	16459
909.993	16512
910.108	16500
910.224	16504
910.339	16588
910.454	16367
910.57	16348
910.685	16238
910.8	16474
910.915	16352
911.03	16268
911.145	16207
911.259	16112
911.374	16169
911.489	16093
911.604	15873
911.718	15899
911.833	15861
911.947	15739
912.062	15717
912.176	15835
912.291	15895
912.405	15842
912.519	16139
912.633	15994
912.748	15857
912.862	15838
912.976	15713
913.09	15610
913.204	15587
913.318	15663
913.431	15812
913.545	15713
913.659	15720
913.772	15614
913.886	15458
914	15462
914.113	15641
914.226	15587
914.34	15686
914.453	15321
914.566	15557
914.68	15340
914.793	15340
914.906	15203
915.019	15142
915.132	15043
915.245	15047
915.358	15161
915.47	15077
915.583	15017
915.696	15104
915.809	15233
915.921	15176
916.034	15047
916.146	15047
916.259	15032
916.371	15077
916.483	15047
916.595	15020
916.708	14941
916.82	14910
916.932	14811
917.044	14933
917.156	14933
917.268	14823
917.38	14811
917.491	14765
917.603	14746
917.715	14834
917.826	14823
917.938	14670
918.049	14598
918.161	14746
918.272	14781
918.384	14762
918.495	14629
918.606	14549
918.717	14434
918.828	14419
918.939	14575
919.05	14503
919.161	14412
919.272	14305
919.383	14271
919.494	14522
919.604	14716
919.715	14480
919.826	14446
919.936	14454
920.047	14499
920.157	14465
920.267	14655
920.378	14476
920.488	14434
920.598	14720
920.708	14815
920.818	14587
920.928	14541
921.038	14758
921.148	14667
921.258	14442
921.368	14427
921.477	14271
921.587	14183
921.697	14035
921.806	14145
921.916	14111
922.025	13944
922.134	13845
922.244	13788
922.353	13807
922.462	13784
922.571	13674
922.68	13510
922.789	13388
922.898	13567
923.007	13476
923.116	13426
923.224	13514
923.333	13464
923.442	13358
923.55	13324
923.659	13320
923.767	13415
923.876	13232
923.984	13324
924.092	13198
924.201	13198
924.309	13236
924.417	13304
924.525	13088
924.633	13061
924.741	14050
924.849	13050
924.956	13076
925.064	12981
925.172	12901
925.279	12863
925.387	12970
925.494	12943
925.602	13042
925.709	12913
925.816	12837
925.924	12848
926.031	12916
926.138	12947
926.245	12871
926.352	12772
926.459	12875
926.566	12901
926.673	12821
926.779	12684
926.886	12620
926.993	12589
927.099	12486
927.206	12448
927.312	12399
927.419	12509
927.525	12445
927.631	12479
927.737	12300
927.843	12277
927.95	12232
928.056	12285
928.162	12304
928.267	12372
928.373	13012
928.479	12342
928.585	12171
928.69	12266
928.796	12232
928.901	12175
929.007	12045
929.112	12205
929.218	12167
929.323	12011
929.428	12019
929.533	12175
929.638	11954
929.743	11961
929.848	12068
929.953	12011
930.058	11863
930.163	11737
930.267	11638
930.372	11821
930.477	11688
930.581	11893
930.685	11786
930.79	11585
930.894	11634
930.998	11532
931.103	11722
931.207	11387
931.311	11288
931.415	11220
931.519	10930
931.623	10980
