Data from test_V78500241_1126.txt Node
Date: Fri Mar 25 15:49:36 CST 2022
User: usil
Spectrometer: V785-0024
Trigger mode: 0
Integration Time (sec): 4.000000E-1
Scans to average: 1
Nonlinearity correction enabled: false
Boxcar width: 0
Storing dark spectrum: false
XAxis mode: Wavelengths
Number of Pixels in Spectrum: 1024
>>>>>Begin Spectral Data<<<<<
801.071	28615
801.214	28736
801.356	28466
801.499	28291
801.641	28291
801.783	28272
801.926	28249
802.068	28322
802.211	28215
802.353	28166
802.496	28154
802.638	27873
802.78	27956
802.923	27934
803.065	27922
803.208	27861
803.35	28070
803.492	28086
803.635	28166
803.777	28051
803.919	28261
804.061	28436
804.204	28242
804.346	28082
804.488	28131
804.63	28158
804.773	28124
804.915	28337
805.057	28215
805.199	28226
805.341	28329
805.483	28379
805.626	28314
805.768	28352
805.91	28352
806.052	28325
806.194	28421
806.336	28573
806.478	28596
806.62	28405
806.762	28592
806.904	28713
807.046	28961
807.188	28881
807.33	28927
807.472	28915
807.614	28759
807.756	28767
807.898	28672
808.04	28660
808.182	28694
808.324	28618
808.465	28782
808.607	28919
808.749	29041
808.891	29064
809.033	29208
809.174	29242
809.316	29014
809.458	29193
809.6	29124
809.741	29326
809.883	29341
810.025	29299
810.166	29444
810.308	29414
810.45	29421
810.591	29299
810.733	29284
810.875	29006
811.016	29010
811.158	28934
811.299	29231
811.441	29326
811.582	29345
811.724	29086
811.865	29132
812.007	29094
812.148	29109
812.29	29132
812.431	29280
812.573	29589
812.714	29490
812.855	29707
812.997	29737
813.138	29748
813.279	29710
813.421	29745
813.562	29691
813.703	29406
813.845	29303
813.986	29117
814.127	28957
814.268	28797
814.41	28869
814.551	28847
814.692	28744
814.833	28949
814.974	28763
815.115	28729
815.256	28668
815.397	28774
815.539	28626
815.68	28725
815.821	28584
815.962	28668
816.103	28550
816.244	28493
816.385	28409
816.526	28329
816.666	28261
816.807	28128
816.948	28322
817.089	28341
817.23	28166
817.371	28169
817.512	28109
817.653	28219
817.793	28090
817.934	28093
818.075	28169
818.216	28124
818.356	28074
818.497	27842
818.638	27781
818.778	27808
818.919	28067
819.06	28078
819.2	28078
819.341	28059
819.481	28143
819.622	28257
819.762	28519
819.903	28478
820.043	28436
820.184	28306
820.324	28348
820.465	28303
820.605	28265
820.746	28158
820.886	28150
821.026	28295
821.167	28306
821.307	28284
821.447	28207
821.588	28051
821.728	27930
821.868	27838
822.008	27667
822.149	27599
822.289	27545
822.429	27424
822.569	27283
822.709	27378
822.849	27180
822.99	27195
823.13	27165
823.27	27321
823.41	27036
823.55	27001
823.69	26861
823.83	26994
823.97	26937
824.11	26781
824.25	26743
824.389	26758
824.529	26891
824.669	26857
824.809	26902
824.949	27017
825.089	26921
825.228	26902
825.368	26640
825.508	26682
825.648	26708
825.787	26697
825.927	26849
826.067	26708
826.206	26712
826.346	26800
826.485	26701
826.625	26613
826.765	26952
826.904	26724
827.044	26446
827.183	26488
827.323	26358
827.462	26427
827.601	26427
827.741	26404
827.88	26514
828.02	26423
828.159	26252
828.298	26488
828.437	26446
828.577	26324
828.716	26450
828.855	26317
828.994	26054
829.134	26050
829.273	26168
829.412	26161
829.551	26031
829.69	26069
829.829	26092
829.968	26180
830.107	26054
830.246	26092
830.385	26031
830.524	26172
830.663	25909
830.802	25959
830.941	25807
831.08	25715
831.219	25799
831.357	25693
831.496	26020
831.635	25666
831.774	25643
831.913	25639
832.051	25491
832.19	25605
832.329	25483
832.467	25350
832.606	25266
832.744	25335
832.883	25438
833.022	25244
833.16	25362
833.299	25499
833.437	25354
833.576	25422
833.714	25415
833.852	25430
833.991	25312
834.129	25472
834.267	25529
834.406	25403
834.544	25415
834.682	25483
834.821	25495
834.959	25586
835.097	25415
835.235	25521
835.373	25510
835.511	25377
835.65	25324
835.788	25228
835.926	25168
836.064	25034
836.202	25069
836.34	25320
836.478	25331
836.615	25129
836.753	25217
836.891	25285
837.029	25183
837.167	25240
837.305	25152
837.443	25000
837.58	25129
837.718	25129
837.856	25050
837.993	25107
838.131	25061
838.269	24935
838.406	24894
838.544	24890
838.681	24661
838.819	24802
838.956	24426
839.094	24544
839.231	24528
839.369	24757
839.506	25008
839.643	24700
839.781	24563
839.918	24578
840.055	24467
840.193	24505
840.33	24502
840.467	24585
840.604	24525
840.742	24639
840.879	24380
841.016	24384
841.153	24334
841.29	24521
841.427	24391
841.564	24429
841.701	24361
841.838	24403
841.975	24384
842.112	24289
842.249	24372
842.385	24311
842.522	24372
842.659	24140
842.796	24076
842.933	24133
843.069	24060
843.206	24251
843.343	24197
843.479	24167
843.616	24167
843.752	23988
843.889	23939
844.025	24117
844.162	23980
844.298	24167
844.435	23912
844.571	23992
844.708	23992
844.844	24030
844.98	24011
845.117	24178
845.253	23923
845.389	23977
845.525	23840
845.661	23802
845.798	23634
845.934	23745
846.07	23771
846.206	23611
846.342	23851
846.478	23737
846.614	23398
846.75	23311
846.886	23474
847.022	23425
847.158	23414
847.294	23360
847.429	23554
847.565	23322
847.701	23695
847.837	23113
847.972	23086
848.108	23231
848.244	23273
848.379	23010
848.515	23079
848.65	22938
848.786	23060
848.921	23109
849.057	23124
849.192	23143
849.328	23041
849.463	23079
849.598	22949
849.734	22919
849.869	22774
850.004	22744
850.14	22847
850.275	22831
850.41	22793
850.545	22778
850.68	22752
850.815	22687
850.95	22793
851.085	22904
851.22	22908
851.355	22710
851.49	22675
851.625	22755
851.76	22744
851.895	22725
852.03	22713
852.165	22733
852.299	22847
852.434	22908
852.569	22713
852.703	22889
852.838	22797
852.973	22759
853.107	23022
853.242	22729
853.376	22611
853.511	22512
853.645	22694
853.78	22790
853.914	22611
854.048	22565
854.183	22504
854.317	22664
854.451	22824
854.585	22512
854.72	22573
854.854	22649
854.988	22569
855.122	22565
855.256	22466
855.39	22432
855.524	22603
855.658	22542
855.792	22573
855.926	22603
856.06	22672
856.194	22694
856.327	22500
856.461	22493
856.595	22615
856.729	22504
856.862	22687
856.996	22645
857.13	22675
857.263	22748
857.397	22603
857.53	22523
857.664	22512
857.797	22557
857.931	22706
858.064	22626
858.197	22778
858.331	22630
858.464	22523
858.597	22519
858.731	22615
858.864	22523
858.997	22478
859.13	22592
859.263	22592
859.396	22706
859.529	22596
859.662	22645
859.795	22565
859.928	22508
860.061	22759
860.194	22710
860.327	22626
860.46	22519
860.592	22668
860.725	22660
860.858	22713
860.99	22637
861.123	22622
861.256	22508
861.388	22603
861.521	23391
861.653	22481
861.786	22303
861.918	22409
862.05	22485
862.183	22584
862.315	22546
862.447	22694
862.58	22561
862.712	22314
862.844	22249
862.976	22344
863.108	22344
863.24	22755
863.372	22318
863.504	22219
863.636	22261
863.768	22462
863.9	22207
864.032	22128
864.164	22238
864.296	22253
864.428	22322
864.559	22322
864.691	22375
864.823	22272
864.954	22306
865.086	22276
865.217	22147
865.349	22048
865.48	22257
865.612	22196
865.743	22287
865.875	22109
866.006	22177
866.137	22215
866.269	22211
866.4	22036
866.531	22120
866.662	22097
866.793	22154
866.924	22143
867.055	22093
867.186	22093
867.317	22006
867.448	21968
867.579	22059
867.71	22021
867.841	22029
867.972	22086
868.103	22051
868.233	22124
868.364	22051
868.495	22162
868.625	22356
868.756	22424
868.886	22192
869.017	22268
869.147	22306
869.278	22535
869.408	22363
869.539	22173
869.669	22341
869.799	22379
869.929	22538
870.06	22379
870.19	22679
870.32	22596
870.45	22710
870.58	22740
870.71	22603
870.84	22809
870.97	22721
871.1	22649
871.23	22873
871.36	22847
871.489	22858
871.619	22999
871.749	22953
871.879	22949
872.008	23037
872.138	22919
872.267	22915
872.397	22717
872.526	22767
872.656	22759
872.785	22934
872.915	22892
873.044	22965
873.173	22961
873.303	23025
873.432	23010
873.561	22999
873.69	22843
873.819	22911
873.948	23071
874.077	23006
874.206	22873
874.335	22877
874.464	22999
874.593	23136
874.722	23147
874.851	23170
874.979	23242
875.108	23174
875.237	23174
875.365	23166
875.494	22984
875.623	23170
875.751	23071
875.88	23227
876.008	23261
876.136	23216
876.265	23512
876.393	23581
876.521	23573
876.65	23649
876.778	23516
876.906	23414
877.034	23547
877.162	23448
877.29	23360
877.418	23482
877.546	23516
877.674	23471
877.802	23600
877.93	23577
878.058	23573
878.185	23231
878.313	23429
878.441	23391
878.568	23284
878.696	23368
878.824	23410
878.951	23661
879.079	23543
879.206	23630
879.333	23661
879.461	23581
879.588	23509
879.715	23714
879.842	23790
879.97	23551
880.097	23239
880.224	23250
880.351	23277
880.478	23334
880.605	23239
880.732	23250
880.859	23463
880.986	23242
881.112	23254
881.239	23231
881.366	23044
881.493	22965
881.619	22809
881.746	22991
881.872	22892
881.999	22885
882.125	22740
882.252	22892
882.378	22934
882.505	22999
882.631	22771
882.757	22672
882.883	22573
883.01	22577
883.136	22603
883.262	22360
883.388	22363
883.514	22550
883.64	22618
883.766	22337
883.892	22375
884.018	22432
884.143	22424
884.269	22565
884.395	22341
884.52	22044
884.646	22246
884.772	22139
884.897	21915
885.023	22219
885.148	22299
885.274	22200
885.399	22192
885.524	22192
885.65	22287
885.775	22139
885.9	22226
886.025	22188
886.15	22177
886.275	22124
886.4	22147
886.525	22253
886.65	22120
886.775	22059
886.9	22295
887.025	22284
887.149	22143
887.274	21823
887.399	21987
887.523	21922
887.648	21861
887.773	21781
887.897	22010
888.021	21937
888.146	21835
888.27	22074
888.395	22002
888.519	21930
888.643	21953
888.767	21937
888.891	21850
889.015	21736
889.139	21812
889.263	21648
889.387	21732
889.511	21994
889.635	21816
889.759	21557
889.883	21679
890.006	21629
890.13	21793
890.254	21671
890.377	21644
890.501	21454
890.624	21447
890.748	21481
890.871	21332
890.995	21195
891.118	21256
891.241	21230
891.364	21157
891.488	21370
891.611	21249
891.734	21085
891.857	21287
891.98	21272
892.103	21260
892.226	21203
892.349	21169
892.471	21032
892.594	21150
892.717	21241
892.839	21081
892.962	21146
893.085	21298
893.207	21081
893.33	21047
893.452	21024
893.575	21150
893.697	21165
893.819	21230
893.941	21279
894.064	21283
894.186	21055
894.308	21123
894.43	21161
894.552	21275
894.674	21245
894.796	20941
894.918	21081
895.04	21211
895.161	21199
895.283	21039
895.405	21093
895.526	21112
895.648	21074
895.769	21218
895.891	21112
896.012	21237
896.134	21157
896.255	21074
896.376	21089
896.498	21138
896.619	21173
896.74	21169
896.861	21085
896.982	21485
897.103	21538
897.224	21306
897.345	21355
897.466	21230
897.587	21310
897.708	21344
897.828	21378
897.949	21127
898.07	21096
898.19	21397
898.311	21283
898.431	21279
898.552	21393
898.672	21481
898.792	21431
898.913	21344
899.033	21325
899.153	21154
899.273	21032
899.393	21108
899.513	21096
899.633	21089
899.753	21058
899.873	20891
899.993	21032
900.113	20948
900.232	21047
900.352	20948
900.472	20792
900.591	20777
900.711	20880
900.83	20758
900.95	20906
901.069	20876
901.189	20705
901.308	20484
901.427	20396
901.546	20267
901.665	20332
901.784	20298
901.904	20259
902.023	20081
902.141	19887
902.26	19864
902.379	19955
902.498	19833
902.617	19761
902.735	20020
902.854	19784
902.973	19868
903.091	19533
903.21	19609
903.328	19449
903.446	19350
903.565	19438
903.683	19316
903.801	19194
903.919	19232
904.038	19293
904.156	19164
904.274	19183
904.392	19065
904.51	19038
904.627	19053
904.745	19107
904.863	19137
904.981	18932
905.098	18681
905.216	18829
905.334	18734
905.451	18829
905.569	18791
905.686	18810
905.803	18741
905.921	18528
906.038	18566
906.155	18513
906.272	18498
906.389	18391
906.506	18292
906.623	18330
906.74	18308
906.857	18178
906.974	18243
907.091	18361
907.208	18410
907.324	18300
907.441	18091
907.557	18064
907.674	17999
907.79	17977
907.907	17977
908.023	18026
908.139	17939
908.256	17908
908.372	17939
908.488	17889
908.604	17668
908.72	17710
908.836	17809
908.952	17611
909.068	17710
909.184	17786
909.3	17676
909.415	17646
909.531	17653
909.647	17395
909.762	17391
909.878	17429
909.993	17478
910.108	17452
910.224	17391
910.339	17425
910.454	17349
910.57	17216
910.685	17151
910.8	17425
910.915	17292
911.03	17185
911.145	16965
911.259	16999
911.374	17067
911.489	16946
911.604	16809
911.718	16717
911.833	16782
911.947	16645
912.062	16660
912.176	16778
912.291	16668
912.405	16790
912.519	16953
912.633	16892
912.748	16755
912.862	16725
912.976	16558
913.09	16394
913.204	16447
913.318	16436
913.431	16489
913.545	16580
913.659	16561
913.772	16428
913.886	16318
914	16344
914.113	16516
914.226	16519
914.34	16421
914.453	16143
914.566	16367
914.68	16207
914.793	16059
914.906	16017
915.019	15979
915.132	15922
915.245	15941
915.358	15907
915.47	15949
915.583	15865
915.696	15953
915.809	16101
915.921	15991
916.034	15819
916.146	15831
916.259	15751
916.371	15899
916.483	15732
916.595	15698
916.708	15789
916.82	15618
916.932	15762
917.044	15679
917.156	15549
917.268	15477
917.38	15587
917.491	15523
917.603	15610
917.715	15534
917.826	15606
917.938	15355
918.049	15431
918.161	15431
918.272	15568
918.384	15599
918.495	15530
918.606	15226
918.717	15203
918.828	15306
918.939	15321
919.05	15138
919.161	15298
919.272	15127
919.383	15138
919.494	15317
919.604	15450
919.715	15173
919.826	15165
919.936	15161
920.047	15241
920.157	15310
920.267	15386
920.378	15218
920.488	15287
920.598	15389
920.708	15431
920.818	15344
920.928	15233
921.038	15511
921.148	15401
921.258	15108
921.368	15100
921.477	14998
921.587	14864
921.697	14804
921.806	14933
921.916	14800
922.025	14560
922.134	14629
922.244	14461
922.353	14632
922.462	14457
922.571	14492
922.68	14195
922.789	14214
922.898	14259
923.007	14138
923.116	14202
923.224	14252
923.333	14130
923.442	14065
923.55	14043
923.659	13974
923.767	14100
923.876	14001
923.984	13947
924.092	13864
924.201	13955
924.309	13940
924.417	13856
924.525	13864
924.633	13833
924.741	14579
924.849	13727
924.956	13830
925.064	13655
925.172	13529
925.279	13597
925.387	13510
925.494	13548
925.602	13712
925.709	13620
925.816	13460
925.924	13483
926.031	13651
926.138	13563
926.245	13582
926.352	13430
926.459	13491
926.566	13518
926.673	13472
926.779	13388
926.886	13377
926.993	13118
927.099	13133
927.206	13152
927.312	12981
927.419	13168
927.525	13091
927.631	13156
927.737	12985
927.843	12970
927.95	12924
928.056	12947
928.162	13015
928.267	12996
928.373	13563
928.479	12970
928.585	12783
928.69	12928
928.796	12859
928.901	12768
929.007	12593
929.112	12810
929.218	12779
929.323	12681
929.428	12642
929.533	12776
929.638	12604
929.743	12608
929.848	12711
929.953	12509
930.058	12555
930.163	12342
930.267	12285
930.372	12475
930.477	12262
930.581	12502
930.685	12323
930.79	12194
930.894	12110
930.998	12224
931.103	12304
931.207	12015
931.311	11798
931.415	11775
931.519	11611
931.623	11665
