Data from test_V78500241_3505.txt Node
Date: Fri Mar 25 16:06:04 CST 2022
User: usil
Spectrometer: V785-0024
Trigger mode: 0
Integration Time (sec): 4.000000E-1
Scans to average: 1
Nonlinearity correction enabled: false
Boxcar width: 0
Storing dark spectrum: false
XAxis mode: Wavelengths
Number of Pixels in Spectrum: 1024
>>>>>Begin Spectral Data<<<<<
801.071	29018
801.214	28976
801.356	28767
801.499	28596
801.641	28485
801.783	28679
801.926	28519
802.068	28409
802.211	28523
802.353	28531
802.496	28253
802.638	28192
802.78	28265
802.923	28204
803.065	28249
803.208	28192
803.35	28249
803.492	28322
803.635	28599
803.777	28447
803.919	28417
804.061	28702
804.204	28599
804.346	28470
804.488	28451
804.63	28367
804.773	28314
804.915	28470
805.057	28573
805.199	28455
805.341	28573
805.483	28634
805.626	28607
805.768	28565
805.91	28626
806.052	28637
806.194	28497
806.336	28828
806.478	28740
806.62	28698
806.762	28790
806.904	28930
807.046	29178
807.188	29292
807.33	29090
807.472	29254
807.614	29094
807.756	29147
807.898	28995
808.04	28908
808.182	28729
808.324	29033
808.465	29155
808.607	29337
808.749	29212
808.891	29444
809.033	29448
809.174	29433
809.316	29455
809.458	29303
809.6	29334
809.741	29516
809.883	29478
810.025	29680
810.166	29600
810.308	29638
810.45	29558
810.591	29558
810.733	29566
810.875	29330
811.016	29208
811.158	29334
811.299	29539
811.441	29577
811.582	29531
811.724	29349
811.865	29288
812.007	29372
812.148	29349
812.29	29653
812.431	29501
812.573	29722
812.714	29718
812.855	29813
812.997	30030
813.138	30129
813.279	29946
813.421	29779
813.562	29920
813.703	29714
813.845	29615
813.986	29303
814.127	29143
814.268	29128
814.41	29136
814.551	29071
814.692	29079
814.833	28919
814.974	29052
815.115	29037
815.256	29071
815.397	29048
815.539	28896
815.68	28991
815.821	28858
815.962	28927
816.103	28858
816.244	28797
816.385	28698
816.526	28687
816.666	28455
816.807	28424
816.948	28447
817.089	28386
817.23	28421
817.371	28409
817.512	28337
817.653	28417
817.793	28337
817.934	28413
818.075	28398
818.216	28523
818.356	28508
818.497	28295
818.638	28116
818.778	28207
818.919	28238
819.06	28295
819.2	28242
819.341	28523
819.481	28440
819.622	28607
819.762	28706
819.903	28656
820.043	28599
820.184	28538
820.324	28554
820.465	28729
820.605	28618
820.746	28557
820.886	28379
821.026	28577
821.167	28603
821.307	28542
821.447	28557
821.588	28379
821.728	28200
821.868	28048
822.008	27804
822.149	27888
822.289	27991
822.429	27667
822.569	27511
822.709	27663
822.849	27424
822.99	27477
823.13	27370
823.27	27264
823.41	27127
823.55	27199
823.69	27294
823.83	27169
823.97	27100
824.11	27100
824.25	26952
824.389	26883
824.529	27157
824.669	27032
824.809	27287
824.949	27233
825.089	27104
825.228	27131
825.368	26994
825.508	26864
825.648	27047
825.787	27081
825.927	27112
826.067	27024
826.206	26906
826.346	27001
826.485	26967
826.625	26933
826.765	27203
826.904	27051
827.044	26823
827.183	26724
827.323	26689
827.462	26636
827.601	26701
827.741	26678
827.88	26701
828.02	26499
828.159	26724
828.298	26815
828.437	26724
828.577	26617
828.716	26769
828.855	26606
828.994	26434
829.134	26446
829.273	26511
829.412	26309
829.551	26282
829.69	26240
829.829	26400
829.968	26511
830.107	26332
830.246	26412
830.385	26377
830.524	26301
830.663	26286
830.802	26191
830.941	25951
831.08	25947
831.219	26031
831.357	26020
831.496	26240
831.635	25951
831.774	25890
831.913	25887
832.051	25765
832.19	25803
832.329	25715
832.467	25731
832.606	25632
832.744	25662
832.883	25677
833.022	25594
833.16	25681
833.299	25613
833.437	25643
833.576	25704
833.714	25590
833.852	25753
833.991	25689
834.129	25826
834.267	25769
834.406	25628
834.544	25864
834.682	25807
834.821	25765
834.959	25799
835.097	25670
835.235	25765
835.373	25757
835.511	25609
835.65	25502
835.788	25491
835.926	25533
836.064	25460
836.202	25396
836.34	25643
836.478	25514
836.615	25499
836.753	25453
836.891	25567
837.029	25487
837.167	25350
837.305	25377
837.443	25460
837.58	25327
837.718	25411
837.856	25373
837.993	25202
838.131	25362
838.269	25156
838.406	25171
838.544	25236
838.681	25027
838.819	25004
838.956	24875
839.094	24787
839.231	24795
839.369	25000
839.506	25110
839.643	25031
839.781	24745
839.918	24825
840.055	24875
840.193	24791
840.33	24696
840.467	24821
840.604	24802
840.742	25019
840.879	24601
841.016	24475
841.153	24635
841.29	24654
841.427	24673
841.564	24654
841.701	24692
841.838	24544
841.975	24563
842.112	24620
842.249	24620
842.385	24513
842.522	24646
842.659	24441
842.796	24513
842.933	24555
843.069	24422
843.206	24445
843.343	24544
843.479	24479
843.616	24536
843.752	24285
843.889	24182
844.025	24388
844.162	24285
844.298	24315
844.435	24213
844.571	24140
844.708	24273
844.844	24365
844.98	24437
845.117	24456
845.253	24228
845.389	24007
845.525	24022
845.661	23992
845.798	23954
845.934	24034
846.07	23916
846.206	23984
846.342	24083
846.478	23965
846.614	23741
846.75	23665
846.886	23699
847.022	23630
847.158	23802
847.294	23676
847.429	23676
847.565	23680
847.701	23958
847.837	23444
847.972	23410
848.108	23455
848.244	23467
848.379	23353
848.515	23155
848.65	23277
848.786	23345
848.921	23322
849.057	23395
849.192	23246
849.328	23284
849.463	23212
849.598	23265
849.734	23250
849.869	22984
850.004	23044
850.14	22980
850.275	22999
850.41	23041
850.545	22976
850.68	22923
850.815	23102
850.95	23064
851.085	23227
851.22	23181
851.355	23140
851.49	22968
851.625	23102
851.76	23052
851.895	22919
852.03	22908
852.165	23098
852.299	22980
852.434	23098
852.569	22915
852.703	23003
852.838	23197
852.973	23223
853.107	23189
853.242	22927
853.376	22820
853.511	22763
853.645	22843
853.78	22961
853.914	22858
854.048	22831
854.183	22858
854.317	22942
854.451	22999
854.585	22717
854.72	22809
854.854	23037
854.988	22809
855.122	22915
855.256	22759
855.39	22881
855.524	22976
855.658	22938
855.792	22850
855.926	22900
856.06	22915
856.194	23006
856.327	22896
856.461	22892
856.595	22850
856.729	22980
856.862	22923
856.996	22862
857.13	22889
857.263	22881
857.397	22942
857.53	22892
857.664	22889
857.797	22965
857.931	23102
858.064	22991
858.197	22949
858.331	22904
858.464	22816
858.597	22774
858.731	22839
858.864	22767
858.997	22740
859.13	22858
859.263	22843
859.396	22885
859.529	22824
859.662	22850
859.795	22702
859.928	22824
860.061	23006
860.194	23105
860.327	22900
860.46	22733
860.592	22965
860.725	23064
860.858	22991
860.99	22797
861.123	22862
861.256	22713
861.388	22786
861.521	23539
861.653	22828
861.786	22698
861.918	22805
862.05	22653
862.183	22919
862.315	22824
862.447	22911
862.58	22744
862.712	22599
862.844	22599
862.976	22649
863.108	22706
863.24	22953
863.372	22527
863.504	22668
863.636	22535
863.768	22641
863.9	22588
864.032	22474
864.164	22535
864.296	22413
864.428	22630
864.559	22702
864.691	22596
864.823	22538
864.954	22459
865.086	22645
865.217	22436
865.349	22242
865.48	22493
865.612	22523
865.743	22546
865.875	22390
866.006	22371
866.137	22379
866.269	22497
866.4	22424
866.531	22379
866.662	22382
866.793	22276
866.924	22337
867.055	22344
867.186	22310
867.317	22402
867.448	22341
867.579	22409
867.71	22253
867.841	22261
867.972	22276
868.103	22303
868.233	22318
868.364	22409
868.495	22573
868.625	22599
868.756	22634
868.886	22535
869.017	22615
869.147	22675
869.278	22656
869.408	22611
869.539	22653
869.669	22649
869.799	22668
869.929	22786
870.06	22672
870.19	22862
870.32	22976
870.45	22995
870.58	23010
870.71	23113
870.84	23128
870.97	22961
871.1	22965
871.23	23185
871.36	23094
871.489	23010
871.619	23124
871.749	23132
871.879	23299
872.008	23341
872.138	23216
872.267	23334
872.397	23113
872.526	22991
872.656	23006
872.785	23140
872.915	23159
873.044	23265
873.173	23246
873.303	23307
873.432	23239
873.561	23387
873.69	23197
873.819	23258
873.948	23284
874.077	23197
874.206	23223
874.335	23246
874.464	23292
874.593	23509
874.722	23242
874.851	23299
874.979	23322
875.108	23455
875.237	23379
875.365	23417
875.494	23372
875.623	23421
875.751	23341
875.88	23490
876.008	23562
876.136	23539
876.265	23786
876.393	23889
876.521	23836
876.65	23912
876.778	23760
876.906	23775
877.034	23752
877.162	23908
877.29	23741
877.418	23771
877.546	23813
877.674	23687
877.802	23748
877.93	23684
878.058	23680
878.185	23676
878.313	23623
878.441	23790
878.568	23482
878.696	23748
878.824	23832
878.951	23912
879.079	23904
879.206	24057
879.333	24041
879.461	23916
879.588	23824
879.715	23920
879.842	23999
879.97	23752
880.097	23608
880.224	23566
880.351	23630
880.478	23452
880.605	23543
880.732	23722
880.859	23855
880.986	23531
881.112	23570
881.239	23478
881.366	23200
881.493	23254
881.619	23239
881.746	23208
881.872	23166
881.999	22984
882.125	23044
882.252	23254
882.378	23083
882.505	23250
882.631	23056
882.757	22820
882.883	22965
883.01	22942
883.136	22873
883.262	22683
883.388	22569
883.514	22881
883.64	22904
883.766	22786
883.892	22710
884.018	22569
884.143	22702
884.269	22919
884.395	22527
884.52	22462
884.646	22402
884.772	22360
884.897	22341
885.023	22417
885.148	22459
885.274	22592
885.399	22546
885.524	22413
885.65	22398
885.775	22474
885.9	22386
886.025	22584
886.15	22481
886.275	22268
886.4	22386
886.525	22413
886.65	22360
886.775	22306
886.9	22554
887.025	22656
887.149	22341
887.274	22215
887.399	22177
887.523	22101
887.648	22105
887.773	22166
887.897	22295
888.021	22295
888.146	22029
888.27	22143
888.395	22276
888.519	22204
888.643	22131
888.767	22367
888.891	22048
889.015	21987
889.139	22093
889.263	21964
889.387	22070
889.511	22188
889.635	22150
889.759	21983
889.883	21941
890.006	21964
890.13	22158
890.254	21819
890.377	21907
890.501	21781
890.624	21739
890.748	21823
890.871	21641
890.995	21454
891.118	21488
891.241	21576
891.364	21637
891.488	21644
891.611	21603
891.734	21485
891.857	21610
891.98	21515
892.103	21481
892.226	21606
892.349	21351
892.471	21245
892.594	21515
892.717	21416
892.839	21367
892.962	21481
893.085	21420
893.207	21401
893.33	21336
893.452	21294
893.575	21348
893.697	21336
893.819	21660
893.941	21545
894.064	21606
894.186	21192
894.308	21279
894.43	21386
894.552	21523
894.674	21549
894.796	21214
894.918	21264
895.04	21298
895.161	21572
895.283	21534
895.405	21408
895.526	21458
895.648	21332
895.769	21500
895.891	21408
896.012	21485
896.134	21481
896.255	21523
896.376	21268
896.498	21298
896.619	21279
896.74	21313
896.861	21405
896.982	21698
897.103	21766
897.224	21595
897.345	21564
897.466	21504
897.587	21583
897.708	21789
897.828	21675
897.949	21538
898.07	21359
898.19	21424
898.311	21648
898.431	21511
898.552	21557
898.672	21599
898.792	21637
898.913	21618
899.033	21477
899.153	21378
899.273	21359
899.393	21317
899.513	21313
899.633	21321
899.753	21279
899.873	21142
899.993	21226
900.113	21184
900.232	21287
900.352	21237
900.472	21100
900.591	21036
900.711	21062
900.83	21070
900.95	21222
901.069	21142
901.189	20944
901.308	20731
901.427	20602
901.546	20727
901.665	20800
901.784	20598
901.904	20552
902.023	20408
902.141	20214
902.26	20244
902.379	20298
902.498	20229
902.617	20199
902.735	20191
902.854	20081
902.973	20016
903.091	19841
903.21	19830
903.328	19826
903.446	19635
903.565	19651
903.683	19582
903.801	19457
903.919	19487
904.038	19460
904.156	19419
904.274	19438
904.392	19362
904.51	19289
904.627	19244
904.745	19369
904.863	19339
904.981	19023
905.098	18924
905.216	18985
905.334	19008
905.451	19080
905.569	18875
905.686	18939
905.803	19072
905.921	18810
906.038	18947
906.155	18798
906.272	18681
906.389	18768
906.506	18528
906.623	18475
906.74	18509
906.857	18395
906.974	18384
907.091	18525
907.208	18650
907.324	18456
907.441	18448
907.557	18315
907.674	18216
907.79	18159
907.907	18136
908.023	18182
908.139	18174
908.256	18235
908.372	18167
908.488	18129
908.604	17920
908.72	17939
908.836	17897
908.952	17863
909.068	18053
909.184	18019
909.3	17958
909.415	17992
909.531	17885
909.647	17703
909.762	17756
909.878	17600
909.993	17585
910.108	17672
910.224	17558
910.339	17661
910.454	17554
910.57	17524
910.685	17421
910.8	17543
910.915	17619
911.03	17478
911.145	17231
911.259	17307
911.374	17220
911.489	17121
911.604	17113
911.718	16972
911.833	16976
911.947	16889
912.062	16725
912.176	16946
912.291	17060
912.405	16790
912.519	17181
912.633	17143
912.748	16968
912.862	16892
912.976	16847
913.09	16664
913.204	16664
913.318	16816
913.431	16793
913.545	16752
913.659	16854
913.772	16672
913.886	16641
914	16504
914.113	16535
914.226	16683
914.34	16554
914.453	16451
914.566	16653
914.68	16455
914.793	16322
914.906	16219
915.019	16143
915.132	16101
915.245	15983
915.358	16177
915.47	16112
915.583	16071
915.696	16101
915.809	16207
915.921	16200
916.034	16010
916.146	16086
916.259	15895
916.371	16131
916.483	16059
916.595	15876
916.708	15903
916.82	15934
916.932	15850
917.044	15918
917.156	15804
917.268	15751
917.38	15759
917.491	15633
917.603	15778
917.715	15762
917.826	15793
917.938	15599
918.049	15625
918.161	15644
918.272	15778
918.384	15686
918.495	15701
918.606	15462
918.717	15363
918.828	15557
918.939	15477
919.05	15351
919.161	15439
919.272	15241
919.383	15344
919.494	15351
919.604	15675
919.715	15416
919.826	15348
919.936	15367
920.047	15500
920.157	15488
920.267	15443
920.378	15450
920.488	15397
920.598	15584
920.708	15679
920.818	15606
920.928	15515
921.038	15618
921.148	15610
921.258	15397
921.368	15287
921.477	15112
921.587	15051
921.697	15089
921.806	15112
921.916	14952
922.025	14826
922.134	14876
922.244	14743
922.353	14739
922.462	14663
922.571	14648
922.68	14442
922.789	14305
922.898	14385
923.007	14351
923.116	14469
923.224	14339
923.333	14336
923.442	14298
923.55	14221
923.659	14225
923.767	14259
923.876	14134
923.984	14157
924.092	14123
924.201	14149
924.309	14164
924.417	14225
924.525	14035
924.633	14020
924.741	14902
924.849	13928
924.956	13959
925.064	13761
925.172	13723
925.279	13674
925.387	13734
925.494	13822
925.602	13860
925.709	13791
925.816	13666
925.924	13662
926.031	13746
926.138	13655
926.245	13681
926.352	13586
926.459	13693
926.566	13772
926.673	13639
926.779	13415
926.886	13483
926.993	13346
927.099	13350
927.206	13266
927.312	13289
927.419	13346
927.525	13285
927.631	13282
927.737	13152
927.843	13076
927.95	13095
928.056	13088
928.162	13217
928.267	13137
928.373	13757
928.479	13114
928.585	12932
928.69	13038
928.796	13023
928.901	12951
929.007	12753
929.112	12905
929.218	12840
929.323	12783
929.428	12837
929.533	12829
929.638	12707
929.743	12760
929.848	12749
929.953	12753
930.058	12669
930.163	12467
930.267	12506
930.372	12574
930.477	12429
930.581	12726
930.685	12536
930.79	12304
930.894	12376
930.998	12251
931.103	12467
931.207	12003
931.311	12079
931.415	11935
931.519	11657
931.623	11680
