Data from test_V78500241_70.txt Node
Date: Fri Mar 25 15:42:17 CST 2022
User: usil
Spectrometer: V785-0024
Trigger mode: 0
Integration Time (sec): 4.000000E-1
Scans to average: 1
Nonlinearity correction enabled: false
Boxcar width: 0
Storing dark spectrum: false
XAxis mode: Wavelengths
Number of Pixels in Spectrum: 1024
>>>>>Begin Spectral Data<<<<<
801.071	29950
801.214	29855
801.356	29760
801.499	29539
801.641	29467
801.783	29349
801.926	29528
802.068	29448
802.211	29216
802.353	29387
802.496	29273
802.638	29170
802.78	29185
802.923	29048
803.065	29083
803.208	29079
803.35	29079
803.492	29170
803.635	29254
803.777	29197
803.919	29372
804.061	29589
804.204	29425
804.346	29113
804.488	29048
804.63	29155
804.773	29083
804.915	29193
805.057	29220
805.199	29166
805.341	29383
805.483	29455
805.626	29330
805.768	29258
805.91	29254
806.052	29334
806.194	29239
806.336	29372
806.478	29337
806.62	29235
806.762	29509
806.904	29543
807.046	29699
807.188	29741
807.33	29653
807.472	29802
807.614	29551
807.756	29592
807.898	29391
808.04	29433
808.182	29463
808.324	29486
808.465	29448
808.607	29653
808.749	29665
808.891	29969
809.033	30053
809.174	29824
809.316	29760
809.458	29809
809.6	29737
809.741	29878
809.883	30003
810.025	30125
810.166	30136
810.308	30072
810.45	29977
810.591	30038
810.733	29764
810.875	29684
811.016	29790
811.158	29722
811.299	29832
811.441	29912
811.582	29973
811.724	29775
811.865	29760
812.007	29836
812.148	29824
812.29	29760
812.431	29866
812.573	30098
812.714	30155
812.855	30262
812.997	30414
813.138	30407
813.279	30296
813.421	30182
813.562	30159
813.703	30190
813.845	29923
813.986	29718
814.127	29512
814.268	29265
814.41	29372
814.551	29364
814.692	29421
814.833	29303
814.974	29360
815.115	29368
815.256	29216
815.397	29136
815.539	29162
815.68	29052
815.821	29052
815.962	29033
816.103	29075
816.244	28919
816.385	28797
816.526	28752
816.666	28630
816.807	28421
816.948	28565
817.089	28626
817.23	28592
817.371	28615
817.512	28455
817.653	28462
817.793	28401
817.934	28398
818.075	28504
818.216	28519
818.356	28341
818.497	28276
818.638	28204
818.778	28352
818.919	28219
819.06	28181
819.2	28284
819.341	28432
819.481	28344
819.622	28607
819.762	28618
819.903	28580
820.043	28390
820.184	28569
820.324	28398
820.465	28706
820.605	28314
820.746	28478
820.886	28462
821.026	28428
821.167	28348
821.307	28516
821.447	28276
821.588	28268
821.728	28158
821.868	27698
822.008	27846
822.149	27751
822.289	27785
822.429	27507
822.569	27412
822.709	27420
822.849	27367
822.99	27252
823.13	27268
823.27	27180
823.41	27024
823.55	26929
823.69	27043
823.83	26975
823.97	27024
824.11	26830
824.25	26819
824.389	26796
824.529	26914
824.669	26823
824.809	26864
824.949	26823
825.089	26940
825.228	26895
825.368	26617
825.508	26606
825.648	26575
825.787	26625
825.927	26590
826.067	26659
826.206	26632
826.346	26609
826.485	26792
826.625	26549
826.765	26842
826.904	26640
827.044	26396
827.183	26453
827.323	26176
827.462	26317
827.601	26248
827.741	26153
827.88	26218
828.02	26130
828.159	26233
828.298	26237
828.437	26309
828.577	26244
828.716	26351
828.855	26275
828.994	25970
829.134	26046
829.273	26031
829.412	26016
829.551	25856
829.69	26050
829.829	25944
829.968	25902
830.107	26024
830.246	25955
830.385	25871
830.524	25757
830.663	25624
830.802	25544
830.941	25609
831.08	25533
831.219	25468
831.357	25575
831.496	25689
831.635	25483
831.774	25479
831.913	25358
832.051	25076
832.19	25282
832.329	25183
832.467	25251
832.606	25065
832.744	25107
832.883	25084
833.022	24932
833.16	25042
833.299	25091
833.437	25038
833.576	25023
833.714	25160
833.852	25091
833.991	25198
834.129	25183
834.267	25148
834.406	25053
834.544	25034
834.682	25152
834.821	24939
834.959	25137
835.097	25091
835.235	25012
835.373	25042
835.511	25019
835.65	24890
835.788	24882
835.926	24776
836.064	24688
836.202	24650
836.34	24802
836.478	24859
836.615	24821
836.753	24939
836.891	24943
837.029	24886
837.167	24791
837.305	24738
837.443	24837
837.58	24719
837.718	24791
837.856	24703
837.993	24585
838.131	24612
838.269	24498
838.406	24722
838.544	24593
838.681	24395
838.819	24270
838.956	24224
839.094	24155
839.231	24281
839.369	24353
839.506	24467
839.643	24365
839.781	24015
839.918	24041
840.055	24018
840.193	24079
840.33	23946
840.467	24022
840.604	24022
840.742	24186
840.879	23874
841.016	23901
841.153	24003
841.29	24007
841.427	23920
841.564	23996
841.701	23992
841.838	23840
841.975	23771
842.112	23790
842.249	23722
842.385	23805
842.522	23843
842.659	23760
842.796	23570
842.933	23707
843.069	23486
843.206	23611
843.343	23672
843.479	23558
843.616	23493
843.752	23326
843.889	23471
844.025	23524
844.162	23387
844.298	23474
844.435	23326
844.571	23417
844.708	23322
844.844	23448
844.98	23486
845.117	23539
845.253	23356
845.389	23220
845.525	23265
845.661	23227
845.798	22984
845.934	23090
846.07	23064
846.206	23052
846.342	23254
846.478	22938
846.614	22908
846.75	22850
846.886	22892
847.022	22889
847.158	22733
847.294	22698
847.429	22805
847.565	22649
847.701	22999
847.837	22523
847.972	22447
848.108	22554
848.244	22535
848.379	22348
848.515	22333
848.65	22348
848.786	22318
848.921	22352
849.057	22451
849.192	22303
849.328	22447
849.463	22291
849.598	22310
849.734	22158
849.869	22086
850.004	21975
850.14	22032
850.275	22017
850.41	21907
850.545	21915
850.68	22055
850.815	22082
850.95	22021
851.085	22211
851.22	22234
851.355	21922
851.49	21934
851.625	22013
851.76	22017
851.895	21945
852.03	21941
852.165	21873
852.299	22124
852.434	22105
852.569	21972
852.703	22055
852.838	22070
852.973	22017
853.107	21991
853.242	21930
853.376	21804
853.511	21663
853.645	21793
853.78	21964
853.914	21778
854.048	21770
854.183	21804
854.317	21747
854.451	22067
854.585	21831
854.72	21831
854.854	21937
854.988	21694
855.122	21838
855.256	21717
855.39	21656
855.524	21819
855.658	21846
855.792	21781
855.926	21884
856.06	21812
856.194	22017
856.327	21785
856.461	21781
856.595	21656
856.729	21854
856.862	21915
856.996	21892
857.13	21812
857.263	21888
857.397	21945
857.53	21804
857.664	21717
857.797	21717
857.931	21793
858.064	21827
858.197	21842
858.331	21694
858.464	21701
858.597	21606
858.731	21747
858.864	21648
858.997	21660
859.13	21732
859.263	21759
859.396	21686
859.529	21622
859.662	21686
859.795	21682
859.928	21675
860.061	21793
860.194	21991
860.327	21728
860.46	21679
860.592	21804
860.725	21778
860.858	21884
860.99	21698
861.123	21682
861.256	21526
861.388	21587
861.521	22390
861.653	21587
861.786	21488
861.918	21625
862.05	21614
862.183	21671
862.315	21854
862.447	21728
862.58	21724
862.712	21538
862.844	21405
862.976	21462
863.108	21496
863.24	21751
863.372	21355
863.504	21359
863.636	21359
863.768	21405
863.9	21443
864.032	21302
864.164	21336
864.296	21363
864.428	21435
864.559	21431
864.691	21439
864.823	21412
864.954	21386
865.086	21401
865.217	21306
865.349	21150
865.48	21332
865.612	21237
865.743	21351
865.875	21218
866.006	21222
866.137	21249
866.269	21226
866.4	21192
866.531	21142
866.662	21310
866.793	21150
866.924	21260
867.055	21405
867.186	21272
867.317	21180
867.448	21199
867.579	21214
867.71	21127
867.841	21138
867.972	21272
868.103	21157
868.233	21188
868.364	21161
868.495	21291
868.625	21435
868.756	21557
868.886	21264
869.017	21355
869.147	21488
869.278	21564
869.408	21408
869.539	21496
869.669	21549
869.799	21530
869.929	21473
870.06	21370
870.19	21724
870.32	21637
870.45	21755
870.58	21751
870.71	21759
870.84	21899
870.97	21720
871.1	21770
871.23	21964
871.36	21865
871.489	21907
871.619	21964
871.749	21956
871.879	22120
872.008	22211
872.138	22059
872.267	22051
872.397	21937
872.526	21804
872.656	21774
872.785	21949
872.915	22063
873.044	22166
873.173	21956
873.303	22139
873.432	22010
873.561	22093
873.69	22116
873.819	21956
873.948	22124
874.077	22010
874.206	22044
874.335	21968
874.464	22078
874.593	22379
874.722	22234
874.851	22337
874.979	22230
875.108	22344
875.237	22276
875.365	22299
875.494	22272
875.623	22348
875.751	22318
875.88	22344
876.008	22337
876.136	22470
876.265	22725
876.393	22790
876.521	22759
876.65	22710
876.778	22641
876.906	22527
877.034	22542
877.162	22649
877.29	22607
877.418	22516
877.546	22607
877.674	22641
877.802	22698
877.93	22653
878.058	22542
878.185	22557
878.313	22584
878.441	22542
878.568	22500
878.696	22523
878.824	22641
878.951	22588
879.079	22774
879.206	22831
879.333	22763
879.461	22694
879.588	22683
879.715	22763
879.842	22763
879.97	22596
880.097	22306
880.224	22390
880.351	22417
880.478	22341
880.605	22424
880.732	22481
880.859	22725
880.986	22386
881.112	22565
881.239	22417
881.366	22196
881.493	22097
881.619	21991
881.746	22010
881.872	21994
881.999	22067
882.125	21945
882.252	22063
882.378	22086
882.505	22143
882.631	21930
882.757	21743
882.883	21797
883.01	21690
883.136	21641
883.262	21625
883.388	21469
883.514	21804
883.64	21747
883.766	21732
883.892	21500
884.018	21504
884.143	21701
884.269	21591
884.395	21447
884.52	21306
884.646	21408
884.772	21294
884.897	21237
885.023	21367
885.148	21507
885.274	21580
885.399	21412
885.524	21268
885.65	21351
885.775	21211
885.9	21332
886.025	21389
886.15	21397
886.275	21310
886.4	21260
886.525	21321
886.65	21294
886.775	21283
886.9	21367
887.025	21496
887.149	21313
887.274	21154
887.399	21116
887.523	21032
887.648	21055
887.773	20967
887.897	21135
888.021	21100
888.146	20952
888.27	21135
888.395	21165
888.519	21116
888.643	21047
888.767	21146
888.891	21070
889.015	20948
889.139	20902
889.263	20948
889.387	20975
889.511	21142
889.635	21028
889.759	20845
889.883	20845
890.006	20887
890.13	20853
890.254	20754
890.377	20746
890.501	20629
890.624	20594
890.748	20674
890.871	20450
890.995	20415
891.118	20396
891.241	20328
891.364	20431
891.488	20556
891.611	20408
891.734	20374
891.857	20537
891.98	20362
892.103	20415
892.226	20412
892.349	20362
892.471	20271
892.594	20298
892.717	20385
892.839	20396
892.962	20465
893.085	20427
893.207	20488
893.33	20237
893.452	20393
893.575	20267
893.697	20431
893.819	20461
893.941	20590
894.064	20488
894.186	20214
894.308	20183
894.43	20301
894.552	20457
894.674	20412
894.796	20240
894.918	20324
895.04	20229
895.161	20347
895.283	20355
895.405	20233
895.526	20320
895.648	20237
895.769	20358
895.891	20419
896.012	20389
896.134	20393
896.255	20343
896.376	20366
896.498	20374
896.619	20480
896.74	20438
896.861	20404
896.982	20674
897.103	20864
897.224	20682
897.345	20655
897.466	20533
897.587	20667
897.708	20621
897.828	20579
897.949	20488
898.07	20412
898.19	20442
898.311	20518
898.431	20450
898.552	20533
898.672	20575
898.792	20682
898.913	20503
899.033	20351
899.153	20305
899.273	20126
899.393	20301
899.513	20351
899.633	20202
899.753	20153
899.873	20122
899.993	20199
900.113	20161
900.232	20263
900.352	20187
900.472	20115
900.591	19967
900.711	20073
900.83	20024
900.95	20172
901.069	20122
901.189	19883
901.308	19677
901.427	19594
901.546	19616
901.665	19632
901.784	19601
901.904	19480
902.023	19422
902.141	19164
902.26	19099
902.379	19266
902.498	19118
902.617	19042
902.735	19091
902.854	18996
902.973	19053
903.091	18730
903.21	18776
903.328	18665
903.446	18760
903.565	18574
903.683	18612
903.801	18369
903.919	18665
904.038	18544
904.156	18403
904.274	18452
904.392	18304
904.51	18247
904.627	18235
904.745	18319
904.863	18300
904.981	18060
905.098	17961
905.216	17946
905.334	18060
905.451	17999
905.569	17824
905.686	18030
905.803	17954
905.921	17760
906.038	17893
906.155	17733
906.272	17668
906.389	17528
906.506	17436
906.623	17493
906.74	17452
906.857	17410
906.974	17326
907.091	17570
907.208	17630
907.324	17505
907.441	17334
907.557	17162
907.674	17212
907.79	17105
907.907	17166
908.023	17204
908.139	17200
908.256	16991
908.372	16968
908.488	16984
908.604	16927
908.72	16877
908.836	16801
908.952	16866
909.068	16793
909.184	16881
909.3	16816
909.415	16923
909.531	16828
909.647	16630
909.762	16573
909.878	16443
909.993	16535
910.108	16508
910.224	16622
910.339	16474
910.454	16367
910.57	16322
910.685	16272
910.8	16573
910.915	16474
911.03	16325
911.145	16200
911.259	16074
911.374	16139
911.489	15956
911.604	15956
911.718	15781
911.833	15823
911.947	15869
912.062	15747
912.176	15968
912.291	16032
912.405	15937
912.519	16051
912.633	16044
912.748	15770
912.862	15793
912.976	15625
913.09	15507
913.204	15606
913.318	15648
913.431	15739
913.545	15743
913.659	15709
913.772	15625
913.886	15557
914	15443
914.113	15698
914.226	15553
914.34	15511
914.453	15374
914.566	15485
914.68	15443
914.793	15405
914.906	15138
915.019	15173
915.132	15062
915.245	15127
915.358	15188
915.47	15108
915.583	14975
915.696	15058
915.809	15089
915.921	15214
916.034	15062
916.146	14918
916.259	14941
916.371	15066
916.483	14952
916.595	14834
916.708	14845
916.82	14967
916.932	14937
917.044	14834
917.156	14743
917.268	14758
917.38	14701
917.491	14644
917.603	14708
917.715	14682
917.826	14811
917.938	14682
918.049	14602
918.161	14651
918.272	14781
918.384	14781
918.495	14701
918.606	14514
918.717	14457
918.828	14427
918.939	14514
919.05	14389
919.161	14317
919.272	14214
919.383	14176
919.494	14465
919.604	14556
919.715	14434
919.826	14282
919.936	14332
920.047	14522
920.157	14396
920.267	14590
920.378	14233
920.488	14434
920.598	14522
920.708	14708
920.818	14492
920.928	14526
921.038	14583
921.148	14564
921.258	14358
921.368	14252
921.477	14157
921.587	14058
921.697	13906
921.806	14054
921.916	14031
922.025	13750
922.134	13708
922.244	13719
922.353	13753
922.462	13693
922.571	13548
922.68	13422
922.789	13377
922.898	13339
923.007	13343
923.116	13392
923.224	13411
923.333	13346
923.442	13228
923.55	13103
923.659	13255
923.767	13202
923.876	13122
923.984	13122
924.092	13099
924.201	13088
924.309	13080
924.417	13103
924.525	13168
924.633	13065
924.741	13894
924.849	12863
924.956	13008
925.064	12859
925.172	12764
925.279	12779
925.387	12829
925.494	12738
925.602	12920
925.709	12875
925.816	12707
925.924	12738
926.031	12833
926.138	12741
926.245	12776
926.352	12635
926.459	12783
926.566	12829
926.673	12631
926.779	12566
926.886	12631
926.993	12429
927.099	12395
927.206	12380
927.312	12281
927.419	12471
927.525	12369
927.631	12418
927.737	12247
927.843	12216
927.95	12110
928.056	12152
928.162	12194
928.267	12251
928.373	12913
928.479	12308
928.585	12030
928.69	12194
928.796	12186
928.901	12095
929.007	11920
929.112	12098
929.218	11992
929.323	11965
929.428	11893
929.533	12079
929.638	11832
929.743	11874
929.848	11843
929.953	11889
930.058	11866
930.163	11665
930.267	11596
930.372	11688
930.477	11558
930.581	11691
930.685	11668
930.79	11482
930.894	11539
930.998	11448
931.103	11581
931.207	11269
931.311	11231
931.415	11121
931.519	10809
931.623	10885
