Data from test_V78500241_1901.txt Node
Date: Fri Mar 25 15:54:58 CST 2022
User: usil
Spectrometer: V785-0024
Trigger mode: 0
Integration Time (sec): 4.000000E-1
Scans to average: 1
Nonlinearity correction enabled: false
Boxcar width: 0
Storing dark spectrum: false
XAxis mode: Wavelengths
Number of Pixels in Spectrum: 1024
>>>>>Begin Spectral Data<<<<<
801.071	28139
801.214	28211
801.356	27975
801.499	27937
801.641	27739
801.783	27778
801.926	27781
802.068	27793
802.211	27606
802.353	27644
802.496	27481
802.638	27462
802.78	27389
802.923	27363
803.065	27291
803.208	27485
803.35	27473
803.492	27641
803.635	27572
803.777	27591
803.919	27576
804.061	27956
804.204	27701
804.346	27538
804.488	27545
804.63	27724
804.773	27561
804.915	27755
805.057	27717
805.199	27564
805.341	27789
805.483	27865
805.626	27861
805.768	27778
805.91	27728
806.052	27846
806.194	27606
806.336	27960
806.478	27880
806.62	27835
806.762	28078
806.904	27911
807.046	28401
807.188	28238
807.33	28295
807.472	28257
807.614	28147
807.756	28147
807.898	28101
808.04	28131
808.182	28036
808.324	28124
808.465	28306
808.607	28268
808.749	28531
808.891	28508
809.033	28592
809.174	28508
809.316	28421
809.458	28527
809.6	28436
809.741	28573
809.883	28653
810.025	28729
810.166	28615
810.308	28664
810.45	28580
810.591	28687
810.733	28538
810.875	28386
811.016	28371
811.158	28265
811.299	28455
811.441	28557
811.582	28508
811.724	28371
811.865	28348
812.007	28478
812.148	28413
812.29	28432
812.431	28596
812.573	28809
812.714	28843
812.855	28904
812.997	29147
813.138	29075
813.279	29128
813.421	29006
813.562	28919
813.703	28596
813.845	28725
813.986	28322
814.127	28272
814.268	28116
814.41	28169
814.551	28093
814.692	28238
814.833	28055
814.974	28188
815.115	28196
815.256	28116
815.397	27994
815.539	28067
815.68	27816
815.821	27804
815.962	27991
816.103	27907
816.244	27895
816.385	27789
816.526	27770
816.666	27557
816.807	27408
816.948	27553
817.089	27580
817.23	27283
817.371	27488
817.512	27496
817.653	27325
817.793	27481
817.934	27485
818.075	27378
818.216	27382
818.356	27336
818.497	27275
818.638	27135
818.778	27169
818.919	27214
819.06	27427
819.2	27462
819.341	27306
819.481	27184
819.622	27485
819.762	27713
819.903	27736
820.043	27587
820.184	27466
820.324	27564
820.465	27614
820.605	27450
820.746	27370
820.886	27538
821.026	27431
821.167	27568
821.307	27778
821.447	27412
821.588	27397
821.728	27188
821.868	27142
822.008	26979
822.149	27001
822.289	26804
822.429	26705
822.569	26613
822.709	26621
822.849	26336
822.99	26434
823.13	26419
823.27	26393
823.41	26229
823.55	26214
823.69	26187
823.83	26282
823.97	26267
824.11	26126
824.25	26020
824.389	25978
824.529	26122
824.669	26077
824.809	26168
824.949	26031
825.089	26130
825.228	26180
825.368	25856
825.508	26008
825.648	25871
825.787	25951
825.927	26088
826.067	25879
826.206	25986
826.346	25997
826.485	26157
826.625	25898
826.765	26122
826.904	25871
827.044	25845
827.183	25753
827.323	25628
827.462	25753
827.601	25708
827.741	25468
827.88	25662
828.02	25369
828.159	25552
828.298	25704
828.437	25658
828.577	25620
828.716	25776
828.855	25453
828.994	25411
829.134	25236
829.273	25453
829.412	25339
829.551	25270
829.69	25316
829.829	25293
829.968	25445
830.107	25468
830.246	25308
830.385	25339
830.524	25209
830.663	25103
830.802	25023
830.941	25012
831.08	24924
831.219	25008
831.357	25118
831.496	25221
831.635	24905
831.774	24787
831.913	24764
832.051	24738
832.19	24673
832.329	24692
832.467	24681
832.606	24631
832.744	24658
832.883	24559
833.022	24448
833.16	24532
833.299	24646
833.437	24536
833.576	24669
833.714	24719
833.852	24658
833.991	24734
834.129	24730
834.267	24741
834.406	24722
834.544	24665
834.682	24707
834.821	24696
834.959	24909
835.097	24551
835.235	24734
835.373	24658
835.511	24650
835.65	24582
835.788	24479
835.926	24456
836.064	24323
836.202	24418
836.34	24540
836.478	24719
836.615	24441
836.753	24452
836.891	24642
837.029	24494
837.167	24273
837.305	24346
837.443	24346
837.58	24285
837.718	24391
837.856	24414
837.993	24281
838.131	24311
838.269	24239
838.406	24334
838.544	24110
838.681	23958
838.819	23965
838.956	23794
839.094	23847
839.231	23874
839.369	23950
839.506	24163
839.643	24095
839.781	23745
839.918	23748
840.055	23767
840.193	23817
840.33	23710
840.467	23710
840.604	23859
840.742	23984
840.879	23581
841.016	23756
841.153	23680
841.29	23958
841.427	23874
841.564	23703
841.701	23813
841.838	23630
841.975	23501
842.112	23608
842.249	23528
842.385	23467
842.522	23657
842.659	23581
842.796	23425
842.933	23402
843.069	23429
843.206	23448
843.343	23509
843.479	23528
843.616	23429
843.752	23258
843.889	23356
844.025	23318
844.162	23208
844.298	23292
844.435	23311
844.571	23174
844.708	23235
844.844	23368
844.98	23360
845.117	23242
845.253	23147
845.389	23022
845.525	23132
845.661	23025
845.798	22984
845.934	22984
846.07	22892
846.206	22896
846.342	23151
846.478	23022
846.614	22786
846.75	22801
846.886	22542
847.022	22778
847.158	22588
847.294	22748
847.429	22687
847.565	22618
847.701	22835
847.837	22333
847.972	22375
848.108	22569
848.244	22550
848.379	22314
848.515	22318
848.65	22211
848.786	22295
848.921	22280
849.057	22443
849.192	22447
849.328	22344
849.463	22257
849.598	22226
849.734	22238
849.869	22265
850.004	21945
850.14	22040
850.275	22055
850.41	22070
850.545	21895
850.68	22067
850.815	21975
850.95	22090
851.085	22276
851.22	22166
851.355	22097
851.49	22147
851.625	22070
851.76	21960
851.895	21960
852.03	22021
852.165	22044
852.299	22074
852.434	22120
852.569	22067
852.703	22090
852.838	22249
852.973	22200
853.107	22070
853.242	22093
853.376	21800
853.511	21698
853.645	21823
853.78	21994
853.914	21884
854.048	21819
854.183	21907
854.317	21831
854.451	22017
854.585	21876
854.72	21873
854.854	21953
854.988	21838
855.122	21926
855.256	21755
855.39	21884
855.524	21960
855.658	21949
855.792	21770
855.926	21873
856.06	21949
856.194	21975
856.327	21728
856.461	21895
856.595	21823
856.729	21865
856.862	21991
856.996	21926
857.13	21827
857.263	22036
857.397	21934
857.53	21892
857.664	22002
857.797	21876
857.931	21998
858.064	22032
858.197	21968
858.331	21808
858.464	21812
858.597	21679
858.731	21926
858.864	21880
858.997	21865
859.13	22029
859.263	21918
859.396	21953
859.529	21861
859.662	21736
859.795	21732
859.928	21770
860.061	22124
860.194	21987
860.327	22040
860.46	21926
860.592	22112
860.725	22032
860.858	21956
860.99	21838
861.123	21781
861.256	21808
861.388	21861
861.521	22736
861.653	21705
861.786	21717
861.918	21720
862.05	21728
862.183	21857
862.315	21865
862.447	21884
862.58	21865
862.712	21572
862.844	21477
862.976	21583
863.108	21587
863.24	21956
863.372	21561
863.504	21679
863.636	21538
863.768	21660
863.9	21625
864.032	21553
864.164	21549
864.296	21580
864.428	21675
864.559	21610
864.691	21564
864.823	21660
864.954	21652
865.086	21492
865.217	21416
865.349	21386
865.48	21523
865.612	21485
865.743	21599
865.875	21355
866.006	21439
866.137	21458
866.269	21534
866.4	21454
866.531	21401
866.662	21325
866.793	21435
866.924	21329
867.055	21431
867.186	21329
867.317	21511
867.448	21386
867.579	21336
867.71	21332
867.841	21294
867.972	21420
868.103	21408
868.233	21401
868.364	21382
868.495	21511
868.625	21629
868.756	21751
868.886	21606
869.017	21580
869.147	21705
869.278	21759
869.408	21709
869.539	21633
869.669	21755
869.799	21652
869.929	21743
870.06	21762
870.19	21979
870.32	21804
870.45	22002
870.58	22006
870.71	22147
870.84	22105
870.97	21960
871.1	22006
871.23	22223
871.36	22192
871.489	22101
871.619	22181
871.749	22280
871.879	22352
872.008	22379
872.138	22215
872.267	22325
872.397	22154
872.526	22055
872.656	22116
872.785	21949
872.915	22207
873.044	22440
873.173	22200
873.303	22238
873.432	22451
873.561	22375
873.69	22253
873.819	22230
873.948	22322
874.077	22265
874.206	22272
874.335	22322
874.464	22310
874.593	22596
874.722	22337
874.851	22584
874.979	22447
875.108	22478
875.237	22413
875.365	22417
875.494	22421
875.623	22516
875.751	22489
875.88	22550
876.008	22626
876.136	22782
876.265	22786
876.393	22923
876.521	23003
876.65	22938
876.778	22976
876.906	22862
877.034	22706
877.162	22847
877.29	22672
877.418	22889
877.546	22881
877.674	22900
877.802	22778
877.93	22809
878.058	22713
878.185	22706
878.313	22843
878.441	22908
878.568	22649
878.696	22752
878.824	22900
878.951	22889
879.079	22984
879.206	23143
879.333	22995
879.461	22927
879.588	22923
879.715	23067
879.842	23109
879.97	22900
880.097	22641
880.224	22577
880.351	22675
880.478	22641
880.605	22527
880.732	22698
880.859	22828
880.986	22626
881.112	22687
881.239	22527
881.366	22405
881.493	22215
881.619	22215
881.746	22295
881.872	22295
881.999	22147
882.125	22150
882.252	22200
882.378	22139
882.505	22344
882.631	21987
882.757	21926
882.883	22078
883.01	21876
883.136	21903
883.262	21713
883.388	21717
883.514	21926
883.64	21827
883.766	21819
883.892	21652
884.018	21614
884.143	21854
884.269	22044
884.395	21557
884.52	21469
884.646	21492
884.772	21393
884.897	21401
885.023	21469
885.148	21576
885.274	21663
885.399	21652
885.524	21515
885.65	21587
885.775	21473
885.9	21431
886.025	21755
886.15	21622
886.275	21492
886.4	21523
886.525	21561
886.65	21424
886.775	21500
886.9	21561
887.025	21679
887.149	21523
887.274	21348
887.399	21268
887.523	21245
887.648	21268
887.773	21260
887.897	21355
888.021	21386
888.146	21233
888.27	21412
888.395	21355
888.519	21336
888.643	21260
888.767	21298
888.891	21222
889.015	21020
889.139	21127
889.263	20998
889.387	21089
889.511	21287
889.635	21165
889.759	21089
889.883	21051
890.006	21051
890.13	21233
890.254	21017
890.377	21039
890.501	20872
890.624	20815
890.748	20944
890.871	20765
890.995	20636
891.118	20644
891.241	20598
891.364	20667
891.488	20807
891.611	20689
891.734	20621
891.857	20712
891.98	20598
892.103	20785
892.226	20689
892.349	20731
892.471	20552
892.594	20598
892.717	20583
892.839	20507
892.962	20636
893.085	20644
893.207	20625
893.33	20488
893.452	20518
893.575	20613
893.697	20533
893.819	20697
893.941	20769
894.064	20705
894.186	20507
894.308	20583
894.43	20598
894.552	20720
894.674	20640
894.796	20560
894.918	20514
895.04	20564
895.161	20701
895.283	20514
895.405	20484
895.526	20587
895.648	20545
895.769	20590
895.891	20727
896.012	20693
896.134	20602
896.255	20579
896.376	20644
896.498	20549
896.619	20663
896.74	20579
896.861	20613
896.982	20842
897.103	21074
897.224	20899
897.345	20785
897.466	20739
897.587	20941
897.708	20876
897.828	20925
897.949	20743
898.07	20560
898.19	20720
898.311	20944
898.431	20697
898.552	20773
898.672	20929
898.792	20838
898.913	20834
899.033	20686
899.153	20712
899.273	20492
899.393	20434
899.513	20674
899.633	20598
899.753	20606
899.873	20442
899.993	20583
900.113	20412
900.232	20571
900.352	20488
900.472	20404
900.591	20244
900.711	20336
900.83	20202
900.95	20278
901.069	20518
901.189	20221
901.308	19947
901.427	19890
901.546	19925
901.665	19959
901.784	19898
901.904	19746
902.023	19624
902.141	19407
902.26	19346
902.379	19597
902.498	19388
902.617	19293
902.735	19460
902.854	19278
902.973	19327
903.091	19110
903.21	19038
903.328	19076
903.446	18993
903.565	18886
903.683	18897
903.801	18738
903.919	18810
904.038	18779
904.156	18642
904.274	18764
904.392	18692
904.51	18650
904.627	18589
904.745	18658
904.863	18635
904.981	18357
905.098	18239
905.216	18228
905.334	18422
905.451	18441
905.569	18209
905.686	18342
905.803	18369
905.921	18068
906.038	18273
906.155	18110
906.272	17946
906.389	18026
906.506	17798
906.623	17893
906.74	17748
906.857	17684
906.974	17798
907.091	17912
907.208	17878
907.324	17809
907.441	17722
907.557	17512
907.674	17566
907.79	17463
907.907	17520
908.023	17543
908.139	17486
908.256	17535
908.372	17414
908.488	17349
908.604	17200
908.72	17204
908.836	17220
908.952	17231
909.068	17303
909.184	17341
909.3	17296
909.415	17265
909.531	17223
909.647	16995
909.762	16942
909.878	16927
909.993	16854
910.108	16900
910.224	17010
910.339	16934
910.454	16889
910.57	16679
910.685	16649
910.8	16984
910.915	16869
911.03	16653
911.145	16615
911.259	16584
911.374	16599
911.489	16432
911.604	16459
911.718	16284
911.833	16272
911.947	16204
912.062	16166
912.176	16272
912.291	16242
912.405	16325
912.519	16493
912.633	16390
912.748	16382
912.862	16276
912.976	16086
913.09	16025
913.204	16105
913.318	16124
913.431	16196
913.545	16086
913.659	16268
913.772	16101
913.886	15888
914	15774
914.113	15911
914.226	16143
914.34	16048
914.453	15732
914.566	15846
914.68	15842
914.793	15705
914.906	15542
915.019	15447
915.132	15420
915.245	15469
915.358	15561
915.47	15564
915.583	15542
915.696	15549
915.809	15538
915.921	15606
916.034	15389
916.146	15443
916.259	15405
916.371	15591
916.483	15351
916.595	15298
916.708	15363
916.82	15355
916.932	15230
917.044	15298
917.156	15222
917.268	15165
917.38	15127
917.491	15138
917.603	15108
917.715	15097
917.826	15279
917.938	15062
918.049	14910
918.161	15180
918.272	15268
918.384	15207
918.495	15043
918.606	15009
918.717	14842
918.828	14845
918.939	14948
919.05	14746
919.161	14891
919.272	14670
919.383	14785
919.494	14910
919.604	15135
919.715	14868
919.826	14727
919.936	14842
920.047	14975
920.157	14933
920.267	14998
920.378	14815
920.488	14872
920.598	14990
920.708	15116
920.818	14982
920.928	14960
921.038	15169
921.148	15013
921.258	14781
921.368	14693
921.477	14644
921.587	14579
921.697	14419
921.806	14606
921.916	14370
922.025	14320
922.134	14202
922.244	14088
922.353	14183
922.462	14164
922.571	13978
922.68	13879
922.789	13940
922.898	13871
923.007	13875
923.116	13852
923.224	13833
923.333	13864
923.442	13689
923.55	13674
923.659	13712
923.767	13689
923.876	13533
923.984	13723
924.092	13586
924.201	13601
924.309	13521
924.417	13636
924.525	13464
924.633	13491
924.741	14317
924.849	13362
924.956	13346
925.064	13232
925.172	13232
925.279	13259
925.387	13297
925.494	13183
925.602	13346
925.709	13255
925.816	13149
925.924	13228
926.031	13282
926.138	13175
926.245	13194
926.352	13069
926.459	13221
926.566	13293
926.673	13034
926.779	13000
926.886	13008
926.993	12791
927.099	12757
927.206	12749
927.312	12681
927.419	12760
927.525	12825
927.631	12776
927.737	12623
927.843	12662
927.95	12483
928.056	12646
928.162	12677
928.267	12528
928.373	13190
928.479	12719
928.585	12448
928.69	12433
928.796	12585
928.901	12407
929.007	12357
929.112	12464
929.218	12376
929.323	12361
929.428	12399
929.533	12460
929.638	12171
929.743	12281
929.848	12270
929.953	12273
930.058	12129
930.163	11946
930.267	12045
930.372	12114
930.477	11920
930.581	12197
930.685	11988
930.79	11916
930.894	11958
930.998	11874
931.103	12026
931.207	11684
931.311	11619
931.415	11551
931.519	11318
931.623	11197
