Data from test_V78500241_2238.txt Node
Date: Fri Mar 25 15:57:18 CST 2022
User: usil
Spectrometer: V785-0024
Trigger mode: 0
Integration Time (sec): 4.000000E-1
Scans to average: 1
Nonlinearity correction enabled: false
Boxcar width: 0
Storing dark spectrum: false
XAxis mode: Wavelengths
Number of Pixels in Spectrum: 1024
>>>>>Begin Spectral Data<<<<<
801.071	28904
801.214	28820
801.356	28577
801.499	28675
801.641	28569
801.783	28569
801.926	28577
802.068	28550
802.211	28432
802.353	28504
802.496	28379
802.638	28173
802.78	28284
802.923	28246
803.065	28128
803.208	28226
803.35	28230
803.492	28276
803.635	28436
803.777	28394
803.919	28550
804.061	28679
804.204	28478
804.346	28360
804.488	28440
804.63	28447
804.773	28371
804.915	28694
805.057	28656
805.199	28523
805.341	28516
805.483	28546
805.626	28790
805.768	28615
805.91	28596
806.052	28710
806.194	28500
806.336	28782
806.478	28660
806.62	28626
806.762	28691
806.904	28927
807.046	29086
807.188	29029
807.33	29048
807.472	29208
807.614	28991
807.756	29140
807.898	28854
808.04	28908
808.182	28847
808.324	28862
808.465	28995
808.607	29128
808.749	29345
808.891	29379
809.033	29501
809.174	29478
809.316	29349
809.458	29197
809.6	29269
809.741	29383
809.883	29417
810.025	29710
810.166	29531
810.308	29653
810.45	29615
810.591	29528
810.733	29311
810.875	29280
811.016	29204
811.158	29155
811.299	29433
811.441	29444
811.582	29478
811.724	29368
811.865	29395
812.007	29231
812.148	29353
812.29	29459
812.431	29535
812.573	29680
812.714	29714
812.855	29847
812.997	29950
813.138	30087
813.279	29950
813.421	29889
813.562	29821
813.703	29653
813.845	29699
813.986	29414
814.127	29178
814.268	29090
814.41	29067
814.551	28934
814.692	29189
814.833	28984
814.974	28968
815.115	29014
815.256	28930
815.397	29159
815.539	28949
815.68	28847
815.821	28824
815.962	28873
816.103	28900
816.244	28615
816.385	28542
816.526	28691
816.666	28466
816.807	28291
816.948	28398
817.089	28455
817.23	28451
817.371	28325
817.512	28306
817.653	28238
817.793	28379
817.934	28337
818.075	28394
818.216	28287
818.356	28291
818.497	28310
818.638	28120
818.778	28200
818.919	28139
819.06	28314
819.2	28276
819.341	28398
819.481	28352
819.622	28451
819.762	28748
819.903	28675
820.043	28554
820.184	28455
820.324	28485
820.465	28478
820.605	28599
820.746	28394
820.886	28249
821.026	28542
821.167	28421
821.307	28462
821.447	28375
821.588	28253
821.728	28200
821.868	27968
822.008	27854
822.149	27819
822.289	27854
822.429	27561
822.569	27545
822.709	27561
822.849	27427
822.99	27431
823.13	27344
823.27	27340
823.41	27260
823.55	27070
823.69	27169
823.83	27233
823.97	27138
824.11	26876
824.25	27001
824.389	26971
824.529	27047
824.669	26982
824.809	27203
824.949	27039
825.089	27112
825.228	27047
825.368	26785
825.508	26887
825.648	26864
825.787	26758
825.927	26910
826.067	26819
826.206	26826
826.346	26842
826.485	26971
826.625	26902
826.765	27108
826.904	26982
827.044	26697
827.183	26667
827.323	26651
827.462	26644
827.601	26575
827.741	26571
827.88	26609
828.02	26530
828.159	26545
828.298	26648
828.437	26674
828.577	26530
828.716	26629
828.855	26583
828.994	26324
829.134	26358
829.273	26290
829.412	26309
829.551	26168
829.69	26244
829.829	26202
829.968	26343
830.107	26271
830.246	26240
830.385	26237
830.524	26176
830.663	26115
830.802	25940
830.941	26054
831.08	25852
831.219	25913
831.357	26008
831.496	26035
831.635	25944
831.774	25826
831.913	25811
832.051	25700
832.19	25575
832.329	25677
832.467	25597
832.606	25548
832.744	25544
832.883	25365
833.022	25510
833.16	25666
833.299	25651
833.437	25632
833.576	25571
833.714	25693
833.852	25696
833.991	25597
834.129	25727
834.267	25715
834.406	25537
834.544	25772
834.682	25635
834.821	25647
834.959	25765
835.097	25582
835.235	25613
835.373	25567
835.511	25533
835.65	25529
835.788	25483
835.926	25346
836.064	25225
836.202	25270
836.34	25422
836.478	25457
836.615	25502
836.753	25426
836.891	25548
837.029	25445
837.167	25449
837.305	25400
837.443	25282
837.58	25263
837.718	25415
837.856	25316
837.993	25141
838.131	25266
838.269	25107
838.406	25145
838.544	25198
838.681	24973
838.819	24909
838.956	24913
839.094	24749
839.231	24741
839.369	24985
839.506	25061
839.643	24985
839.781	24703
839.918	24677
840.055	24829
840.193	24696
840.33	24551
840.467	24753
840.604	24646
840.742	24821
840.879	24422
841.016	24601
841.153	24658
841.29	24711
841.427	24597
841.564	24547
841.701	24555
841.838	24547
841.975	24623
842.112	24665
842.249	24441
842.385	24361
842.522	24623
842.659	24456
842.796	24437
842.933	24361
843.069	24270
843.206	24292
843.343	24403
843.479	24346
843.616	24536
843.752	24072
843.889	24178
844.025	24289
844.162	24220
844.298	24251
844.435	24205
844.571	24171
844.708	24201
844.844	24357
844.98	24213
845.117	24285
845.253	24114
845.389	24076
845.525	24041
845.661	24003
845.798	23802
845.934	23897
846.07	23874
846.206	23817
846.342	23946
846.478	23828
846.614	23627
846.75	23581
846.886	23687
847.022	23729
847.158	23615
847.294	23539
847.429	23661
847.565	23471
847.701	23866
847.837	23246
847.972	23185
848.108	23296
848.244	23433
848.379	23277
848.515	23178
848.65	23231
848.786	23223
848.921	23193
849.057	23299
849.192	23307
849.328	23033
849.463	23200
849.598	23075
849.734	23140
849.869	23056
850.004	22869
850.14	22885
850.275	23155
850.41	22885
850.545	22938
850.68	22831
850.815	23003
850.95	23006
851.085	23090
851.22	23151
851.355	23033
851.49	22972
851.625	22820
851.76	22938
851.895	22759
852.03	22881
852.165	22915
852.299	23048
852.434	23041
852.569	22972
852.703	22862
852.838	22953
852.973	23121
853.107	23105
853.242	22991
853.376	22805
853.511	22599
853.645	22626
853.78	22877
853.914	22790
854.048	22702
854.183	22771
854.317	22767
854.451	22885
854.585	22774
854.72	22786
854.854	22915
854.988	22713
855.122	22759
855.256	22641
855.39	22748
855.524	22923
855.658	22820
855.792	22786
855.926	22755
856.06	22805
856.194	22919
856.327	22729
856.461	22683
856.595	22675
856.729	22702
856.862	22873
856.996	22824
857.13	22904
857.263	22892
857.397	22854
857.53	22607
857.664	22820
857.797	22835
857.931	22896
858.064	22862
858.197	22858
858.331	22736
858.464	22824
858.597	22679
858.731	22759
858.864	22755
858.997	22706
859.13	22805
859.263	22694
859.396	22755
859.529	22672
859.662	22691
859.795	22790
859.928	22790
860.061	22790
860.194	22934
860.327	22911
860.46	22866
860.592	22858
860.725	22847
860.858	22923
860.99	22778
861.123	22733
861.256	22546
861.388	22816
861.521	23455
861.653	22687
861.786	22557
861.918	22645
862.05	22573
862.183	22687
862.315	22649
862.447	22736
862.58	22713
862.712	22497
862.844	22474
862.976	22618
863.108	22379
863.24	22965
863.372	22405
863.504	22535
863.636	22436
863.768	22561
863.9	22318
864.032	22398
864.164	22398
864.296	22523
864.428	22668
864.559	22489
864.691	22428
864.823	22618
864.954	22371
865.086	22413
865.217	22325
865.349	22207
865.48	22318
865.612	22436
865.743	22409
865.875	22314
866.006	22253
866.137	22333
866.269	22341
866.4	22265
866.531	22207
866.662	22238
866.793	22284
866.924	22287
867.055	22329
867.186	22325
867.317	22173
867.448	22169
867.579	22287
867.71	22090
867.841	22090
867.972	22131
868.103	22234
868.233	22234
868.364	22242
868.495	22303
868.625	22565
868.756	22653
868.886	22550
869.017	22504
869.147	22550
869.278	22577
869.408	22489
869.539	22459
869.669	22649
869.799	22565
869.929	22607
870.06	22596
870.19	22869
870.32	22744
870.45	22908
870.58	22843
870.71	23029
870.84	23018
870.97	22900
871.1	22725
871.23	23136
871.36	22968
871.489	22923
871.619	23029
871.749	23060
871.879	23041
872.008	23159
872.138	23052
872.267	23185
872.397	23033
872.526	22892
872.656	22862
872.785	22957
872.915	23090
873.044	23178
873.173	23022
873.303	23048
873.432	23155
873.561	23258
873.69	23166
873.819	23083
873.948	23181
874.077	23014
874.206	22987
874.335	23121
874.464	23254
874.593	23383
874.722	23200
874.851	23406
874.979	23345
875.108	23330
875.237	23296
875.365	23159
875.494	23368
875.623	23368
875.751	23231
875.88	23178
876.008	23440
876.136	23531
876.265	23608
876.393	23687
876.521	23821
876.65	23745
876.778	23642
876.906	23634
877.034	23604
877.162	23543
877.29	23634
877.418	23661
877.546	23726
877.674	23733
877.802	23760
877.93	23642
878.058	23535
878.185	23516
878.313	23589
878.441	23551
878.568	23512
878.696	23676
878.824	23752
878.951	23577
879.079	23718
879.206	23836
879.333	23802
879.461	23608
879.588	23760
879.715	23813
879.842	23859
879.97	23779
880.097	23463
880.224	23524
880.351	23455
880.478	23486
880.605	23311
880.732	23505
880.859	23547
880.986	23474
881.112	23509
881.239	23239
881.366	23140
881.493	23147
881.619	23006
881.746	23105
881.872	23117
881.999	23029
882.125	22908
882.252	23113
882.378	22949
882.505	23014
882.631	22805
882.757	22911
882.883	22793
883.01	22915
883.136	22634
883.262	22577
883.388	22637
883.514	22607
883.64	22717
883.766	22561
883.892	22379
884.018	22493
884.143	22535
884.269	22653
884.395	22329
884.52	22314
884.646	22386
884.772	22310
884.897	22204
885.023	22272
885.148	22470
885.274	22459
885.399	22329
885.524	22253
885.65	22500
885.775	22440
885.9	22223
886.025	22478
886.15	22478
886.275	22162
886.4	22371
886.525	22352
886.65	22230
886.775	22272
886.9	22409
887.025	22417
887.149	22188
887.274	22181
887.399	22063
887.523	22002
887.648	22048
887.773	21934
887.897	22109
888.021	22131
888.146	21964
888.27	22055
888.395	22257
888.519	22051
888.643	22173
888.767	22082
888.891	22074
889.015	21835
889.139	22048
889.263	21907
889.387	21934
889.511	21983
889.635	21979
889.759	21926
889.883	21800
890.006	21975
890.13	21991
890.254	21873
890.377	21884
890.501	21606
890.624	21454
890.748	21797
890.871	21568
890.995	21428
891.118	21275
891.241	21447
891.364	21447
891.488	21595
891.611	21397
891.734	21454
891.857	21504
891.98	21454
892.103	21355
892.226	21367
892.349	21348
892.471	21161
892.594	21302
892.717	21363
892.839	21351
892.962	21310
893.085	21340
893.207	21245
893.33	21199
893.452	21283
893.575	21340
893.697	21287
893.819	21374
893.941	21523
894.064	21374
894.186	21287
894.308	21165
894.43	21332
894.552	21523
894.674	21325
894.796	21169
894.918	21329
895.04	21325
895.161	21363
895.283	21340
895.405	21226
895.526	21283
895.648	21226
895.769	21294
895.891	21310
896.012	21332
896.134	21405
896.255	21374
896.376	21157
896.498	21249
896.619	21283
896.74	21230
896.861	21294
896.982	21595
897.103	21652
897.224	21515
897.345	21500
897.466	21378
897.587	21515
897.708	21618
897.828	21431
897.949	21374
898.07	21336
898.19	21378
898.311	21447
898.431	21416
898.552	21500
898.672	21549
898.792	21637
898.913	21580
899.033	21329
899.153	21306
899.273	21096
899.393	21138
899.513	21192
899.633	21192
899.753	21252
899.873	21157
899.993	21275
900.113	21131
900.232	21169
900.352	21028
900.472	20994
900.591	20994
900.711	21028
900.83	21005
900.95	21036
901.069	21043
901.189	20937
901.308	20579
901.427	20556
901.546	20617
901.665	20617
901.784	20457
901.904	20492
902.023	20267
902.141	20252
902.26	20027
902.379	20138
902.498	20031
902.617	19913
902.735	20058
902.854	19982
902.973	19963
903.091	19750
903.21	19791
903.328	19616
903.446	19537
903.565	19438
903.683	19430
903.801	19335
903.919	19422
904.038	19453
904.156	19255
904.274	19346
904.392	19190
904.51	19072
904.627	19137
904.745	19255
904.863	19244
904.981	18909
905.098	18829
905.216	19042
905.334	19015
905.451	18977
905.569	18806
905.686	18913
905.803	18848
905.921	18722
906.038	18688
906.155	18798
906.272	18684
906.389	18642
906.506	18502
906.623	18464
906.74	18311
906.857	18273
906.974	18395
907.091	18528
907.208	18532
907.324	18464
907.441	18262
907.557	18262
907.674	18083
907.79	18110
907.907	18083
908.023	18155
908.139	18209
908.256	18022
908.372	18019
908.488	17897
908.604	17950
908.72	17870
908.836	17870
908.952	17779
909.068	17942
909.184	17863
909.3	17828
909.415	17824
909.531	17733
909.647	17520
909.762	17512
909.878	17543
909.993	17528
910.108	17482
910.224	17528
910.339	17608
910.454	17360
910.57	17318
910.685	17414
910.8	17520
910.915	17562
911.03	17315
911.145	17235
911.259	17056
911.374	17090
911.489	17018
911.604	16965
911.718	16850
911.833	16957
911.947	16729
912.062	16672
912.176	16843
912.291	16816
912.405	16831
912.519	17056
912.633	17067
912.748	16934
912.862	16805
912.976	16634
913.09	16626
913.204	16672
913.318	16721
913.431	16744
913.545	16736
913.659	16763
913.772	16596
913.886	16519
914	16402
914.113	16489
914.226	16538
914.34	16440
914.453	16360
914.566	16443
914.68	16310
914.793	16314
914.906	16128
915.019	16029
915.132	16013
915.245	16063
915.358	16071
915.47	16021
915.583	16010
915.696	16025
915.809	16154
915.921	16207
916.034	15945
916.146	15930
916.259	15835
916.371	16021
916.483	15964
916.595	15759
916.708	15781
916.82	15842
916.932	15762
917.044	15724
917.156	15690
917.268	15629
917.38	15644
917.491	15736
917.603	15652
917.715	15671
917.826	15667
917.938	15595
918.049	15477
918.161	15515
918.272	15603
918.384	15770
918.495	15530
918.606	15378
918.717	15332
918.828	15504
918.939	15435
919.05	15310
919.161	15321
919.272	15241
919.383	15317
919.494	15348
919.604	15485
919.715	15359
919.826	15272
919.936	15386
920.047	15393
920.157	15378
920.267	15488
920.378	15348
920.488	15294
920.598	15492
920.708	15652
920.818	15538
920.928	15447
921.038	15584
921.148	15530
921.258	15192
921.368	15192
921.477	15051
921.587	15039
921.697	14906
921.806	15020
921.916	14910
922.025	14754
922.134	14701
922.244	14659
922.353	14648
922.462	14571
922.571	14423
922.68	14298
922.789	14271
922.898	14267
923.007	14275
923.116	14309
923.224	14240
923.333	14244
923.442	14126
923.55	14024
923.659	14145
923.767	14218
923.876	13993
923.984	14183
924.092	13936
924.201	14035
924.309	14062
924.417	14008
924.525	13894
924.633	14012
924.741	14731
924.849	13795
924.956	13849
925.064	13719
925.172	13655
925.279	13814
925.387	13727
925.494	13662
925.602	13734
925.709	13753
925.816	13594
925.924	13670
926.031	13750
926.138	13624
926.245	13681
926.352	13556
926.459	13605
926.566	13643
926.673	13510
926.779	13407
926.886	13468
926.993	13346
927.099	13171
927.206	13190
927.312	13129
927.419	13285
927.525	13198
927.631	13221
927.737	13095
927.843	13129
927.95	12954
928.056	13000
928.162	13069
928.267	13034
928.373	13632
928.479	13015
928.585	12894
928.69	13046
928.796	13023
928.901	12894
929.007	12745
929.112	12913
929.218	12776
929.323	12726
929.428	12810
929.533	12867
929.638	12650
929.743	12616
929.848	12711
929.953	12707
930.058	12547
930.163	12517
930.267	12448
930.372	12563
930.477	12285
930.581	12536
930.685	12395
930.79	12308
930.894	12270
930.998	12235
931.103	12384
931.207	12095
931.311	12007
931.415	11786
931.519	11627
931.623	11623
