Data from test_V78500241_656.txt Node
Date: Fri Mar 25 15:46:20 CST 2022
User: usil
Spectrometer: V785-0024
Trigger mode: 0
Integration Time (sec): 4.000000E-1
Scans to average: 1
Nonlinearity correction enabled: false
Boxcar width: 0
Storing dark spectrum: false
XAxis mode: Wavelengths
Number of Pixels in Spectrum: 1024
>>>>>Begin Spectral Data<<<<<
801.071	27264
801.214	27089
801.356	26948
801.499	26857
801.641	26762
801.783	26731
801.926	26842
802.068	26689
802.211	26716
802.353	26659
802.496	26450
802.638	26465
802.78	26545
802.923	26408
803.065	26370
803.208	26434
803.35	26431
803.492	26545
803.635	26579
803.777	26431
803.919	26518
804.061	26956
804.204	26549
804.346	26469
804.488	26434
804.63	26526
804.773	26446
804.915	26564
805.057	26640
805.199	26514
805.341	26701
805.483	26629
805.626	26815
805.768	26564
805.91	26537
806.052	26807
806.194	26583
806.336	26914
806.478	26659
806.62	26648
806.762	26849
806.904	26994
807.046	27173
807.188	27081
807.33	27020
807.472	27089
807.614	27055
807.756	27116
807.898	26868
808.04	26762
808.182	26842
808.324	26975
808.465	27051
808.607	27157
808.749	27344
808.891	27268
809.033	27614
809.174	27374
809.316	27355
809.458	27477
809.6	27325
809.741	27629
809.883	27534
810.025	27595
810.166	27507
810.308	27553
810.45	27500
810.591	27488
810.733	27310
810.875	27146
811.016	27199
811.158	27203
811.299	27321
811.441	27454
811.582	27492
811.724	27389
811.865	27264
812.007	27249
812.148	27272
812.29	27279
812.431	27466
812.573	27671
812.714	27694
812.855	27736
812.997	27926
813.138	27888
813.279	27876
813.421	27705
813.562	27838
813.703	27500
813.845	27511
813.986	27096
814.127	27058
814.268	26979
814.41	26933
814.551	26967
814.692	27013
814.833	26963
814.974	26933
815.115	26990
815.256	26762
815.397	26864
815.539	26804
815.68	26727
815.821	26625
815.962	26773
816.103	26583
816.244	26453
816.385	26377
816.526	26617
816.666	26294
816.807	26103
816.948	26237
817.089	26381
817.23	26252
817.371	26187
817.512	26271
817.653	26218
817.793	26187
817.934	26252
818.075	26206
818.216	26084
818.356	26229
818.497	26119
818.638	26039
818.778	26016
818.919	26005
819.06	25989
819.2	26145
819.341	26202
819.481	26081
819.622	26256
819.762	26530
819.903	26336
820.043	26511
820.184	26221
820.324	26237
820.465	26355
820.605	26332
820.746	26419
820.886	25951
821.026	26385
821.167	26229
821.307	26366
821.447	26282
821.588	26172
821.728	25966
821.868	25799
822.008	25624
822.149	25727
822.289	25700
822.429	25304
822.569	25343
822.709	25362
822.849	25103
822.99	25046
823.13	25133
823.27	25160
823.41	24981
823.55	24882
823.69	24867
823.83	25057
823.97	24856
824.11	24734
824.25	24757
824.389	24916
824.529	24783
824.669	24856
824.809	25046
824.949	24962
825.089	24875
825.228	24753
825.368	24646
825.508	24673
825.648	24745
825.787	24696
825.927	24760
826.067	24669
826.206	24760
826.346	24646
826.485	24669
826.625	24661
826.765	24753
826.904	24772
827.044	24384
827.183	24490
827.323	24315
827.462	24399
827.601	24403
827.741	24361
827.88	24273
828.02	24235
828.159	24205
828.298	24285
828.437	24464
828.577	24334
828.716	24448
828.855	24243
828.994	24182
829.134	24068
829.273	24064
829.412	24018
829.551	23988
829.69	23996
829.829	23973
829.968	24254
830.107	24083
830.246	24026
830.385	24041
830.524	23920
830.663	23961
830.802	23752
830.941	23680
831.08	23619
831.219	23668
831.357	23802
831.496	23908
831.635	23649
831.774	23577
831.913	23581
832.051	23349
832.19	23425
832.329	23520
832.467	23376
832.606	23395
832.744	23261
832.883	23391
833.022	23212
833.16	23379
833.299	23322
833.437	23349
833.576	23376
833.714	23478
833.852	23383
833.991	23471
834.129	23440
834.267	23520
834.406	23379
834.544	23395
834.682	23395
834.821	23258
834.959	23558
835.097	23379
835.235	23398
835.373	23398
835.511	23402
835.65	23318
835.788	23280
835.926	23155
836.064	23010
836.202	23079
836.34	23216
836.478	23315
836.615	23250
836.753	23227
836.891	23360
837.029	23181
837.167	23155
837.305	23067
837.443	23140
837.58	23124
837.718	23220
837.856	23094
837.993	22984
838.131	23083
838.269	22938
838.406	22923
838.544	22930
838.681	22721
838.819	22668
838.956	22474
839.094	22550
839.231	22546
839.369	22721
839.506	22968
839.643	22771
839.781	22508
839.918	22611
840.055	22694
840.193	22413
840.33	22596
840.467	22474
840.604	22481
840.742	22797
840.879	22485
841.016	22310
841.153	22325
841.29	22531
841.427	22443
841.564	22527
841.701	22481
841.838	22314
841.975	22451
842.112	22402
842.249	22295
842.385	22226
842.522	22413
842.659	22299
842.796	22158
842.933	22169
843.069	22067
843.206	22173
843.343	22291
843.479	22234
843.616	22158
843.752	22002
843.889	21979
844.025	22177
844.162	21808
844.298	22082
844.435	21953
844.571	21884
844.708	21968
844.844	22162
844.98	22021
845.117	22101
845.253	21972
845.389	21808
845.525	21911
845.661	21789
845.798	21648
845.934	21736
846.07	21785
846.206	21857
846.342	21865
846.478	21637
846.614	21644
846.75	21405
846.886	21458
847.022	21545
847.158	21530
847.294	21458
847.429	21549
847.565	21428
847.701	21686
847.837	21176
847.972	21226
848.108	21123
848.244	21317
848.379	21093
848.515	21058
848.65	20982
848.786	21058
848.921	20990
849.057	21188
849.192	21077
849.328	21100
849.463	21039
849.598	21001
849.734	20952
849.869	20914
850.004	20849
850.14	20804
850.275	20895
850.41	20800
850.545	20838
850.68	20762
850.815	20921
850.95	20800
851.085	21077
851.22	20933
851.355	20883
851.49	20849
851.625	20727
851.76	20746
851.895	20686
852.03	20765
852.165	20895
852.299	20765
852.434	20918
852.569	20804
852.703	20773
852.838	21032
852.973	20975
853.107	20994
853.242	20693
853.376	20750
853.511	20583
853.645	20659
853.78	20845
853.914	20609
854.048	20609
854.183	20613
854.317	20594
854.451	20948
854.585	20746
854.72	20602
854.854	20762
854.988	20594
855.122	20651
855.256	20556
855.39	20682
855.524	20712
855.658	20743
855.792	20587
855.926	20716
856.06	20724
856.194	20765
856.327	20537
856.461	20617
856.595	20571
856.729	20693
856.862	20762
856.996	20773
857.13	20587
857.263	20796
857.397	20781
857.53	20670
857.664	20705
857.797	20705
857.931	20826
858.064	20651
858.197	20773
858.331	20648
858.464	20659
858.597	20507
858.731	20746
858.864	20629
858.997	20434
859.13	20689
859.263	20560
859.396	20727
859.529	20617
859.662	20583
859.795	20606
859.928	20629
860.061	20777
860.194	20830
860.327	20674
860.46	20727
860.592	20800
860.725	20765
860.858	20708
860.99	20629
861.123	20613
861.256	20587
861.388	20693
861.521	21256
861.653	20514
861.786	20431
861.918	20473
862.05	20526
862.183	20590
862.315	20712
862.447	20488
862.58	20454
862.712	20457
862.844	20343
862.976	20454
863.108	20484
863.24	20739
863.372	20351
863.504	20374
863.636	20336
863.768	20431
863.9	20457
864.032	20214
864.164	20393
864.296	20454
864.428	20438
864.559	20442
864.691	20526
864.823	20381
864.954	20545
865.086	20263
865.217	20271
865.349	20263
865.48	20267
865.612	20298
865.743	20454
865.875	20168
866.006	20206
866.137	20187
866.269	20347
866.4	20278
866.531	20301
866.662	20309
866.793	20301
866.924	20282
867.055	20214
867.186	20183
867.317	20187
867.448	20088
867.579	20161
867.71	20054
867.841	20088
867.972	20183
868.103	20199
868.233	20145
868.364	20256
868.495	20229
868.625	20484
868.756	20476
868.886	20355
869.017	20522
869.147	20480
869.278	20579
869.408	20575
869.539	20583
869.669	20632
869.799	20457
869.929	20533
870.06	20579
870.19	20769
870.32	20720
870.45	20826
870.58	20849
870.71	21017
870.84	20853
870.97	20826
871.1	20872
871.23	21150
871.36	21070
871.489	20872
871.619	21036
871.749	21055
871.879	21028
872.008	21112
872.138	21036
872.267	21085
872.397	20944
872.526	20861
872.656	20876
872.785	20963
872.915	21184
873.044	21123
873.173	21081
873.303	21211
873.432	21074
873.561	21154
873.69	21150
873.819	21001
873.948	21077
874.077	20975
874.206	21001
874.335	21146
874.464	21173
874.593	21294
874.722	21203
874.851	21393
874.979	21424
875.108	21294
875.237	21256
875.365	21222
875.494	21329
875.623	21428
875.751	21256
875.88	21291
876.008	21397
876.136	21557
876.265	21755
876.393	21838
876.521	21690
876.65	21846
876.778	21690
876.906	21819
877.034	21614
877.162	21652
877.29	21561
877.418	21701
877.546	21804
877.674	21675
877.802	21686
877.93	21679
878.058	21564
878.185	21618
878.313	21698
878.441	21743
878.568	21477
878.696	21682
878.824	21759
878.951	21797
879.079	21861
879.206	21983
879.333	21751
879.461	21720
879.588	21641
879.715	21831
879.842	21903
879.97	21823
880.097	21534
880.224	21405
880.351	21500
880.478	21568
880.605	21431
880.732	21507
880.859	21762
880.986	21435
881.112	21439
881.239	21370
881.366	21321
881.493	21142
881.619	21081
881.746	21043
881.872	20990
881.999	21047
882.125	20937
882.252	21108
882.378	21032
882.505	21211
882.631	21001
882.757	20830
882.883	20849
883.01	20746
883.136	20712
883.262	20583
883.388	20571
883.514	20689
883.64	20876
883.766	20606
883.892	20621
884.018	20613
884.143	20762
884.269	20868
884.395	20484
884.52	20393
884.646	20518
884.772	20404
884.897	20282
885.023	20484
885.148	20499
885.274	20587
885.399	20431
885.524	20271
885.65	20492
885.775	20434
885.9	20366
886.025	20511
886.15	20514
886.275	20419
886.4	20313
886.525	20385
886.65	20366
886.775	20419
886.9	20503
887.025	20674
887.149	20343
887.274	20271
887.399	20290
887.523	20298
887.648	20103
887.773	20225
887.897	20263
888.021	20248
888.146	20176
888.27	20259
888.395	20278
888.519	20214
888.643	20229
888.767	20282
888.891	20195
889.015	19925
889.139	20012
889.263	20016
889.387	20100
889.511	20240
889.635	20035
889.759	19951
889.883	20145
890.006	20043
890.13	20187
890.254	19928
890.377	19906
890.501	19723
890.624	19803
890.748	19807
890.871	19605
890.995	19518
891.118	19540
891.241	19632
891.364	19620
891.488	19674
891.611	19628
891.734	19620
891.857	19670
891.98	19670
892.103	19552
892.226	19586
892.349	19582
892.471	19419
892.594	19449
892.717	19662
892.839	19533
892.962	19605
893.085	19567
893.207	19445
893.33	19365
893.452	19346
893.575	19518
893.697	19464
893.819	19708
893.941	19761
894.064	19685
894.186	19400
894.308	19339
894.43	19643
894.552	19738
894.674	19552
894.796	19358
894.918	19487
895.04	19457
895.161	19635
895.283	19540
895.405	19518
895.526	19624
895.648	19472
895.769	19521
895.891	19643
896.012	19708
896.134	19571
896.255	19544
896.376	19400
896.498	19468
896.619	19643
896.74	19540
896.861	19643
896.982	19894
897.103	19936
897.224	19776
897.345	19776
897.466	19750
897.587	19791
897.708	19913
897.828	19890
897.949	19639
898.07	19616
898.19	19734
898.311	19814
898.431	19757
898.552	19769
898.672	19750
898.792	19894
898.913	19799
899.033	19689
899.153	19620
899.273	19377
899.393	19521
899.513	19567
899.633	19506
899.753	19628
899.873	19586
899.993	19567
900.113	19400
900.232	19495
900.352	19502
900.472	19266
900.591	19148
900.711	19225
900.83	19213
900.95	19403
901.069	19400
901.189	19255
901.308	18920
901.427	18916
901.546	18947
901.665	18920
901.784	18871
901.904	18825
902.023	18738
902.141	18544
902.26	18407
902.379	18376
902.498	18410
902.617	18388
902.735	18460
902.854	18338
902.973	18342
903.091	18174
903.21	18194
903.328	18159
903.446	18064
903.565	17874
903.683	17901
903.801	17923
903.919	17927
904.038	17783
904.156	17661
904.274	17790
904.392	17611
904.51	17649
904.627	17695
904.745	17676
904.863	17649
904.981	17448
905.098	17463
905.216	17436
905.334	17440
905.451	17417
905.569	17269
905.686	17414
905.803	17280
905.921	17155
906.038	17258
906.155	17128
906.272	17060
906.389	17018
906.506	16820
906.623	17037
906.74	16949
906.857	16702
906.974	16763
907.091	16984
907.208	16976
907.324	16911
907.441	16812
907.557	16569
907.674	16588
907.79	16531
907.907	16554
908.023	16611
908.139	16569
908.256	16527
908.372	16558
908.488	16500
908.604	16303
908.72	16398
908.836	16329
908.952	16287
909.068	16424
909.184	16451
909.3	16318
909.415	16390
909.531	16287
909.647	16158
909.762	16051
909.878	16067
909.993	16101
910.108	15953
910.224	15979
910.339	16059
910.454	15998
910.57	15880
910.685	15819
910.8	15979
910.915	16162
911.03	15751
911.145	15682
911.259	15648
911.374	15709
911.489	15526
911.604	15439
911.718	15367
911.833	15481
911.947	15408
912.062	15317
912.176	15485
912.291	15477
912.405	15405
912.519	15690
912.633	15690
912.748	15447
912.862	15378
912.976	15195
913.09	15104
913.204	15184
913.318	15203
913.431	15355
913.545	15344
913.659	15340
913.772	15104
913.886	15085
914	15146
914.113	15074
914.226	15146
914.34	15097
914.453	14963
914.566	15032
914.68	14963
914.793	14906
914.906	14773
915.019	14701
915.132	14526
915.245	14724
915.358	14743
915.47	14769
915.583	14746
915.696	14720
915.809	14853
915.921	14834
916.034	14640
916.146	14667
916.259	14598
916.371	14758
916.483	14579
916.595	14480
916.708	14587
916.82	14617
916.932	14606
917.044	14522
917.156	14442
917.268	14210
917.38	14434
917.491	14400
917.603	14324
917.715	14434
917.826	14499
917.938	14252
918.049	14195
918.161	14305
918.272	14438
918.384	14396
918.495	14294
918.606	14111
918.717	14062
918.828	14267
918.939	14138
919.05	13993
919.161	13982
919.272	13909
919.383	13936
919.494	14164
919.604	14339
919.715	14145
919.826	14027
919.936	14130
920.047	14221
920.157	14088
920.267	14229
920.378	14123
920.488	14050
920.598	14267
920.708	14396
920.818	14305
920.928	14313
921.038	14457
921.148	14290
921.258	14020
921.368	13898
921.477	13860
921.587	13811
921.697	13620
921.806	13772
921.916	13715
922.025	13518
922.134	13453
922.244	13419
922.353	13468
922.462	13301
922.571	13339
922.68	13110
922.789	13133
922.898	13145
923.007	13065
923.116	13145
923.224	13050
923.333	13095
923.442	13072
923.55	12905
923.659	12871
923.767	13046
923.876	12867
923.984	12935
924.092	12817
924.201	12970
924.309	12924
924.417	12787
924.525	12764
924.633	12897
924.741	13506
924.849	12635
924.956	12734
925.064	12639
925.172	12494
925.279	12509
925.387	12578
925.494	12635
925.602	12707
925.709	12597
925.816	12418
925.924	12620
926.031	12601
926.138	12555
926.245	12566
926.352	12452
926.459	12604
926.566	12601
926.673	12460
926.779	12220
926.886	12296
926.993	12186
927.099	12159
927.206	12068
927.312	12026
927.419	12194
927.525	12201
927.631	12167
927.737	12007
927.843	11969
927.95	11958
928.056	11958
928.162	12083
928.267	12079
928.373	12612
928.479	12114
928.585	11840
928.69	11882
928.796	12087
928.901	11824
929.007	11786
929.112	11790
929.218	11802
929.323	11821
929.428	11718
929.533	11889
929.638	11649
929.743	11703
929.848	11798
929.953	11642
930.058	11573
930.163	11421
930.267	11459
930.372	11539
930.477	11349
930.581	11558
930.685	11444
930.79	11364
930.894	11349
930.998	11326
931.103	11440
931.207	11067
931.311	11041
931.415	10953
931.519	10805
931.623	10691
