Data from test_V78500241_2942.txt Node
Date: Fri Mar 25 16:02:10 CST 2022
User: usil
Spectrometer: V785-0024
Trigger mode: 0
Integration Time (sec): 4.000000E-1
Scans to average: 1
Nonlinearity correction enabled: false
Boxcar width: 0
Storing dark spectrum: false
XAxis mode: Wavelengths
Number of Pixels in Spectrum: 1024
>>>>>Begin Spectral Data<<<<<
801.071	28790
801.214	28888
801.356	28523
801.499	28493
801.641	28287
801.783	28360
801.926	28337
802.068	28375
802.211	28154
802.353	28181
802.496	27998
802.638	27991
802.78	28055
802.923	27994
803.065	27892
803.208	27846
803.35	28002
803.492	28139
803.635	28086
803.777	28238
803.919	28318
804.061	28470
804.204	28341
804.346	28097
804.488	28223
804.63	28284
804.773	28158
804.915	28318
805.057	28409
805.199	28204
805.341	28276
805.483	28405
805.626	28360
805.768	28295
805.91	28421
806.052	28421
806.194	28428
806.336	28748
806.478	28451
806.62	28314
806.762	28504
806.904	28710
807.046	28968
807.188	28850
807.33	28885
807.472	28866
807.614	28858
807.756	28824
807.898	28664
808.04	28649
808.182	28664
808.324	28748
808.465	28862
808.607	28942
808.749	29083
808.891	29299
809.033	29280
809.174	29250
809.316	29083
809.458	29113
809.6	29136
809.741	29341
809.883	29181
810.025	29379
810.166	29539
810.308	29478
810.45	29212
810.591	29326
810.733	29128
810.875	29075
811.016	29010
811.158	29060
811.299	29258
811.441	29239
811.582	29197
811.724	29220
811.865	29216
812.007	29170
812.148	29162
812.29	29246
812.431	29292
812.573	29417
812.714	29577
812.855	29638
812.997	29859
813.138	29901
813.279	29745
813.421	29634
813.562	29562
813.703	29638
813.845	29288
813.986	29117
814.127	29029
814.268	28812
814.41	28995
814.551	28847
814.692	28934
814.833	28835
814.974	28782
815.115	28873
815.256	28668
815.397	28793
815.539	28637
815.68	28672
815.821	28596
815.962	28596
816.103	28675
816.244	28527
816.385	28493
816.526	28485
816.666	28261
816.807	28173
816.948	28367
817.089	28257
817.23	28223
817.371	28211
817.512	28044
817.653	28109
817.793	28143
817.934	28181
818.075	28318
818.216	28188
818.356	28162
818.497	28029
818.638	27941
818.778	27914
818.919	28006
819.06	27903
819.2	28067
819.341	28226
819.481	28253
819.622	28329
819.762	28546
819.903	28466
820.043	28394
820.184	28291
820.324	28295
820.465	28401
820.605	28428
820.746	28196
820.886	28063
821.026	28306
821.167	28234
821.307	28287
821.447	28166
821.588	28154
821.728	28128
821.868	27827
822.008	27728
822.149	27747
822.289	27557
822.429	27401
822.569	27279
822.709	27378
822.849	27150
822.99	27150
823.13	27237
823.27	26956
823.41	26891
823.55	26952
823.69	26921
823.83	26982
823.97	26880
824.11	26849
824.25	26785
824.389	26769
824.529	26948
824.669	26849
824.809	27096
824.949	26807
825.089	26845
825.228	26868
825.368	26663
825.508	26556
825.648	26746
825.787	26617
825.927	26750
826.067	26716
826.206	26579
826.346	26887
826.485	26708
826.625	26697
826.765	26864
826.904	26796
827.044	26457
827.183	26537
827.323	26438
827.462	26511
827.601	26480
827.741	26461
827.88	26568
828.02	26263
828.159	26370
828.298	26324
828.437	26355
828.577	26294
828.716	26473
828.855	26317
828.994	26256
829.134	26084
829.273	26149
829.412	25959
829.551	26039
829.69	26039
829.829	26134
829.968	26138
830.107	26199
830.246	25978
830.385	26191
830.524	26016
830.663	25974
830.802	25750
830.941	25674
831.08	25594
831.219	25791
831.357	25784
831.496	26012
831.635	25738
831.774	25510
831.913	25506
832.051	25586
832.19	25499
832.329	25483
832.467	25460
832.606	25373
832.744	25377
832.883	25400
833.022	25308
833.16	25354
833.299	25502
833.437	25472
833.576	25476
833.714	25407
833.852	25556
833.991	25468
834.129	25540
834.267	25491
834.406	25388
834.544	25491
834.682	25499
834.821	25350
834.959	25677
835.097	25350
835.235	25495
835.373	25495
835.511	25525
835.65	25255
835.788	25213
835.926	25221
836.064	25137
836.202	25133
836.34	25171
836.478	25202
836.615	25358
836.753	25213
836.891	25335
837.029	25270
837.167	25217
837.305	25228
837.443	25118
837.58	25088
837.718	25107
837.856	25110
837.993	25046
838.131	24992
838.269	24947
838.406	24985
838.544	24867
838.681	24661
838.819	24707
838.956	24631
839.094	24574
839.231	24544
839.369	24741
839.506	25012
839.643	24806
839.781	24646
839.918	24547
840.055	24658
840.193	24509
840.33	24547
840.467	24490
840.604	24410
840.742	24791
840.879	24338
841.016	24429
841.153	24369
841.29	24578
841.427	24429
841.564	24570
841.701	24452
841.838	24277
841.975	24380
842.112	24505
842.249	24330
842.385	24395
842.522	24608
842.659	24281
842.796	24304
842.933	24273
843.069	24083
843.206	24106
843.343	24380
843.479	24174
843.616	24232
843.752	23950
843.889	23965
844.025	24053
844.162	23920
844.298	24098
844.435	24064
844.571	23980
844.708	23946
844.844	24060
844.98	24110
845.117	24095
845.253	24148
845.389	23855
845.525	23946
845.661	23855
845.798	23748
845.934	23783
846.07	23733
846.206	23630
846.342	23764
846.478	23611
846.614	23490
846.75	23326
846.886	23414
847.022	23554
847.158	23402
847.294	23512
847.429	23539
847.565	23372
847.701	23695
847.837	23258
847.972	23124
848.108	23360
848.244	23143
848.379	23102
848.515	23178
848.65	23018
848.786	23060
848.921	23018
849.057	23159
849.192	23174
849.328	23037
849.463	22995
849.598	22896
849.734	22930
849.869	22835
850.004	22816
850.14	22850
850.275	22862
850.41	22687
850.545	22755
850.68	22721
850.815	22885
850.95	22778
851.085	22949
851.22	22961
851.355	22790
851.49	22873
851.625	22965
851.76	22862
851.895	22672
852.03	22713
852.165	22706
852.299	22850
852.434	22934
852.569	22774
852.703	22759
852.838	22824
852.973	22949
853.107	22911
853.242	22790
853.376	22641
853.511	22417
853.645	22538
853.78	22691
853.914	22588
854.048	22615
854.183	22538
854.317	22637
854.451	22790
854.585	22641
854.72	22706
854.854	22725
854.988	22569
855.122	22569
855.256	22440
855.39	22634
855.524	22759
855.658	22858
855.792	22481
855.926	22683
856.06	22599
856.194	22809
856.327	22649
856.461	22584
856.595	22550
856.729	22744
856.862	22698
856.996	22713
857.13	22641
857.263	22767
857.397	22778
857.53	22675
857.664	22767
857.797	22611
857.931	22683
858.064	22565
858.197	22736
858.331	22656
858.464	22504
858.597	22447
858.731	22634
858.864	22607
858.997	22626
859.13	22668
859.263	22675
859.396	22687
859.529	22592
859.662	22611
859.795	22561
859.928	22634
860.061	22698
860.194	22809
860.327	22710
860.46	22691
860.592	22771
860.725	22687
860.858	22828
860.99	22535
861.123	22508
861.256	22512
861.388	22573
861.521	23383
861.653	22462
861.786	22295
861.918	22409
862.05	22493
862.183	22497
862.315	22535
862.447	22694
862.58	22557
862.712	22303
862.844	22352
862.976	22337
863.108	22322
863.24	22786
863.372	22261
863.504	22310
863.636	22272
863.768	22329
863.9	22299
864.032	22322
864.164	22162
864.296	22299
864.428	22409
864.559	22402
864.691	22428
864.823	22402
864.954	22272
865.086	22306
865.217	22268
865.349	22154
865.48	22204
865.612	22166
865.743	22310
865.875	22154
866.006	22097
866.137	22211
866.269	22246
866.4	22059
866.531	22143
866.662	22139
866.793	22192
866.924	22147
867.055	22242
867.186	22082
867.317	22185
867.448	22162
867.579	22166
867.71	22070
867.841	22070
867.972	22226
868.103	22067
868.233	22173
868.364	22215
868.495	22276
868.625	22382
868.756	22443
868.886	22356
869.017	22226
869.147	22428
869.278	22584
869.408	22329
869.539	22451
869.669	22287
869.799	22459
869.929	22512
870.06	22428
870.19	22611
870.32	22573
870.45	22736
870.58	22797
870.71	22873
870.84	22923
870.97	22694
871.1	22831
871.23	22984
871.36	23052
871.489	22824
871.619	22896
871.749	22984
871.879	22976
872.008	23037
872.138	23056
872.267	22987
872.397	22904
872.526	22801
872.656	22866
872.785	22805
872.915	23048
873.044	23083
873.173	23003
873.303	23136
873.432	23147
873.561	23189
873.69	22835
873.819	23014
873.948	23094
874.077	22999
874.206	22805
874.335	22930
874.464	23067
874.593	23208
874.722	23121
874.851	23208
874.979	23170
875.108	23254
875.237	23094
875.365	23094
875.494	23193
875.623	23227
875.751	23185
875.88	23174
876.008	23178
876.136	23387
876.265	23604
876.393	23771
876.521	23646
876.65	23745
876.778	23687
876.906	23482
877.034	23474
877.162	23638
877.29	23436
877.418	23490
877.546	23505
877.674	23535
877.802	23512
877.93	23570
878.058	23421
878.185	23516
878.313	23349
878.441	23543
878.568	23391
878.696	23573
878.824	23554
878.951	23642
879.079	23676
879.206	23760
879.333	23672
879.461	23554
879.588	23672
879.715	23733
879.842	23665
879.97	23531
880.097	23379
880.224	23265
880.351	23254
880.478	23379
880.605	23398
880.732	23269
880.859	23474
880.986	23444
881.112	23402
881.239	23318
881.366	23204
881.493	23010
881.619	22938
881.746	23010
881.872	22885
881.999	22812
882.125	22793
882.252	22976
882.378	22889
882.505	22942
882.631	22790
882.757	22641
882.883	22744
883.01	22641
883.136	22599
883.262	22489
883.388	22424
883.514	22546
883.64	22626
883.766	22470
883.892	22314
884.018	22314
884.143	22500
884.269	22542
884.395	22325
884.52	22204
884.646	22268
884.772	22257
884.897	22158
885.023	22246
885.148	22329
885.274	22348
885.399	22348
885.524	22154
885.65	22295
885.775	22226
885.9	22306
886.025	22538
886.15	22310
886.275	22204
886.4	22109
886.525	22238
886.65	22097
886.775	22150
886.9	22352
887.025	22413
887.149	22150
887.274	22025
887.399	21812
887.523	21926
887.648	21960
887.773	21819
887.897	22017
888.021	21922
888.146	21911
888.27	21934
888.395	22097
888.519	22044
888.643	21930
888.767	22048
888.891	22059
889.015	21755
889.139	21755
889.263	21789
889.387	21949
889.511	21991
889.635	21953
889.759	21739
889.883	21720
890.006	21705
890.13	21759
890.254	21816
890.377	21660
890.501	21583
890.624	21526
890.748	21576
890.871	21302
890.995	21408
891.118	21291
891.241	21317
891.364	21275
891.488	21519
891.611	21428
891.734	21329
891.857	21359
891.98	21355
892.103	21336
892.226	21313
892.349	21203
892.471	21146
892.594	21325
892.717	21119
892.839	21214
892.962	21142
893.085	21367
893.207	21180
893.33	20998
893.452	21123
893.575	21230
893.697	21142
893.819	21298
893.941	21325
894.064	21344
894.186	21207
894.308	21070
894.43	21348
894.552	21408
894.674	21260
894.796	21055
894.918	21195
895.04	21157
895.161	21252
895.283	21313
895.405	21089
895.526	21127
895.648	21146
895.769	21199
895.891	21279
896.012	21294
896.134	21310
896.255	21169
896.376	21123
896.498	21150
896.619	21211
896.74	21161
896.861	21142
896.982	21576
897.103	21694
897.224	21408
897.345	21473
897.466	21466
897.587	21481
897.708	21614
897.828	21378
897.949	21272
898.07	21214
898.19	21252
898.311	21447
898.431	21302
898.552	21317
898.672	21450
898.792	21401
898.913	21405
899.033	21313
899.153	21287
899.273	21142
899.393	21081
899.513	21135
899.633	21062
899.753	21062
899.873	21112
899.993	21199
900.113	21020
900.232	21074
900.352	20948
900.472	20838
900.591	20807
900.711	20845
900.83	20906
900.95	20918
901.069	20918
901.189	20811
901.308	20514
901.427	20271
901.546	20381
901.665	20434
901.784	20423
901.904	20237
902.023	20244
902.141	20005
902.26	19982
902.379	19936
902.498	19974
902.617	19868
902.735	19959
902.854	19970
902.973	19856
903.091	19689
903.21	19563
903.328	19594
903.446	19457
903.565	19354
903.683	19403
903.801	19350
903.919	19278
904.038	19324
904.156	19209
904.274	19228
904.392	19171
904.51	19133
904.627	19103
904.745	19217
904.863	19293
904.981	18954
905.098	18814
905.216	18783
905.334	18897
905.451	18859
905.569	18757
905.686	18817
905.803	18798
905.921	18578
906.038	18669
906.155	18631
906.272	18544
906.389	18574
906.506	18380
906.623	18243
906.74	18327
906.857	18277
906.974	18304
907.091	18391
907.208	18391
907.324	18338
907.441	18178
907.557	17954
907.674	17965
907.79	17999
907.907	17992
908.023	18068
908.139	18213
908.256	18038
908.372	17973
908.488	17866
908.604	17756
908.72	17817
908.836	17786
908.952	17760
909.068	17783
909.184	17832
909.3	17680
909.415	17828
909.531	17722
909.647	17379
909.762	17444
909.878	17417
909.993	17429
910.108	17410
910.224	17330
910.339	17448
910.454	17326
910.57	17254
910.685	17223
910.8	17452
910.915	17436
911.03	17124
911.145	17079
911.259	17029
911.374	16980
911.489	16908
911.604	16904
911.718	16790
911.833	16835
911.947	16664
912.062	16603
912.176	16752
912.291	16725
912.405	16778
912.519	16908
912.633	16957
912.748	16721
912.862	16713
912.976	16744
913.09	16485
913.204	16546
913.318	16645
913.431	16679
913.545	16698
913.659	16706
913.772	16493
913.886	16413
914	16428
914.113	16500
914.226	16493
914.34	16538
914.453	16325
914.566	16379
914.68	16223
914.793	16322
914.906	16131
915.019	15979
915.132	15945
915.245	16025
915.358	15991
915.47	15953
915.583	15930
915.696	16082
915.809	16013
915.921	16128
916.034	15937
916.146	15926
916.259	15911
916.371	15998
916.483	15865
916.595	15895
916.708	15835
916.82	15823
916.932	15739
917.044	15762
917.156	15808
917.268	15618
917.38	15622
917.491	15606
917.603	15622
917.715	15717
917.826	15671
917.938	15625
918.049	15504
918.161	15519
918.272	15679
918.384	15671
918.495	15496
918.606	15397
918.717	15344
918.828	15420
918.939	15412
919.05	15332
919.161	15306
919.272	15161
919.383	15317
919.494	15291
919.604	15580
919.715	15340
919.826	15245
919.936	15298
920.047	15424
920.157	15329
920.267	15450
920.378	15351
920.488	15207
920.598	15401
920.708	15614
920.818	15408
920.928	15466
921.038	15599
921.148	15637
921.258	15332
921.368	15176
921.477	15051
921.587	15043
921.697	14910
921.806	14929
921.916	14876
922.025	14644
922.134	14701
922.244	14587
922.353	14693
922.462	14522
922.571	14419
922.68	14343
922.789	14233
922.898	14199
923.007	14202
923.116	14301
923.224	14271
923.333	14225
923.442	14115
923.55	14161
923.659	14145
923.767	14206
923.876	14024
923.984	14062
924.092	13955
924.201	14092
924.309	14024
924.417	13986
924.525	13932
924.633	13982
924.741	14819
924.849	13742
924.956	13845
925.064	13681
925.172	13605
925.279	13734
925.387	13666
925.494	13670
925.602	13814
925.709	13761
925.816	13620
925.924	13476
926.031	13662
926.138	13601
926.245	13658
926.352	13521
926.459	13636
926.566	13613
926.673	13491
926.779	13453
926.886	13434
926.993	13171
927.099	13259
927.206	13145
927.312	13152
927.419	13335
927.525	13152
927.631	13259
927.737	13149
927.843	13053
927.95	12939
928.056	13042
928.162	13084
928.267	13031
928.373	13712
928.479	13107
928.585	12783
928.69	12905
928.796	12989
928.901	12833
929.007	12783
929.112	12837
929.218	12776
929.323	12802
929.428	12734
929.533	12817
929.638	12635
929.743	12604
929.848	12719
929.953	12623
930.058	12559
930.163	12429
930.267	12338
930.372	12521
930.477	12346
930.581	12692
930.685	12456
930.79	12254
930.894	12300
930.998	12171
931.103	12410
931.207	11996
931.311	12007
931.415	11813
931.519	11718
931.623	11649
