Data from test_V78500241_1680.txt Node
Date: Fri Mar 25 15:53:26 CST 2022
User: usil
Spectrometer: V785-0024
Trigger mode: 0
Integration Time (sec): 4.000000E-1
Scans to average: 1
Nonlinearity correction enabled: false
Boxcar width: 0
Storing dark spectrum: false
XAxis mode: Wavelengths
Number of Pixels in Spectrum: 1024
>>>>>Begin Spectral Data<<<<<
801.071	28299
801.214	28200
801.356	28124
801.499	28082
801.641	28006
801.783	28013
801.926	28006
802.068	27991
802.211	27812
802.353	27694
802.496	27682
802.638	27641
802.78	27488
802.923	27496
803.065	27386
803.208	27382
803.35	27542
803.492	27610
803.635	27827
803.777	27523
803.919	27743
804.061	28143
804.204	27903
804.346	27637
804.488	27720
804.63	27762
804.773	27667
804.915	27800
805.057	27911
805.199	27831
805.341	27907
805.483	28059
805.626	27949
805.768	27918
805.91	27991
806.052	27903
806.194	27873
806.336	28268
806.478	27987
806.62	27934
806.762	27983
806.904	28268
807.046	28504
807.188	28500
807.33	28405
807.472	28535
807.614	28421
807.756	28333
807.898	28211
808.04	28276
808.182	28177
808.324	28276
808.465	28310
808.607	28535
808.749	28710
808.891	28744
809.033	28763
809.174	28706
809.316	28698
809.458	28603
809.6	28656
809.741	28862
809.883	28774
810.025	29003
810.166	28892
810.308	28892
810.45	28885
810.591	28744
810.733	28653
810.875	28584
811.016	28607
811.158	28504
811.299	28717
811.441	28774
811.582	28946
811.724	28710
811.865	28569
812.007	28573
812.148	28668
812.29	28717
812.431	28759
812.573	28904
812.714	29041
812.855	29261
812.997	29345
813.138	29402
813.279	29239
813.421	29124
813.562	29231
813.703	28946
813.845	28816
813.986	28622
814.127	28409
814.268	28398
814.41	28375
814.551	28207
814.692	28382
814.833	28310
814.974	28363
815.115	28341
815.256	28105
815.397	28219
815.539	28147
815.68	28181
815.821	28139
815.962	28196
816.103	28249
816.244	28090
816.385	27922
816.526	27812
816.666	27614
816.807	27576
816.948	27694
817.089	27736
817.23	27690
817.371	27713
817.512	27561
817.653	27675
817.793	27743
817.934	27603
818.075	27572
818.216	27781
818.356	27625
818.497	27610
818.638	27351
818.778	27382
818.919	27534
819.06	27492
819.2	27549
819.341	27644
819.481	27618
819.622	27797
819.762	27884
819.903	27884
820.043	27800
820.184	27713
820.324	27660
820.465	27911
820.605	27766
820.746	27781
820.886	27576
821.026	27781
821.167	27770
821.307	27614
821.447	27648
821.588	27542
821.728	27553
821.868	27252
822.008	27096
822.149	27142
822.289	27096
822.429	26849
822.569	26804
822.709	26785
822.849	26514
822.99	26682
823.13	26514
823.27	26560
823.41	26351
823.55	26412
823.69	26431
823.83	26457
823.97	26530
824.11	26218
824.25	26294
824.389	26240
824.529	26134
824.669	26267
824.809	26393
824.949	26442
825.089	26244
825.228	26317
825.368	26046
825.508	26073
825.648	26164
825.787	26244
825.927	26347
826.067	26077
826.206	26088
826.346	26062
826.485	26157
826.625	26046
826.765	26218
826.904	26240
827.044	25944
827.183	25807
827.323	25849
827.462	25902
827.601	25860
827.741	25750
827.88	25959
828.02	25738
828.159	25757
828.298	25902
828.437	25989
828.577	25734
828.716	25966
828.855	25731
828.994	25506
829.134	25544
829.273	25559
829.412	25479
829.551	25411
829.69	25681
829.829	25445
829.968	25643
830.107	25609
830.246	25643
830.385	25464
830.524	25415
830.663	25327
830.802	25209
830.941	25278
831.08	25095
831.219	25171
831.357	25175
831.496	25388
831.635	25259
831.774	24913
831.913	25088
832.051	24856
832.19	24909
832.329	24962
832.467	24753
832.606	24810
832.744	24791
832.883	24802
833.022	24806
833.16	24791
833.299	24753
833.437	24749
833.576	25061
833.714	24840
833.852	24719
833.991	24943
834.129	25023
834.267	25012
834.406	25000
834.544	24840
834.682	24837
834.821	24901
834.959	25042
835.097	24867
835.235	24909
835.373	24829
835.511	24844
835.65	24833
835.788	24654
835.926	24517
836.064	24509
836.202	24498
836.34	24726
836.478	24692
836.615	24642
836.753	24673
836.891	24684
837.029	24734
837.167	24597
837.305	24585
837.443	24525
837.58	24563
837.718	24513
837.856	24585
837.993	24578
838.131	24639
838.269	24304
838.406	24494
838.544	24380
838.681	24167
838.819	24148
838.956	24045
839.094	24064
839.231	24148
839.369	24186
839.506	24266
839.643	24254
839.781	23969
839.918	24011
840.055	24091
840.193	24102
840.33	23969
840.467	23992
840.604	23942
840.742	24125
840.879	23901
841.016	23828
841.153	23923
841.29	23920
841.427	23889
841.564	23980
841.701	23950
841.838	23824
841.975	23817
842.112	23813
842.249	23809
842.385	23615
842.522	23935
842.659	23790
842.796	23771
842.933	23722
843.069	23611
843.206	23562
843.343	23672
843.479	23623
843.616	23452
843.752	23433
843.889	23535
844.025	23646
844.162	23459
844.298	23589
844.435	23478
844.571	23467
844.708	23414
844.844	23570
844.98	23657
845.117	23539
845.253	23417
845.389	23162
845.525	23364
845.661	23105
845.798	23170
845.934	23242
846.07	23185
846.206	23102
846.342	23235
846.478	22995
846.614	22957
846.75	22778
846.886	22801
847.022	22820
847.158	22949
847.294	22919
847.429	22961
847.565	22877
847.701	23189
847.837	22645
847.972	22656
848.108	22767
848.244	22634
848.379	22691
848.515	22413
848.65	22287
848.786	22557
848.921	22580
849.057	22622
849.192	22561
849.328	22531
849.463	22500
849.598	22455
849.734	22352
849.869	22272
850.004	22276
850.14	22268
850.275	22299
850.41	22215
850.545	22086
850.68	22249
850.815	22181
850.95	22272
851.085	22371
851.22	22474
851.355	22219
851.49	22185
851.625	22207
851.76	22135
851.895	22234
852.03	22082
852.165	22181
852.299	22272
852.434	22348
852.569	22356
852.703	22257
852.838	22344
852.973	22344
853.107	22333
853.242	22246
853.376	22154
853.511	22013
853.645	21960
853.78	22025
853.914	22029
854.048	22048
854.183	22177
854.317	22063
854.451	22261
854.585	22162
854.72	22097
854.854	22196
854.988	21979
855.122	22078
855.256	21903
855.39	22044
855.524	22082
855.658	22181
855.792	22116
855.926	22150
856.06	21994
856.194	22021
856.327	22173
856.461	21983
856.595	22006
856.729	22032
856.862	22188
856.996	22124
857.13	22188
857.263	22314
857.397	22177
857.53	22055
857.664	22185
857.797	22082
857.931	22143
858.064	22032
858.197	22249
858.331	21915
858.464	22059
858.597	22040
858.731	22048
858.864	22063
858.997	22051
859.13	22150
859.263	22116
859.396	22120
859.529	21998
859.662	22025
859.795	22051
859.928	22055
860.061	22188
860.194	22200
860.327	22169
860.46	22128
860.592	22196
860.725	22230
860.858	22150
860.99	22124
861.123	22063
861.256	21987
861.388	22124
861.521	22793
861.653	21869
861.786	21941
861.918	21960
862.05	21998
862.183	21987
862.315	22055
862.447	22070
862.58	21964
862.712	21850
862.844	21797
862.976	21709
863.108	21979
863.24	22280
863.372	21774
863.504	21838
863.636	21797
863.768	21876
863.9	21717
864.032	21500
864.164	21705
864.296	21747
864.428	21941
864.559	21865
864.691	21930
864.823	21816
864.954	21762
865.086	21812
865.217	21709
865.349	21481
865.48	21732
865.612	21652
865.743	21667
865.875	21671
866.006	21618
866.137	21599
866.269	21549
866.4	21599
866.531	21671
866.662	21652
866.793	21660
866.924	21614
867.055	21519
867.186	21648
867.317	21587
867.448	21473
867.579	21557
867.71	21485
867.841	21469
867.972	21583
868.103	21561
868.233	21580
868.364	21656
868.495	21690
868.625	21774
868.756	22025
868.886	21633
869.017	21808
869.147	21880
869.278	21945
869.408	21964
869.539	21759
869.669	21956
869.799	21812
869.929	21983
870.06	21903
870.19	22147
870.32	22116
870.45	22196
870.58	22287
870.71	22352
870.84	22204
870.97	22162
871.1	22268
871.23	22432
871.36	22405
871.489	22382
871.619	22249
871.749	22542
871.879	22428
872.008	22497
872.138	22478
872.267	22466
872.397	22295
872.526	22295
872.656	22295
872.785	22177
872.915	22538
873.044	22580
873.173	22478
873.303	22569
873.432	22440
873.561	22592
873.69	22569
873.819	22481
873.948	22588
874.077	22440
874.206	22443
874.335	22424
874.464	22531
874.593	22637
874.722	22736
874.851	22660
874.979	22778
875.108	22733
875.237	22630
875.365	22546
875.494	22630
875.623	22683
875.751	22637
875.88	22786
876.008	22786
876.136	22847
876.265	23022
876.393	23143
876.521	23067
876.65	23105
876.778	23037
876.906	23094
877.034	23102
877.162	22946
877.29	22961
877.418	23075
877.546	23033
877.674	23018
877.802	23044
877.93	23014
878.058	23098
878.185	22972
878.313	22972
878.441	22984
878.568	22809
878.696	22957
878.824	22919
878.951	23102
879.079	23083
879.206	23273
879.333	23121
879.461	23143
879.588	23204
879.715	23212
879.842	23155
879.97	23025
880.097	22930
880.224	22793
880.351	22991
880.478	22778
880.605	22831
880.732	22786
880.859	22987
880.986	22889
881.112	22873
881.239	22679
881.366	22596
881.493	22424
881.619	22466
881.746	22409
881.872	22413
881.999	22382
882.125	22459
882.252	22402
882.378	22409
882.505	22497
882.631	22356
882.757	22070
882.883	22169
883.01	22185
883.136	21991
883.262	21979
883.388	21930
883.514	22185
883.64	22173
883.766	22010
883.892	21823
884.018	21823
884.143	21926
884.269	22192
884.395	21679
884.52	21781
884.646	21789
884.772	21717
884.897	21542
885.023	21682
885.148	21838
885.274	21941
885.399	21675
885.524	21591
885.65	21606
885.775	21835
885.9	21679
886.025	21789
886.15	21682
886.275	21698
886.4	21618
886.525	21709
886.65	21564
886.775	21656
886.9	21838
887.025	21899
887.149	21660
887.274	21496
887.399	21378
887.523	21557
887.648	21504
887.773	21401
887.897	21591
888.021	21450
888.146	21397
888.27	21530
888.395	21515
888.519	21587
888.643	21481
888.767	21629
888.891	21412
889.015	21321
889.139	21237
889.263	21287
889.387	21291
889.511	21450
889.635	21393
889.759	21279
889.883	21218
890.006	21283
890.13	21310
890.254	21260
890.377	21332
890.501	21142
890.624	20963
890.748	21058
890.871	20895
890.995	20792
891.118	20796
891.241	20910
891.364	20788
891.488	20994
891.611	20933
891.734	20845
891.857	20811
891.98	20826
892.103	20891
892.226	20868
892.349	20667
892.471	20503
892.594	20632
892.717	20750
892.839	20602
892.962	20743
893.085	20918
893.207	20819
893.33	20590
893.452	20750
893.575	20777
893.697	20750
893.819	20807
893.941	21017
894.064	20921
894.186	20705
894.308	20564
894.43	20788
894.552	20788
894.674	20853
894.796	20724
894.918	20727
895.04	20613
895.161	20731
895.283	20609
895.405	20705
895.526	20857
895.648	20659
895.769	20788
895.891	20655
896.012	20849
896.134	20773
896.255	20644
896.376	20788
896.498	20648
896.619	20758
896.74	20682
896.861	20765
896.982	20971
897.103	21184
897.224	20944
897.345	20975
897.466	20823
897.587	20861
897.708	21081
897.828	20941
897.949	20902
898.07	20792
898.19	20914
898.311	20963
898.431	20876
898.552	20967
898.672	21055
898.792	21100
898.913	20960
899.033	20781
899.153	20762
899.273	20533
899.393	20609
899.513	20712
899.633	20697
899.753	20739
899.873	20678
899.993	20602
900.113	20644
900.232	20583
900.352	20625
900.472	20434
900.591	20454
900.711	20385
900.83	20366
900.95	20522
901.069	20450
901.189	20351
901.308	20199
901.427	20092
901.546	19894
901.665	20039
901.784	20058
901.904	20005
902.023	19689
902.141	19601
902.26	19483
902.379	19491
902.498	19567
902.617	19506
902.735	19613
902.854	19487
902.973	19499
903.091	19274
903.21	19110
903.328	19160
903.446	19133
903.565	18905
903.683	18973
903.801	18840
903.919	18909
904.038	18909
904.156	18722
904.274	18795
904.392	18856
904.51	18741
904.627	18627
904.745	18703
904.863	18726
904.981	18601
905.098	18391
905.216	18445
905.334	18414
905.451	18426
905.569	18429
905.686	18498
905.803	18403
905.921	18228
906.038	18281
906.155	18235
906.272	18045
906.389	18076
906.506	17961
906.623	17923
906.74	18011
906.857	17897
906.974	17904
907.091	18003
907.208	18064
907.324	17969
907.441	17866
907.557	17745
907.674	17638
907.79	17573
907.907	17737
908.023	17623
908.139	17581
908.256	17638
908.372	17554
908.488	17501
908.604	17532
908.72	17303
908.836	17398
908.952	17242
909.068	17429
909.184	17509
909.3	17372
909.415	17360
909.531	17292
909.647	17121
909.762	17102
909.878	17067
909.993	17143
910.108	17090
910.224	17014
910.339	17075
910.454	17052
910.57	16835
910.685	16801
910.8	16987
910.915	17025
911.03	16862
911.145	16744
911.259	16672
911.374	16622
911.489	16577
911.604	16622
911.718	16405
911.833	16424
911.947	16291
912.062	16246
912.176	16405
912.291	16459
912.405	16409
912.519	16653
912.633	16672
912.748	16466
912.862	16462
912.976	16249
913.09	16032
913.204	16211
913.318	16158
913.431	16280
913.545	16329
913.659	16333
913.772	16124
913.886	16188
914	16074
914.113	16128
914.226	16101
914.34	16086
914.453	15945
914.566	16071
914.68	15911
914.793	15778
914.906	15648
915.019	15675
915.132	15599
915.245	15644
915.358	15622
915.47	15648
915.583	15633
915.696	15656
915.809	15720
915.921	15698
916.034	15542
916.146	15523
916.259	15507
916.371	15561
916.483	15507
916.595	15481
916.708	15405
916.82	15454
916.932	15370
917.044	15386
917.156	15348
917.268	15245
917.38	15260
917.491	15211
917.603	15287
917.715	15310
917.826	15329
917.938	15180
918.049	15051
918.161	15169
918.272	15230
918.384	15359
918.495	15169
918.606	14998
918.717	14925
918.828	14982
918.939	15036
919.05	15013
919.161	15020
919.272	14743
919.383	14750
919.494	15085
919.604	15207
919.715	15032
919.826	14849
919.936	14952
920.047	15039
920.157	14994
920.267	15199
920.378	15001
920.488	14929
920.598	15081
920.708	15272
920.818	15070
920.928	15077
921.038	15222
921.148	15222
921.258	14910
921.368	14785
921.477	14720
921.587	14678
921.697	14667
921.806	14659
921.916	14590
922.025	14370
922.134	14305
922.244	14210
922.353	14385
922.462	14195
922.571	14164
922.68	13978
922.789	14001
922.898	13917
923.007	13913
923.116	13951
923.224	14043
923.333	13955
923.442	13746
923.55	13791
923.659	13830
923.767	13875
923.876	13860
923.984	13860
924.092	13643
924.201	13811
924.309	13723
924.417	13636
924.525	13586
924.633	13624
924.741	14419
924.849	13434
924.956	13578
925.064	13362
925.172	13244
925.279	13324
925.387	13388
925.494	13388
925.602	13434
925.709	13301
925.816	13190
925.924	13255
926.031	13388
926.138	13377
926.245	13403
926.352	13247
926.459	13316
926.566	13441
926.673	13171
926.779	13160
926.886	13072
926.993	12958
927.099	12939
927.206	12977
927.312	12852
927.419	12840
927.525	12962
927.631	12924
927.737	12825
927.843	12719
927.95	12631
928.056	12642
928.162	12795
928.267	12779
928.373	13350
928.479	12814
928.585	12559
928.69	12669
928.796	12726
928.901	12578
929.007	12521
929.112	12574
929.218	12566
929.323	12433
929.428	12342
929.533	12532
929.638	12486
929.743	12369
929.848	12441
929.953	12365
930.058	12338
930.163	12159
930.267	12209
930.372	12277
930.477	12133
930.581	12342
930.685	12148
930.79	12095
930.894	12045
930.998	11935
931.103	12087
931.207	11786
931.311	11733
931.415	11535
931.519	11315
931.623	11376
