Data from test_V78500241_2048.txt Node
Date: Fri Mar 25 15:55:59 CST 2022
User: usil
Spectrometer: V785-0024
Trigger mode: 0
Integration Time (sec): 4.000000E-1
Scans to average: 1
Nonlinearity correction enabled: false
Boxcar width: 0
Storing dark spectrum: false
XAxis mode: Wavelengths
Number of Pixels in Spectrum: 1024
>>>>>Begin Spectral Data<<<<<
801.071	28896
801.214	28862
801.356	28668
801.499	28459
801.641	28519
801.783	28523
801.926	28611
802.068	28481
802.211	28462
802.353	28299
802.496	28219
802.638	28207
802.78	28074
802.923	28211
803.065	27979
803.208	28101
803.35	28181
803.492	28382
803.635	28443
803.777	28169
803.919	28436
804.061	28763
804.204	28485
804.346	28367
804.488	28268
804.63	28386
804.773	28531
804.915	28466
805.057	28470
805.199	28554
805.341	28577
805.483	28615
805.626	28656
805.768	28470
805.91	28592
806.052	28706
806.194	28561
806.336	28653
806.478	28577
806.62	28721
806.762	28748
806.904	28835
807.046	29090
807.188	29029
807.33	29033
807.472	29155
807.614	28968
807.756	29060
807.898	28866
808.04	28885
808.182	28759
808.324	28869
808.465	28995
808.607	28987
808.749	29258
808.891	29387
809.033	29421
809.174	29315
809.316	29212
809.458	29303
809.6	29155
809.741	29265
809.883	29463
810.025	29554
810.166	29554
810.308	29570
810.45	29425
810.591	29463
810.733	29265
810.875	29254
811.016	29292
811.158	29208
811.299	29170
811.441	29463
811.582	29425
811.724	29398
811.865	29299
812.007	29246
812.148	29273
812.29	29433
812.431	29459
812.573	29562
812.714	29733
812.855	29779
812.997	29946
813.138	30003
813.279	30038
813.421	29821
813.562	29729
813.703	29638
813.845	29444
813.986	29086
814.127	29227
814.268	29090
814.41	29064
814.551	28942
814.692	29064
814.833	28946
814.974	28938
815.115	29044
815.256	28877
815.397	28858
815.539	28847
815.68	28862
815.821	28778
815.962	28835
816.103	28778
816.244	28736
816.385	28626
816.526	28611
816.666	28516
816.807	28417
816.948	28363
817.089	28390
817.23	28371
817.371	28455
817.512	28356
817.653	28382
817.793	28356
817.934	28360
818.075	28341
818.216	28379
818.356	28310
818.497	28249
818.638	28093
818.778	28086
818.919	28036
819.06	28192
819.2	28291
819.341	28295
819.481	28284
819.622	28405
819.762	28675
819.903	28607
820.043	28504
820.184	28546
820.324	28493
820.465	28694
820.605	28664
820.746	28428
820.886	28253
821.026	28363
821.167	28443
821.307	28428
821.447	28257
821.588	28287
821.728	28200
821.868	28059
822.008	27762
822.149	27823
822.289	27854
822.429	27713
822.569	27507
822.709	27416
822.849	27469
822.99	27306
823.13	27359
823.27	27272
823.41	27131
823.55	27020
823.69	27123
823.83	27119
823.97	26967
824.11	26853
824.25	26826
824.389	27024
824.529	27116
824.669	26994
824.809	27135
824.949	27131
825.089	27142
825.228	27119
825.368	26811
825.508	26914
825.648	26921
825.787	26815
825.927	27001
826.067	26762
826.206	27081
826.346	27036
826.485	26876
826.625	26834
826.765	26979
826.904	26925
827.044	26621
827.183	26560
827.323	26594
827.462	26644
827.601	26621
827.741	26488
827.88	26731
828.02	26343
828.159	26606
828.298	26697
828.437	26545
828.577	26507
828.716	26575
828.855	26453
828.994	26358
829.134	26320
829.273	26328
829.412	26240
829.551	26305
829.69	26233
829.829	26317
829.968	26404
830.107	26347
830.246	26168
830.385	26202
830.524	26138
830.663	26020
830.802	26069
830.941	25883
831.08	25887
831.219	25894
831.357	25944
831.496	26092
831.635	25723
831.774	25864
831.913	25761
832.051	25753
832.19	25746
832.329	25624
832.467	25620
832.606	25438
832.744	25502
832.883	25419
833.022	25403
833.16	25525
833.299	25674
833.437	25613
833.576	25685
833.714	25521
833.852	25632
833.991	25559
834.129	25788
834.267	25643
834.406	25575
834.544	25571
834.682	25601
834.821	25620
834.959	25746
835.097	25571
835.235	25628
835.373	25700
835.511	25624
835.65	25346
835.788	25434
835.926	25259
836.064	25190
836.202	25240
836.34	25388
836.478	25559
836.615	25468
836.753	25396
836.891	25567
837.029	25430
837.167	25289
837.305	25339
837.443	25255
837.58	25156
837.718	25434
837.856	25293
837.993	25190
838.131	25240
838.269	25168
838.406	25141
838.544	25095
838.681	24920
838.819	24795
838.956	24631
839.094	24791
839.231	24787
839.369	24962
839.506	25091
839.643	24897
839.781	24635
839.918	24654
840.055	24627
840.193	24776
840.33	24616
840.467	24665
840.604	24719
840.742	24890
840.879	24525
841.016	24563
841.153	24445
841.29	24757
841.427	24479
841.564	24547
841.701	24608
841.838	24505
841.975	24471
842.112	24460
842.249	24505
842.385	24315
842.522	24616
842.659	24547
842.796	24319
842.933	24403
843.069	24224
843.206	24338
843.343	24418
843.479	24357
843.616	24456
843.752	24098
843.889	24114
844.025	24220
844.162	24136
844.298	24174
844.435	24197
844.571	24194
844.708	24083
844.844	24216
844.98	24281
845.117	24251
845.253	24140
845.389	23999
845.525	24060
845.661	23870
845.798	23847
845.934	23855
846.07	23908
846.206	23786
846.342	24064
846.478	23695
846.614	23748
846.75	23558
846.886	23600
847.022	23600
847.158	23600
847.294	23558
847.429	23608
847.565	23531
847.701	23794
847.837	23322
847.972	23235
848.108	23440
848.244	23395
848.379	23185
848.515	23261
848.65	23124
848.786	23277
848.921	23318
849.057	23372
849.192	23315
849.328	23132
849.463	23181
849.598	23079
849.734	23037
849.869	23071
850.004	22953
850.14	22927
850.275	22987
850.41	22805
850.545	22824
850.68	22862
850.815	23022
850.95	23003
851.085	23075
851.22	22942
851.355	22980
851.49	22915
851.625	22892
851.76	22942
851.895	22831
852.03	22866
852.165	22980
852.299	23041
852.434	23041
852.569	22957
852.703	22847
852.838	23071
852.973	23105
853.107	23094
853.242	22866
853.376	22786
853.511	22675
853.645	22691
853.78	22809
853.914	22767
854.048	22755
854.183	22736
854.317	22831
854.451	22740
854.585	22736
854.72	22691
854.854	22793
854.988	22641
855.122	22733
855.256	22645
855.39	22767
855.524	22793
855.658	22828
855.792	22812
855.926	22767
856.06	22835
856.194	22820
856.327	22774
856.461	22881
856.595	22752
856.729	22687
856.862	22942
856.996	22835
857.13	22782
857.263	22839
857.397	22828
857.53	22634
857.664	22835
857.797	22733
857.931	22930
858.064	22733
858.197	22869
858.331	22694
858.464	22637
858.597	22687
858.731	22698
858.864	22736
858.997	22725
859.13	22767
859.263	22733
859.396	22778
859.529	22740
859.662	22721
859.795	22656
859.928	22858
860.061	22889
860.194	22934
860.327	22710
860.46	22793
860.592	22904
860.725	22908
860.858	22812
860.99	22850
861.123	22637
861.256	22626
861.388	22755
861.521	23410
861.653	22767
861.786	22497
861.918	22493
862.05	22599
862.183	22664
862.315	22721
862.447	22733
862.58	22653
862.712	22481
862.844	22375
862.976	22618
863.108	22599
863.24	22881
863.372	22493
863.504	22470
863.636	22455
863.768	22462
863.9	22478
864.032	22367
864.164	22344
864.296	22523
864.428	22626
864.559	22424
864.691	22485
864.823	22398
864.954	22413
865.086	22413
865.217	22344
865.349	22234
865.48	22341
865.612	22314
865.743	22314
865.875	22261
866.006	22329
866.137	22284
866.269	22363
866.4	22090
866.531	22234
866.662	22238
866.793	22177
866.924	22226
867.055	22352
867.186	22329
867.317	22234
867.448	22086
867.579	22192
867.71	22230
867.841	22265
867.972	22306
868.103	22284
868.233	22139
868.364	22360
868.495	22306
868.625	22550
868.756	22512
868.886	22481
869.017	22417
869.147	22626
869.278	22588
869.408	22584
869.539	22478
869.669	22504
869.799	22580
869.929	22679
870.06	22565
870.19	22824
870.32	22752
870.45	22824
870.58	22927
870.71	23033
870.84	22946
870.97	22885
871.1	22957
871.23	23060
871.36	23064
871.489	22953
871.619	23052
871.749	23003
871.879	23121
872.008	23155
872.138	23056
872.267	23083
872.397	22961
872.526	22965
872.656	22885
872.785	22889
872.915	23162
873.044	23143
873.173	23147
873.303	23037
873.432	23185
873.561	23231
873.69	23086
873.819	23166
873.948	23185
874.077	23242
874.206	23083
874.335	23208
874.464	23235
874.593	23254
874.722	23258
874.851	23315
874.979	23303
875.108	23459
875.237	23227
875.365	23311
875.494	23326
875.623	23421
875.751	23334
875.88	23220
876.008	23395
876.136	23452
876.265	23832
876.393	23870
876.521	23703
876.65	23680
876.778	23805
876.906	23611
877.034	23680
877.162	23737
877.29	23687
877.418	23714
877.546	23756
877.674	23642
877.802	23551
877.93	23684
878.058	23566
878.185	23585
878.313	23604
878.441	23672
878.568	23486
878.696	23509
878.824	23627
878.951	23836
879.079	23760
879.206	23992
879.333	23809
879.461	23619
879.588	23870
879.715	23805
879.842	24041
879.97	23821
880.097	23436
880.224	23543
880.351	23577
880.478	23452
880.605	23444
880.732	23539
880.859	23745
880.986	23455
881.112	23490
881.239	23284
881.366	23159
881.493	23151
881.619	23113
881.746	23029
881.872	22968
881.999	23033
882.125	23003
882.252	23052
882.378	22961
882.505	23075
882.631	22862
882.757	22691
882.883	22790
883.01	22672
883.136	22618
883.262	22653
883.388	22432
883.514	22634
883.64	22771
883.766	22580
883.892	22462
884.018	22550
884.143	22565
884.269	22641
884.395	22531
884.52	22371
884.646	22470
884.772	22306
884.897	22272
885.023	22306
885.148	22447
885.274	22443
885.399	22447
885.524	22382
885.65	22398
885.775	22287
885.9	22352
886.025	22417
886.15	22360
886.275	22291
886.4	22177
886.525	22291
886.65	22249
886.775	22238
886.9	22424
887.025	22405
887.149	22314
887.274	22242
887.399	22101
887.523	22109
887.648	22013
887.773	22093
887.897	22120
888.021	22196
888.146	22112
888.27	22105
888.395	22105
888.519	22032
888.643	22078
888.767	22093
888.891	22124
889.015	21911
889.139	22032
889.263	21895
889.387	21930
889.511	22090
889.635	21983
889.759	21759
889.883	21915
890.006	21934
890.13	21930
890.254	21774
890.377	21800
890.501	21526
890.624	21603
890.748	21686
890.871	21603
890.995	21424
891.118	21462
891.241	21359
891.364	21397
891.488	21656
891.611	21504
891.734	21466
891.857	21549
891.98	21359
892.103	21519
892.226	21443
892.349	21344
892.471	21252
892.594	21378
892.717	21256
892.839	21348
892.962	21389
893.085	21348
893.207	21298
893.33	21272
893.452	21180
893.575	21344
893.697	21291
893.819	21401
893.941	21530
894.064	21405
894.186	21233
894.308	21268
894.43	21317
894.552	21469
894.674	21272
894.796	21176
894.918	21348
895.04	21260
895.161	21241
895.283	21310
895.405	21169
895.526	21370
895.648	21283
895.769	21226
895.891	21283
896.012	21386
896.134	21340
896.255	21374
896.376	21184
896.498	21363
896.619	21268
896.74	21302
896.861	21370
896.982	21656
897.103	21698
897.224	21583
897.345	21523
897.466	21447
897.587	21515
897.708	21686
897.828	21553
897.949	21523
898.07	21325
898.19	21485
898.311	21534
898.431	21412
898.552	21564
898.672	21572
898.792	21511
898.913	21488
899.033	21363
899.153	21283
899.273	21135
899.393	21165
899.513	21211
899.633	21279
899.753	21313
899.873	21070
899.993	21367
900.113	21329
900.232	21154
900.352	21062
900.472	21047
900.591	20864
900.711	21077
900.83	20826
900.95	21123
901.069	20998
901.189	20811
901.308	20689
901.427	20492
901.546	20587
901.665	20503
901.784	20609
901.904	20263
902.023	20324
902.141	20126
902.26	20126
902.379	20122
902.498	19993
902.617	20020
902.735	20122
902.854	20130
902.973	19947
903.091	19651
903.21	19674
903.328	19780
903.446	19586
903.565	19487
903.683	19487
903.801	19308
903.919	19457
904.038	19369
904.156	19324
904.274	19285
904.392	19221
904.51	19194
904.627	19221
904.745	19263
904.863	19331
904.981	19088
905.098	18829
905.216	18981
905.334	18905
905.451	18905
905.569	18878
905.686	18977
905.803	18905
905.921	18658
906.038	18795
906.155	18658
906.272	18627
906.389	18601
906.506	18532
906.623	18437
906.74	18456
906.857	18330
906.974	18338
907.091	18494
907.208	18566
907.324	18418
907.441	18376
907.557	18224
907.674	18098
907.79	18053
907.907	18019
908.023	18140
908.139	18186
908.256	18228
908.372	17954
908.488	17977
908.604	17923
908.72	17828
908.836	17855
908.952	17859
909.068	17893
909.184	17897
909.3	17756
909.415	17878
909.531	17908
909.647	17627
909.762	17600
909.878	17532
909.993	17585
910.108	17467
910.224	17440
910.339	17486
910.454	17376
910.57	17318
910.685	17269
910.8	17516
910.915	17524
911.03	17303
911.145	17178
911.259	17102
911.374	17140
911.489	17090
911.604	16999
911.718	16824
911.833	16850
911.947	16740
912.062	16744
912.176	16885
912.291	16915
912.405	16930
912.519	16995
912.633	16980
912.748	16828
912.862	16869
912.976	16656
913.09	16489
913.204	16622
913.318	16691
913.431	16675
913.545	16805
913.659	16759
913.772	16542
913.886	16500
914	16413
914.113	16538
914.226	16592
914.34	16546
914.453	16325
914.566	16527
914.68	16306
914.793	16329
914.906	16078
915.019	16109
915.132	16017
915.245	16021
915.358	16063
915.47	16013
915.583	16059
915.696	16055
915.809	16017
915.921	16196
916.034	15964
916.146	15869
916.259	15876
916.371	16101
916.483	15953
916.595	15911
916.708	15831
916.82	15835
916.932	15717
917.044	15907
917.156	15705
917.268	15686
917.38	15694
917.491	15739
917.603	15606
917.715	15724
917.826	15785
917.938	15595
918.049	15488
918.161	15603
918.272	15679
918.384	15618
918.495	15622
918.606	15424
918.717	15389
918.828	15382
918.939	15359
919.05	15344
919.161	15336
919.272	15176
919.383	15310
919.494	15370
919.604	15485
919.715	15382
919.826	15393
919.936	15370
920.047	15370
920.157	15344
920.267	15511
920.378	15408
920.488	15363
920.598	15572
920.708	15580
920.818	15458
920.928	15462
921.038	15591
921.148	15515
921.258	15249
921.368	15294
921.477	15028
921.587	15043
921.697	14910
921.806	15169
921.916	14944
922.025	14743
922.134	14686
922.244	14625
922.353	14587
922.462	14598
922.571	14503
922.68	14336
922.789	14324
922.898	14305
923.007	14256
923.116	14427
923.224	14313
923.333	14263
923.442	14221
923.55	14096
923.659	14164
923.767	14252
923.876	14100
923.984	14084
924.092	14012
924.201	13959
924.309	14096
924.417	13989
924.525	13997
924.633	14027
924.741	14937
924.849	13875
924.956	13906
925.064	13803
925.172	13715
925.279	13791
925.387	13757
925.494	13674
925.602	13940
925.709	13746
925.816	13468
925.924	13582
926.031	13864
926.138	13590
926.245	13715
926.352	13518
926.459	13689
926.566	13700
926.673	13521
926.779	13510
926.886	13445
926.993	13301
927.099	13183
927.206	13247
927.312	13179
927.419	13282
927.525	13194
927.631	13194
927.737	13069
927.843	13061
927.95	12977
928.056	13065
928.162	13015
928.267	13050
928.373	13712
928.479	13076
928.585	12844
928.69	13053
928.796	13008
928.901	12859
929.007	12745
929.112	12810
929.218	12795
929.323	12772
929.428	12753
929.533	12890
929.638	12654
929.743	12635
929.848	12662
929.953	12665
930.058	12597
930.163	12441
930.267	12429
930.372	12517
930.477	12372
930.581	12627
930.685	12540
930.79	12254
930.894	12273
930.998	12171
931.103	12391
931.207	11977
931.311	11901
931.415	11802
931.519	11619
931.623	11562
