Data from test_V78500241_820.txt Node
Date: Fri Mar 25 15:47:28 CST 2022
User: usil
Spectrometer: V785-0024
Trigger mode: 0
Integration Time (sec): 4.000000E-1
Scans to average: 1
Nonlinearity correction enabled: false
Boxcar width: 0
Storing dark spectrum: false
XAxis mode: Wavelengths
Number of Pixels in Spectrum: 1024
>>>>>Begin Spectral Data<<<<<
801.071	27972
801.214	27964
801.356	27724
801.499	27667
801.641	27511
801.783	27538
801.926	27701
802.068	27496
802.211	27485
802.353	27538
802.496	27230
802.638	27211
802.78	27188
802.923	27176
803.065	27119
803.208	27214
803.35	27252
803.492	27340
803.635	27363
803.777	27367
803.919	27351
804.061	27781
804.204	27447
804.346	27275
804.488	27287
804.63	27401
804.773	27272
804.915	27389
805.057	27466
805.199	27523
805.341	27408
805.483	27519
805.626	27488
805.768	27408
805.91	27450
806.052	27549
806.194	27351
806.336	27648
806.478	27507
806.62	27511
806.762	27587
806.904	27774
807.046	27960
807.188	27914
807.33	28025
807.472	27945
807.614	27873
807.756	27869
807.898	27720
808.04	27816
808.182	27804
808.324	27892
808.465	27884
808.607	27964
808.749	28192
808.891	28234
809.033	28356
809.174	28299
809.316	28272
809.458	28169
809.6	28333
809.741	28268
809.883	28249
810.025	28481
810.166	28504
810.308	28519
810.45	28409
810.591	28470
810.733	28272
810.875	28120
811.016	28051
811.158	28139
811.299	28287
811.441	28447
811.582	28466
811.724	28306
811.865	28097
812.007	28207
812.148	28055
812.29	28314
812.431	28253
812.573	28436
812.714	28721
812.855	28656
812.997	28854
813.138	28995
813.279	28809
813.421	28683
813.562	28717
813.703	28634
813.845	28443
813.986	28093
814.127	27941
814.268	27770
814.41	27914
814.551	27774
814.692	28048
814.833	27808
814.974	27865
815.115	28109
815.256	27781
815.397	27720
815.539	27679
815.68	27656
815.821	27542
815.962	27637
816.103	27720
816.244	27614
816.385	27557
816.526	27618
816.666	27287
816.807	27230
816.948	27260
817.089	27275
817.23	27180
817.371	27138
817.512	27211
817.653	27287
817.793	27093
817.934	27169
818.075	27272
818.216	27150
818.356	27203
818.497	26963
818.638	26956
818.778	26872
818.919	26830
819.06	26921
819.2	27104
819.341	27131
819.481	27256
819.622	27401
819.762	27534
819.903	27420
820.043	27504
820.184	27283
820.324	27264
820.465	27336
820.605	27184
820.746	27245
820.886	27256
821.026	27294
821.167	27325
821.307	27313
821.447	27085
821.588	27138
821.728	26956
821.868	26804
822.008	26568
822.149	26655
822.289	26575
822.429	26362
822.569	26412
822.709	26351
822.849	26084
822.99	26263
823.13	26005
823.27	26103
823.41	26054
823.55	25963
823.69	26008
823.83	25921
823.97	25913
824.11	25883
824.25	25662
824.389	25883
824.529	25906
824.669	25860
824.809	25936
824.949	25852
825.089	26031
825.228	25677
825.368	25605
825.508	25586
825.648	25769
825.787	25746
825.927	25753
826.067	25571
826.206	25708
826.346	25712
826.485	25849
826.625	25712
826.765	25708
826.904	25738
827.044	25377
827.183	25499
827.323	25407
827.462	25411
827.601	25457
827.741	25213
827.88	25388
828.02	25304
828.159	25537
828.298	25255
828.437	25449
828.577	25346
828.716	25449
828.855	25350
828.994	25072
829.134	25240
829.273	25107
829.412	25012
829.551	24947
829.69	25057
829.829	24996
829.968	25175
830.107	25069
830.246	25225
830.385	25053
830.524	24973
830.663	24764
830.802	24821
830.941	24639
831.08	24544
831.219	24665
831.357	24734
831.496	24802
831.635	24703
831.774	24540
831.913	24582
832.051	24566
832.19	24616
832.329	24384
832.467	24262
832.606	24281
832.744	24353
832.883	24372
833.022	24327
833.16	24467
833.299	24395
833.437	24334
833.576	24426
833.714	24304
833.852	24422
833.991	24528
834.129	24422
834.267	24460
834.406	24422
834.544	24429
834.682	24330
834.821	24441
834.959	24665
835.097	24388
835.235	24460
835.373	24422
835.511	24311
835.65	24228
835.788	24346
835.926	24311
836.064	24079
836.202	24121
836.34	24361
836.478	24304
836.615	24247
836.753	24262
836.891	24224
837.029	24167
837.167	24171
837.305	24136
837.443	24083
837.58	23996
837.718	24205
837.856	24209
837.993	24194
838.131	24087
838.269	23882
838.406	23927
838.544	23992
838.681	23840
838.819	23718
838.956	23570
839.094	23592
839.231	23665
839.369	23878
839.506	23893
839.643	23745
839.781	23535
839.918	23440
840.055	23524
840.193	23467
840.33	23440
840.467	23554
840.604	23436
840.742	23817
840.879	23436
841.016	23459
841.153	23322
841.29	23589
841.427	23436
841.564	23524
841.701	23444
841.838	23478
841.975	23315
842.112	23296
842.249	23284
842.385	23239
842.522	23395
842.659	23284
842.796	23079
842.933	23280
843.069	23098
843.206	23208
843.343	23235
843.479	23204
843.616	23254
843.752	22946
843.889	23022
844.025	23121
844.162	22961
844.298	23121
844.435	22900
844.571	22869
844.708	23014
844.844	23204
844.98	23090
845.117	23170
845.253	22987
845.389	22820
845.525	22961
845.661	22854
845.798	22854
845.934	22782
846.07	22698
846.206	22805
846.342	22885
846.478	22698
846.614	22519
846.75	22462
846.886	22470
847.022	22542
847.158	22417
847.294	22424
847.429	22405
847.565	22363
847.701	22744
847.837	22112
847.972	22150
848.108	22246
848.244	22322
848.379	22204
848.515	22063
848.65	21991
848.786	22010
848.921	22086
849.057	22192
849.192	22135
849.328	22032
849.463	22067
849.598	21987
849.734	22040
849.869	21873
850.004	21808
850.14	21846
850.275	21911
850.41	21762
850.545	21846
850.68	21785
850.815	21747
850.95	21857
851.085	21831
851.22	21888
851.355	21774
851.49	21835
851.625	21698
851.76	21751
851.895	21641
852.03	21759
852.165	21770
852.299	21934
852.434	21861
852.569	21770
852.703	21793
852.838	21854
852.973	22002
853.107	21918
853.242	21686
853.376	21709
853.511	21504
853.645	21644
853.78	21606
853.914	21667
854.048	21656
854.183	21618
854.317	21633
854.451	21812
854.585	21599
854.72	21572
854.854	21778
854.988	21519
855.122	21675
855.256	21576
855.39	21675
855.524	21644
855.658	21713
855.792	21663
855.926	21766
856.06	21732
856.194	21701
856.327	21622
856.461	21519
856.595	21591
856.729	21698
856.862	21751
856.996	21610
857.13	21835
857.263	21759
857.397	21720
857.53	21622
857.664	21686
857.797	21679
857.931	21785
858.064	21648
858.197	21755
858.331	21732
858.464	21545
858.597	21523
858.731	21405
858.864	21572
858.997	21557
859.13	21526
859.263	21709
859.396	21770
859.529	21473
859.662	21576
859.795	21526
859.928	21572
860.061	21793
860.194	21949
860.327	21709
860.46	21686
860.592	21690
860.725	21819
860.858	21705
860.99	21633
861.123	21557
861.256	21591
861.388	21587
861.521	22314
861.653	21496
861.786	21447
861.918	21485
862.05	21542
862.183	21561
862.315	21614
862.447	21595
862.58	21561
862.712	21351
862.844	21329
862.976	21382
863.108	21428
863.24	21835
863.372	21294
863.504	21359
863.636	21310
863.768	21306
863.9	21306
864.032	21294
864.164	21359
864.296	21424
864.428	21443
864.559	21389
864.691	21325
864.823	21348
864.954	21192
865.086	21321
865.217	21344
865.349	21241
865.48	21188
865.612	21329
865.743	21283
865.875	21161
866.006	21173
866.137	21222
866.269	21214
866.4	21203
866.531	21180
866.662	21123
866.793	21165
866.924	21093
867.055	21237
867.186	21176
867.317	21001
867.448	21051
867.579	21176
867.71	21051
867.841	21001
867.972	21214
868.103	21150
868.233	21230
868.364	21089
868.495	21195
868.625	21401
868.756	21519
868.886	21245
869.017	21397
869.147	21462
869.278	21431
869.408	21454
869.539	21492
869.669	21401
869.799	21511
869.929	21606
870.06	21564
870.19	21747
870.32	21679
870.45	21759
870.58	21785
870.71	21789
870.84	21930
870.97	21759
871.1	21819
871.23	21972
871.36	21964
871.489	21903
871.619	21911
871.749	22059
871.879	22074
872.008	22207
872.138	22021
872.267	22086
872.397	21854
872.526	21804
872.656	21835
872.785	21823
872.915	21968
873.044	22223
873.173	21975
873.303	22063
873.432	22112
873.561	22181
873.69	21998
873.819	22048
873.948	22017
874.077	22097
874.206	22006
874.335	22067
874.464	22116
874.593	22158
874.722	22238
874.851	22211
874.979	22291
875.108	22242
875.237	22299
875.365	22067
875.494	22257
875.623	22230
875.751	22325
875.88	22284
876.008	22299
876.136	22443
876.265	22698
876.393	22828
876.521	22618
876.65	22740
876.778	22702
876.906	22577
877.034	22592
877.162	22641
877.29	22485
877.418	22596
877.546	22622
877.674	22675
877.802	22546
877.93	22508
878.058	22451
878.185	22413
878.313	22542
878.441	22664
878.568	22379
878.696	22554
878.824	22641
878.951	22660
879.079	22698
879.206	22881
879.333	22767
879.461	22710
879.588	22691
879.715	22793
879.842	22927
879.97	22656
880.097	22443
880.224	22402
880.351	22455
880.478	22451
880.605	22421
880.732	22306
880.859	22710
880.986	22310
881.112	22390
881.239	22299
881.366	22173
881.493	22101
881.619	22040
881.746	22032
881.872	22013
881.999	21918
882.125	21880
882.252	22017
882.378	21953
882.505	22013
882.631	21838
882.757	21637
882.883	21641
883.01	21679
883.136	21641
883.262	21572
883.388	21473
883.514	21675
883.64	21804
883.766	21507
883.892	21477
884.018	21496
884.143	21572
884.269	21743
884.395	21313
884.52	21306
884.646	21336
884.772	21325
884.897	21176
885.023	21287
885.148	21428
885.274	21325
885.399	21382
885.524	21317
885.65	21367
885.775	21363
885.9	21230
886.025	21386
886.15	21416
886.275	21230
886.4	21192
886.525	21329
886.65	21268
886.775	21291
886.9	21336
887.025	21488
887.149	21237
887.274	21036
887.399	21058
887.523	21081
887.648	20998
887.773	20948
887.897	21081
888.021	21127
888.146	20933
888.27	21024
888.395	21161
888.519	21051
888.643	21112
888.767	21180
888.891	21032
889.015	20864
889.139	20906
889.263	20887
889.387	21062
889.511	21081
889.635	21024
889.759	20895
889.883	20758
890.006	20921
890.13	20941
890.254	20781
890.377	20891
890.501	20655
890.624	20659
890.748	20853
890.871	20590
890.995	20412
891.118	20396
891.241	20564
891.364	20419
891.488	20366
891.611	20298
891.734	20461
891.857	20400
891.98	20419
892.103	20438
892.226	20450
892.349	20465
892.471	20324
892.594	20415
892.717	20355
892.839	20320
892.962	20431
893.085	20484
893.207	20271
893.33	20229
893.452	20305
893.575	20362
893.697	20256
893.819	20552
893.941	20511
894.064	20461
894.186	20324
894.308	20183
894.43	20503
894.552	20495
894.674	20492
894.796	20221
894.918	20278
895.04	20195
895.161	20423
895.283	20317
895.405	20355
895.526	20240
895.648	20351
895.769	20404
895.891	20339
896.012	20290
896.134	20343
896.255	20328
896.376	20267
896.498	20256
896.619	20362
896.74	20256
896.861	20324
896.982	20621
897.103	20762
897.224	20568
897.345	20613
897.466	20492
897.587	20579
897.708	20636
897.828	20583
897.949	20503
898.07	20419
898.19	20575
898.311	20579
898.431	20541
898.552	20552
898.672	20670
898.792	20659
898.913	20469
899.033	20476
899.153	20358
899.273	20221
899.393	20286
899.513	20393
899.633	20286
899.753	20370
899.873	20244
899.993	20301
900.113	20176
900.232	20248
900.352	20206
900.472	20058
900.591	19978
900.711	20115
900.83	20043
900.95	20195
901.069	20046
901.189	19974
901.308	19753
901.427	19639
901.546	19578
901.665	19704
901.784	19514
901.904	19453
902.023	19419
902.141	19259
902.26	19228
902.379	19190
902.498	19232
902.617	19236
902.735	19190
902.854	19171
902.973	19110
903.091	18886
903.21	18787
903.328	18833
903.446	18711
903.565	18597
903.683	18521
903.801	18494
903.919	18456
904.038	18570
904.156	18433
904.274	18563
904.392	18346
904.51	18403
904.627	18376
904.745	18448
904.863	18452
904.981	18232
905.098	18064
905.216	18041
905.334	18015
905.451	18045
905.569	18022
905.686	18098
905.803	18011
905.921	17866
906.038	17912
906.155	17851
906.272	17836
906.389	17840
906.506	17611
906.623	17570
906.74	17554
906.857	17391
906.974	17444
907.091	17672
907.208	17691
907.324	17657
907.441	17585
907.557	17296
907.674	17307
907.79	17250
907.907	17288
908.023	17261
908.139	17326
908.256	17265
908.372	17280
908.488	17151
908.604	17006
908.72	16923
908.836	17113
908.952	16991
909.068	16957
909.184	17113
909.3	17113
909.415	17132
909.531	17075
909.647	16725
909.762	16752
909.878	16736
909.993	16679
910.108	16767
910.224	16683
910.339	16710
910.454	16637
910.57	16577
910.685	16523
910.8	16843
910.915	16637
911.03	16451
911.145	16367
911.259	16333
911.374	16417
911.489	16253
911.604	16185
911.718	16120
911.833	16097
911.947	15987
912.062	15934
912.176	16139
912.291	16177
912.405	16006
912.519	16219
912.633	16211
912.748	16120
912.862	16013
912.976	15903
913.09	15865
913.204	15770
913.318	15949
913.431	15941
913.545	15987
913.659	15842
913.772	15797
913.886	15759
914	15481
914.113	15823
914.226	15755
914.34	15781
914.453	15591
914.566	15698
914.68	15500
914.793	15610
914.906	15336
915.019	15348
915.132	15195
915.245	15336
915.358	15283
915.47	15344
915.583	15298
915.696	15302
915.809	15397
915.921	15332
916.034	15245
916.146	15135
916.259	15108
916.371	15241
916.483	15123
916.595	15055
916.708	15176
916.82	15138
916.932	15169
917.044	15024
917.156	15074
917.268	14944
917.38	14979
917.491	14891
917.603	14895
917.715	15043
917.826	15043
917.938	14838
918.049	14758
918.161	14910
918.272	14963
918.384	14975
918.495	14906
918.606	14735
918.717	14590
918.828	14811
918.939	14667
919.05	14640
919.161	14625
919.272	14541
919.383	14571
919.494	14750
919.604	14785
919.715	14727
919.826	14545
919.936	14564
920.047	14693
920.157	14674
920.267	14845
920.378	14682
920.488	14629
920.598	14758
920.708	14914
920.818	14708
920.928	14644
921.038	14990
921.148	14880
921.258	14648
921.368	14514
921.477	14294
921.587	14522
921.697	14233
921.806	14396
921.916	14218
922.025	14084
922.134	14027
922.244	14092
922.353	14096
922.462	13913
922.571	13814
922.68	13753
922.789	13616
922.898	13643
923.007	13681
923.116	13841
923.224	13609
923.333	13677
923.442	13571
923.55	13419
923.659	13499
923.767	13590
923.876	13521
923.984	13556
924.092	13316
924.201	13407
924.309	13460
924.417	13441
924.525	13339
924.633	13316
924.741	14271
924.849	13160
924.956	13133
925.064	13095
925.172	13107
925.279	13145
925.387	12916
925.494	13099
925.602	13225
925.709	13080
925.816	13004
925.924	13053
926.031	13019
926.138	13057
926.245	13050
926.352	12920
926.459	13042
926.566	13149
926.673	12951
926.779	12852
926.886	12859
926.993	12768
927.099	12696
927.206	12616
927.312	12506
927.419	12582
927.525	12677
927.631	12673
927.737	12563
927.843	12479
927.95	12437
928.056	12452
928.162	12426
928.267	12490
928.373	13141
928.479	12559
928.585	12216
928.69	12498
928.796	12346
928.901	12334
929.007	12087
929.112	12338
929.218	12330
929.323	12194
929.428	12175
929.533	12296
929.638	12068
929.743	12148
929.848	12136
929.953	12110
930.058	12057
930.163	11870
930.267	11939
930.372	11992
930.477	11817
930.581	12022
930.685	11859
930.79	11729
930.894	11866
930.998	11741
931.103	11783
931.207	11512
931.311	11383
931.415	11315
931.519	11193
931.623	11056
