Data from test_V78500241_1931.txt Node
Date: Fri Mar 25 15:55:10 CST 2022
User: usil
Spectrometer: V785-0024
Trigger mode: 0
Integration Time (sec): 4.000000E-1
Scans to average: 1
Nonlinearity correction enabled: false
Boxcar width: 0
Storing dark spectrum: false
XAxis mode: Wavelengths
Number of Pixels in Spectrum: 1024
>>>>>Begin Spectral Data<<<<<
801.071	28554
801.214	28546
801.356	28219
801.499	28242
801.641	28097
801.783	28044
801.926	28185
802.068	28109
802.211	28051
802.353	28116
802.496	27873
802.638	27789
802.78	27656
802.923	27873
803.065	27751
803.208	27854
803.35	27816
803.492	27907
803.635	28051
803.777	28040
803.919	27960
804.061	28246
804.204	27991
804.346	28120
804.488	27838
804.63	27914
804.773	27930
804.915	28002
805.057	28173
805.199	28013
805.341	28078
805.483	28246
805.626	28200
805.768	28067
805.91	28215
806.052	28291
806.194	27968
806.336	28322
806.478	28238
806.62	28207
806.762	28196
806.904	28417
807.046	28854
807.188	28748
807.33	28554
807.472	28679
807.614	28569
807.756	28596
807.898	28554
808.04	28421
808.182	28451
808.324	28573
808.465	28512
808.607	28748
808.749	28892
808.891	28896
809.033	28968
809.174	29010
809.316	28919
809.458	28729
809.6	28896
809.741	28873
809.883	29044
810.025	29117
810.166	29170
810.308	29162
810.45	29086
810.591	29212
810.733	28881
810.875	28839
811.016	28752
811.158	28759
811.299	28968
811.441	29083
811.582	29064
811.724	28934
811.865	28710
812.007	28866
812.148	28911
812.29	28908
812.431	29025
812.573	29147
812.714	29269
812.855	29417
812.997	29391
813.138	29649
813.279	29493
813.421	29440
813.562	29429
813.703	29162
813.845	29029
813.986	28866
814.127	28710
814.268	28462
814.41	28660
814.551	28557
814.692	28634
814.833	28500
814.974	28588
815.115	28573
815.256	28455
815.397	28538
815.539	28436
815.68	28287
815.821	28226
815.962	28455
816.103	28337
816.244	28120
816.385	28128
816.526	28059
816.666	27964
816.807	27918
816.948	28006
817.089	27968
817.23	27972
817.371	27857
817.512	27827
817.653	27808
817.793	27762
817.934	27869
818.075	28040
818.216	27861
818.356	27637
818.497	27774
818.638	27583
818.778	27557
818.919	27671
819.06	27644
819.2	27797
819.341	27873
819.481	27804
819.622	28029
819.762	28265
819.903	28158
820.043	28128
820.184	27949
820.324	27941
820.465	28021
820.605	28048
820.746	28013
820.886	27739
821.026	27899
821.167	27922
821.307	28032
821.447	28017
821.588	27926
821.728	27610
821.868	27587
822.008	27283
822.149	27214
822.289	27348
822.429	27180
822.569	27081
822.709	26918
822.849	26845
822.99	26796
823.13	26853
823.27	26727
823.41	26750
823.55	26465
823.69	26701
823.83	26765
823.97	26674
824.11	26556
824.25	26499
824.389	26438
824.529	26511
824.669	26571
824.809	26720
824.949	26549
825.089	26549
825.228	26480
825.368	26389
825.508	26324
825.648	26336
825.787	26347
825.927	26415
826.067	26244
826.206	26351
826.346	26438
826.485	26492
826.625	26286
826.765	26579
826.904	26412
827.044	26370
827.183	26172
827.323	26058
827.462	26145
827.601	26134
827.741	26153
827.88	26221
828.02	26058
828.159	26081
828.298	26210
828.437	26119
828.577	25890
828.716	26183
828.855	26069
828.994	25936
829.134	25712
829.273	25795
829.412	25830
829.551	25647
829.69	25731
829.829	25674
829.968	25902
830.107	25898
830.246	25750
830.385	25597
830.524	25632
830.663	25601
830.802	25499
830.941	25384
831.08	25419
831.219	25559
831.357	25464
831.496	25578
831.635	25343
831.774	25240
831.913	25324
832.051	25126
832.19	25175
832.329	25198
832.467	24954
832.606	25019
832.744	25031
832.883	25076
833.022	24977
833.16	25031
833.299	25141
833.437	25061
833.576	25221
833.714	25156
833.852	25072
833.991	25107
834.129	25065
834.267	25107
834.406	25114
834.544	25270
834.682	25114
834.821	25122
834.959	25190
835.097	25152
835.235	25156
835.373	25023
835.511	25183
835.65	25031
835.788	24920
835.926	24825
836.064	24738
836.202	24848
836.34	24894
836.478	25137
836.615	24856
836.753	25019
836.891	24951
837.029	24992
837.167	24817
837.305	24878
837.443	24837
837.58	24802
837.718	24817
837.856	24700
837.993	24741
838.131	24715
838.269	24566
838.406	24627
838.544	24585
838.681	24357
838.819	24232
838.956	24152
839.094	24281
839.231	24285
839.369	24338
839.506	24544
839.643	24623
839.781	24140
839.918	24125
840.055	24258
840.193	24247
840.33	24163
840.467	24163
840.604	24194
840.742	24342
840.879	24083
841.016	24022
841.153	23996
841.29	24197
841.427	24038
841.564	24258
841.701	24072
841.838	24152
841.975	23992
842.112	23988
842.249	24030
842.385	23916
842.522	24102
842.659	23946
842.796	23802
842.933	23745
843.069	23847
843.206	23771
843.343	23927
843.479	23935
843.616	23912
843.752	23794
843.889	23745
844.025	23904
844.162	23661
844.298	23646
844.435	23665
844.571	23764
844.708	23733
844.844	23756
844.98	23729
845.117	23756
845.253	23623
845.389	23554
845.525	23478
845.661	23493
845.798	23364
845.934	23566
846.07	23406
846.206	23334
846.342	23554
846.478	23406
846.614	23170
846.75	23014
846.886	23090
847.022	23181
847.158	23098
847.294	23109
847.429	23166
847.565	23060
847.701	23345
847.837	22885
847.972	22927
848.108	23033
848.244	22949
848.379	22809
848.515	22664
848.65	22721
848.786	22550
848.921	22710
849.057	22809
849.192	22622
849.328	22668
849.463	22748
849.598	22793
849.734	22637
849.869	22550
850.004	22531
850.14	22580
850.275	22637
850.41	22333
850.545	22333
850.68	22398
850.815	22409
850.95	22493
851.085	22569
851.22	22592
851.355	22382
851.49	22371
851.625	22386
851.76	22421
851.895	22417
852.03	22356
852.165	22485
852.299	22485
852.434	22474
852.569	22417
852.703	22443
852.838	22546
852.973	22462
853.107	22447
853.242	22470
853.376	22440
853.511	22246
853.645	22223
853.78	22394
853.914	22291
854.048	22276
854.183	22211
854.317	22169
854.451	22356
854.585	22322
854.72	22325
854.854	22421
854.988	22204
855.122	22352
855.256	22135
855.39	22284
855.524	22322
855.658	22436
855.792	22280
855.926	22268
856.06	22382
856.194	22402
856.327	22226
856.461	22173
856.595	22177
856.729	22223
856.862	22405
856.996	22295
857.13	22329
857.263	22318
857.397	22489
857.53	22287
857.664	22310
857.797	22367
857.931	22398
858.064	22272
858.197	22333
858.331	22200
858.464	22211
858.597	22280
858.731	22215
858.864	22280
858.997	22238
859.13	22261
859.263	22192
859.396	22409
859.529	22295
859.662	22124
859.795	22333
859.928	22287
860.061	22428
860.194	22409
860.327	22333
860.46	22409
860.592	22440
860.725	22455
860.858	22402
860.99	22341
861.123	22162
861.256	22097
861.388	22295
861.521	23140
861.653	22147
861.786	22025
861.918	22120
862.05	22101
862.183	22105
862.315	22242
862.447	22280
862.58	22188
862.712	21979
862.844	22044
862.976	22048
863.108	22093
863.24	22432
863.372	21994
863.504	21956
863.636	21968
863.768	22017
863.9	21983
864.032	21922
864.164	21983
864.296	21934
864.428	22223
864.559	21968
864.691	22021
864.823	22010
864.954	22093
865.086	21842
865.217	21835
865.349	21835
865.48	21922
865.612	21739
865.743	21998
865.875	21831
866.006	21869
866.137	21918
866.269	21960
866.4	21945
866.531	21739
866.662	21690
866.793	21789
866.924	21956
867.055	21823
867.186	21808
867.317	21842
867.448	21648
867.579	21831
867.71	21633
867.841	21694
867.972	21785
868.103	21899
868.233	21781
868.364	21800
868.495	21827
868.625	21983
868.756	22188
868.886	21941
869.017	22093
869.147	22055
869.278	22048
869.408	22044
869.539	22082
869.669	22021
869.799	22226
869.929	22101
870.06	22207
870.19	22409
870.32	22299
870.45	22253
870.58	22356
870.71	22584
870.84	22481
870.97	22470
871.1	22440
871.23	22622
871.36	22546
871.489	22668
871.619	22649
871.749	22618
871.879	22748
872.008	22752
872.138	22626
872.267	22653
872.397	22451
872.526	22466
872.656	22535
872.785	22489
872.915	22694
873.044	22721
873.173	22698
873.303	22702
873.432	22759
873.561	22710
873.69	22653
873.819	22721
873.948	22786
874.077	22668
874.206	22554
874.335	22649
874.464	22725
874.593	22778
874.722	22717
874.851	22858
874.979	22885
875.108	23067
875.237	22733
875.365	22885
875.494	22927
875.623	22900
875.751	22896
875.88	22900
876.008	22995
876.136	23018
876.265	23368
876.393	23353
876.521	23231
876.65	23239
876.778	23265
876.906	23208
877.034	23356
877.162	23284
877.29	23288
877.418	23269
877.546	23086
877.674	23147
877.802	23235
877.93	23090
878.058	23200
878.185	23113
878.313	23162
878.441	23105
878.568	22881
878.696	23128
878.824	23117
878.951	23372
879.079	23391
879.206	23516
879.333	23471
879.461	23212
879.588	23280
879.715	23421
879.842	23429
879.97	23258
880.097	23064
880.224	23025
880.351	23220
880.478	23060
880.605	22991
880.732	23143
880.859	23330
880.986	23033
881.112	23018
881.239	22896
881.366	22679
881.493	22687
881.619	22649
881.746	22641
881.872	22626
881.999	22603
882.125	22546
882.252	22675
882.378	22493
882.505	22759
882.631	22489
882.757	22310
882.883	22394
883.01	22257
883.136	22230
883.262	22131
883.388	22002
883.514	22238
883.64	22329
883.766	22299
883.892	22109
884.018	22086
884.143	22215
884.269	22230
884.395	21892
884.52	22070
884.646	21968
884.772	21903
884.897	21865
885.023	21846
885.148	21930
885.274	22036
885.399	22010
885.524	21880
885.65	21960
885.775	21907
885.9	21903
886.025	22036
886.15	21930
886.275	21869
886.4	21808
886.525	21705
886.65	21876
886.775	21732
886.9	22036
887.025	22128
887.149	21846
887.274	21614
887.399	21739
887.523	21743
887.648	21698
887.773	21606
887.897	21667
888.021	21686
888.146	21660
888.27	21789
888.395	21823
888.519	21717
888.643	21679
888.767	21800
888.891	21561
889.015	21439
889.139	21504
889.263	21458
889.387	21507
889.511	21614
889.635	21599
889.759	21428
889.883	21530
890.006	21511
890.13	21549
890.254	21336
890.377	21462
890.501	21283
890.624	21233
890.748	21207
890.871	21093
890.995	21089
891.118	20975
891.241	20975
891.364	21020
891.488	21180
891.611	21123
891.734	21032
891.857	21032
891.98	21017
892.103	20948
892.226	21112
892.349	20914
892.471	20868
892.594	20861
892.717	20975
892.839	20910
892.962	20941
893.085	21009
893.207	20906
893.33	20727
893.452	20708
893.575	20910
893.697	20849
893.819	21058
893.941	21108
894.064	21043
894.186	20834
894.308	20830
894.43	20963
894.552	21062
894.674	20880
894.796	20823
894.918	20887
895.04	20705
895.161	21020
895.283	20868
895.405	20811
895.526	20902
895.648	20887
895.769	20948
895.891	20834
896.012	21020
896.134	20910
896.255	20811
896.376	20937
896.498	20826
896.619	20944
896.74	20807
896.861	20902
896.982	21142
897.103	21367
897.224	21176
897.345	21211
897.466	21039
897.587	21108
897.708	21173
897.828	21081
897.949	21028
898.07	20967
898.19	21039
898.311	21176
898.431	20929
898.552	21157
898.672	21188
898.792	21146
898.913	21032
899.033	20982
899.153	20944
899.273	20739
899.393	20921
899.513	20819
899.633	20815
899.753	20807
899.873	20823
899.993	20838
900.113	20629
900.232	20739
900.352	20773
900.472	20636
900.591	20678
900.711	20625
900.83	20530
900.95	20705
901.069	20765
901.189	20518
901.308	20298
901.427	20206
901.546	20259
901.665	20202
901.784	20221
901.904	20134
902.023	20031
902.141	19772
902.26	19719
902.379	19757
902.498	19651
902.617	19700
902.735	19658
902.854	19639
902.973	19628
903.091	19289
903.21	19320
903.328	19365
903.446	19343
903.565	19198
903.683	19228
903.801	19019
903.919	19137
904.038	19046
904.156	19034
904.274	19031
904.392	18890
904.51	18878
904.627	18890
904.745	19012
904.863	19038
904.981	18677
905.098	18547
905.216	18570
905.334	18703
905.451	18608
905.569	18509
905.686	18559
905.803	18551
905.921	18270
906.038	18479
906.155	18372
906.272	18251
906.389	18239
906.506	18140
906.623	18091
906.74	18125
906.857	17939
906.974	17916
907.091	18224
907.208	18243
907.324	18167
907.441	17939
907.557	17798
907.674	17783
907.79	17687
907.907	17703
908.023	17748
908.139	17726
908.256	17912
908.372	17608
908.488	17741
908.604	17486
908.72	17570
908.836	17490
908.952	17429
909.068	17501
909.184	17539
909.3	17471
909.415	17585
909.531	17436
909.647	17212
909.762	17227
909.878	17212
909.993	17193
910.108	17227
910.224	17189
910.339	17265
910.454	17006
910.57	17064
910.685	16987
910.8	17231
910.915	17200
911.03	16930
911.145	16850
911.259	16698
911.374	16828
911.489	16744
911.604	16725
911.718	16493
911.833	16512
911.947	16405
912.062	16413
912.176	16523
912.291	16550
912.405	16565
912.519	16634
912.633	16710
912.748	16611
912.862	16428
912.976	16375
913.09	16261
913.204	16276
913.318	16303
913.431	16455
913.545	16436
913.659	16443
913.772	16226
913.886	16131
914	16154
914.113	16086
914.226	16169
914.34	16253
914.453	16010
914.566	16128
914.68	16082
914.793	15926
914.906	15892
915.019	15720
915.132	15701
915.245	15625
915.358	15785
915.47	15690
915.583	15724
915.696	15675
915.809	15774
915.921	15903
916.034	15648
916.146	15622
916.259	15736
916.371	15603
916.483	15690
916.595	15519
916.708	15386
916.82	15492
916.932	15606
917.044	15523
917.156	15466
917.268	15241
917.38	15393
917.491	15336
917.603	15332
917.715	15408
917.826	15367
917.938	15218
918.049	15230
918.161	15272
918.272	15443
918.384	15412
918.495	15329
918.606	15180
918.717	15017
918.828	15142
918.939	15127
919.05	14929
919.161	15058
919.272	14845
919.383	14967
919.494	15154
919.604	15302
919.715	15062
919.826	15058
919.936	14994
920.047	15131
920.157	15062
920.267	15264
920.378	15055
920.488	15097
920.598	15237
920.708	15340
920.818	15108
920.928	15180
921.038	15283
921.148	15218
921.258	14933
921.368	14883
921.477	14796
921.587	14785
921.697	14644
921.806	14792
921.916	14625
922.025	14480
922.134	14412
922.244	14480
922.353	14427
922.462	14309
922.571	14298
922.68	14043
922.789	14180
922.898	14096
923.007	13982
923.116	14069
923.224	14069
923.333	14020
923.442	13913
923.55	13887
923.659	13917
923.767	13989
923.876	13788
923.984	13906
924.092	13761
924.201	13826
924.309	13715
924.417	13772
924.525	13780
924.633	13685
924.741	14651
924.849	13525
924.956	13655
925.064	13506
925.172	13350
925.279	13518
925.387	13468
925.494	13407
925.602	13506
925.709	13468
925.816	13434
925.924	13468
926.031	13575
926.138	13396
926.245	13438
926.352	13240
926.459	13312
926.566	13400
926.673	13168
926.779	13091
926.886	13255
926.993	12996
927.099	12977
927.206	13046
927.312	12920
927.419	12928
927.525	12935
927.631	12958
927.737	12886
927.843	12905
927.95	12627
928.056	12802
928.162	12806
928.267	12734
928.373	13464
928.479	12821
928.585	12566
928.69	12677
928.796	12741
928.901	12570
929.007	12464
929.112	12601
929.218	12601
929.323	12563
929.428	12547
929.533	12604
929.638	12448
929.743	12365
929.848	12525
929.953	12448
930.058	12403
930.163	12251
930.267	12205
930.372	12376
930.477	12144
930.581	12372
930.685	12209
930.79	12136
930.894	12140
930.998	12007
931.103	12175
931.207	11756
931.311	11684
931.415	11657
931.519	11440
931.623	11391
