Data from test_V78500241_2214.txt Node
Date: Fri Mar 25 15:57:08 CST 2022
User: usil
Spectrometer: V785-0024
Trigger mode: 0
Integration Time (sec): 4.000000E-1
Scans to average: 1
Nonlinearity correction enabled: false
Boxcar width: 0
Storing dark spectrum: false
XAxis mode: Wavelengths
Number of Pixels in Spectrum: 1024
>>>>>Begin Spectral Data<<<<<
801.071	28763
801.214	28721
801.356	28656
801.499	28436
801.641	28344
801.783	28421
801.926	28565
802.068	28455
802.211	28428
802.353	28348
802.496	28185
802.638	28166
802.78	28025
802.923	28116
803.065	28051
803.208	28105
803.35	28135
803.492	28207
803.635	28284
803.777	28265
803.919	28382
804.061	28752
804.204	28493
804.346	28257
804.488	28219
804.63	28401
804.773	28268
804.915	28466
805.057	28607
805.199	28405
805.341	28371
805.483	28607
805.626	28561
805.768	28466
805.91	28634
806.052	28611
806.194	28459
806.336	28717
806.478	28466
806.62	28443
806.762	28656
806.904	28771
807.046	28968
807.188	28782
807.33	28972
807.472	28965
807.614	28892
807.756	28961
807.898	28801
808.04	28721
808.182	28729
808.324	28957
808.465	28972
808.607	29090
808.749	29162
808.891	29220
809.033	29467
809.174	29334
809.316	29185
809.458	29250
809.6	29128
809.741	29383
809.883	29436
810.025	29467
810.166	29524
810.308	29433
810.45	29421
810.591	29326
810.733	29315
810.875	29223
811.016	29265
811.158	29086
811.299	29303
811.441	29402
811.582	29471
811.724	29212
811.865	29292
812.007	29132
812.148	29189
812.29	29296
812.431	29402
812.573	29417
812.714	29577
812.855	29805
812.997	29939
813.138	30018
813.279	29889
813.421	29794
813.562	29783
813.703	29570
813.845	29387
813.986	29155
814.127	28980
814.268	29056
814.41	28790
814.551	28831
814.692	28946
814.833	28831
814.974	28919
815.115	28999
815.256	28858
815.397	28873
815.539	28824
815.68	28831
815.821	28691
815.962	28664
816.103	28729
816.244	28634
816.385	28516
816.526	28554
816.666	28234
816.807	28272
816.948	28341
817.089	28318
817.23	28322
817.371	28219
817.512	28162
817.653	28310
817.793	28322
817.934	28303
818.075	28242
818.216	28150
818.356	28299
818.497	28143
818.638	27949
818.778	28032
818.919	28032
819.06	28025
819.2	28105
819.341	28215
819.481	28261
819.622	28390
819.762	28626
819.903	28577
820.043	28573
820.184	28478
820.324	28455
820.465	28390
820.605	28455
820.746	28497
820.886	28276
821.026	28310
821.167	28318
821.307	28481
821.447	28234
821.588	28181
821.728	28082
821.868	27979
822.008	27781
822.149	27698
822.289	27823
822.429	27618
822.569	27340
822.709	27344
822.849	27310
822.99	27321
823.13	27279
823.27	27249
823.41	27150
823.55	27020
823.69	27138
823.83	27047
823.97	27127
824.11	26788
824.25	26777
824.389	26864
824.529	27055
824.669	26952
824.809	27176
824.949	26929
825.089	27089
825.228	27028
825.368	26788
825.508	26971
825.648	26804
825.787	26796
825.927	26876
826.067	26693
826.206	26697
826.346	26781
826.485	26956
826.625	26819
826.765	27001
826.904	26891
827.044	26701
827.183	26644
827.323	26564
827.462	26629
827.601	26625
827.741	26419
827.88	26621
828.02	26533
828.159	26465
828.298	26545
828.437	26788
828.577	26408
828.716	26663
828.855	26530
828.994	26328
829.134	26351
829.273	26237
829.412	26115
829.551	26103
829.69	26115
829.829	26153
829.968	26172
830.107	26229
830.246	26271
830.385	26244
830.524	26145
830.663	26024
830.802	25879
830.941	25803
831.08	25852
831.219	26005
831.357	26012
831.496	26020
831.635	25776
831.774	25727
831.913	25655
832.051	25746
832.19	25712
832.329	25635
832.467	25449
832.606	25529
832.744	25415
832.883	25563
833.022	25396
833.16	25521
833.299	25575
833.437	25464
833.576	25537
833.714	25620
833.852	25643
833.991	25525
834.129	25704
834.267	25616
834.406	25597
834.544	25518
834.682	25643
834.821	25552
834.959	25685
835.097	25411
835.235	25647
835.373	25525
835.511	25559
835.65	25457
835.788	25350
835.926	25228
836.064	25213
836.202	25251
836.34	25460
836.478	25525
836.615	25255
836.753	25449
836.891	25518
837.029	25362
837.167	25358
837.305	25362
837.443	25217
837.58	25278
837.718	25324
837.856	25129
837.993	25282
838.131	25053
838.269	25133
838.406	25141
838.544	25061
838.681	24916
838.819	24734
838.956	24734
839.094	24559
839.231	24840
839.369	24768
839.506	25031
839.643	24905
839.781	24570
839.918	24665
840.055	24711
840.193	24608
840.33	24620
840.467	24703
840.604	24570
840.742	24852
840.879	24399
841.016	24528
841.153	24441
841.29	24719
841.427	24486
841.564	24414
841.701	24513
841.838	24490
841.975	24414
842.112	24475
842.249	24403
842.385	24315
842.522	24544
842.659	24403
842.796	24380
842.933	24376
843.069	24300
843.206	24171
843.343	24365
843.479	24448
843.616	24380
843.752	24102
843.889	24121
844.025	24114
844.162	24034
844.298	24213
844.435	24095
844.571	24129
844.708	24140
844.844	24133
844.98	24133
845.117	24186
845.253	24068
845.389	23992
845.525	23927
845.661	23973
845.798	23840
845.934	23794
846.07	23866
846.206	23908
846.342	23764
846.478	23805
846.614	23608
846.75	23490
846.886	23592
847.022	23592
847.158	23585
847.294	23608
847.429	23615
847.565	23410
847.701	23737
847.837	23269
847.972	23258
848.108	23440
848.244	23356
848.379	23166
848.515	23052
848.65	23060
848.786	23067
848.921	23178
849.057	23258
849.192	23204
849.328	23299
849.463	23239
849.598	23113
849.734	22980
849.869	22957
850.004	22927
850.14	22927
850.275	23006
850.41	22755
850.545	22847
850.68	22847
850.815	22953
850.95	22915
851.085	23033
851.22	22991
851.355	22938
851.49	22965
851.625	22999
851.76	22908
851.895	22801
852.03	22828
852.165	22930
852.299	22946
852.434	22976
852.569	22904
852.703	22877
852.838	22961
852.973	23079
853.107	22980
853.242	22824
853.376	22744
853.511	22694
853.645	22630
853.78	22877
853.914	22809
854.048	22771
854.183	22504
854.317	22672
854.451	23052
854.585	22687
854.72	22649
854.854	22679
854.988	22710
855.122	22672
855.256	22672
855.39	22759
855.524	22812
855.658	22721
855.792	22653
855.926	22634
856.06	22831
856.194	22839
856.327	22637
856.461	22672
856.595	22618
856.729	22797
856.862	22790
856.996	22755
857.13	22748
857.263	22812
857.397	22755
857.53	22713
857.664	22679
857.797	22885
857.931	22744
858.064	22748
858.197	22778
858.331	22691
858.464	22721
858.597	22630
858.731	22626
858.864	22672
858.997	22729
859.13	22733
859.263	22729
859.396	22797
859.529	22675
859.662	22694
859.795	22611
859.928	22622
860.061	22786
860.194	22919
860.327	22873
860.46	22752
860.592	22759
860.725	22908
860.858	22805
860.99	22668
861.123	22653
861.256	22611
861.388	22736
861.521	23406
861.653	22626
861.786	22478
861.918	22527
862.05	22584
862.183	22713
862.315	22641
862.447	22660
862.58	22535
862.712	22382
862.844	22500
862.976	22512
863.108	22428
863.24	22869
863.372	22356
863.504	22459
863.636	22535
863.768	22481
863.9	22360
864.032	22386
864.164	22443
864.296	22329
864.428	22504
864.559	22432
864.691	22421
864.823	22493
864.954	22375
865.086	22421
865.217	22329
865.349	22215
865.48	22348
865.612	22333
865.743	22447
865.875	22409
866.006	22234
866.137	22405
866.269	22291
866.4	22230
866.531	22177
866.662	22116
866.793	22211
866.924	22143
867.055	22261
867.186	22230
867.317	22169
867.448	22097
867.579	22291
867.71	22093
867.841	22025
867.972	22166
868.103	22147
868.233	22249
868.364	22226
868.495	22329
868.625	22314
868.756	22557
868.886	22360
869.017	22421
869.147	22466
869.278	22603
869.408	22455
869.539	22550
869.669	22664
869.799	22447
869.929	22508
870.06	22565
870.19	22816
870.32	22786
870.45	22900
870.58	22755
870.71	22946
870.84	22877
870.97	22801
871.1	22892
871.23	23006
871.36	22999
871.489	23025
871.619	23090
871.749	23025
871.879	22991
872.008	23185
872.138	23079
872.267	23052
872.397	22911
872.526	22896
872.656	22919
872.785	22927
872.915	23136
873.044	23121
873.173	23113
873.303	23159
873.432	22972
873.561	23216
873.69	23124
873.819	23003
873.948	23006
874.077	22995
874.206	22995
874.335	23010
874.464	23223
874.593	23296
874.722	23254
874.851	23223
874.979	23330
875.108	23322
875.237	23322
875.365	23181
875.494	23254
875.623	23341
875.751	23284
875.88	23402
876.008	23410
876.136	23455
876.265	23665
876.393	23661
876.521	23756
876.65	23722
876.778	23596
876.906	23611
877.034	23459
877.162	23589
877.29	23501
877.418	23570
877.546	23623
877.674	23600
877.802	23592
877.93	23600
878.058	23619
878.185	23570
878.313	23581
878.441	23551
878.568	23337
878.696	23566
878.824	23558
878.951	23649
879.079	23756
879.206	23969
879.333	23843
879.461	23600
879.588	23608
879.715	23661
879.842	23912
879.97	23646
880.097	23410
880.224	23402
880.351	23524
880.478	23406
880.605	23414
880.732	23379
880.859	23661
880.986	23376
881.112	23474
881.239	23246
881.366	23242
881.493	23113
881.619	22953
881.746	23033
881.872	23003
881.999	22984
882.125	22805
882.252	23079
882.378	22953
882.505	23025
882.631	22869
882.757	22584
882.883	22740
883.01	22706
883.136	22557
883.262	22512
883.388	22405
883.514	22660
883.64	22736
883.766	22637
883.892	22409
884.018	22440
884.143	22527
884.269	22603
884.395	22318
884.52	22223
884.646	22356
884.772	22158
884.897	22234
885.023	22310
885.148	22459
885.274	22462
885.399	22409
885.524	22394
885.65	22318
885.775	22238
885.9	22226
886.025	22474
886.15	22379
886.275	22219
886.4	22207
886.525	22196
886.65	22188
886.775	22181
886.9	22371
887.025	22535
887.149	22276
887.274	22036
887.399	22010
887.523	21941
887.648	21956
887.773	21964
887.897	22154
888.021	22006
888.146	22029
888.27	22185
888.395	22147
888.519	22090
888.643	22010
888.767	22131
888.891	21998
889.015	21766
889.139	21903
889.263	21736
889.387	21880
889.511	22032
889.635	22032
889.759	21812
889.883	21789
890.006	21739
890.13	21907
890.254	21816
890.377	21766
890.501	21515
890.624	21610
890.748	21614
890.871	21496
890.995	21488
891.118	21256
891.241	21363
891.364	21458
891.488	21530
891.611	21359
891.734	21386
891.857	21481
891.98	21431
892.103	21443
892.226	21325
892.349	21332
892.471	21176
892.594	21161
892.717	21218
892.839	21291
892.962	21359
893.085	21325
893.207	21313
893.33	21272
893.452	21211
893.575	21382
893.697	21230
893.819	21549
893.941	21424
894.064	21306
894.186	21157
894.308	21100
894.43	21313
894.552	21374
894.674	21340
894.796	21116
894.918	21233
895.04	21249
895.161	21332
895.283	21310
895.405	21268
895.526	21222
895.648	21256
895.769	21359
895.891	21298
896.012	21294
896.134	21226
896.255	21199
896.376	21218
896.498	21199
896.619	21317
896.74	21214
896.861	21180
896.982	21614
897.103	21663
897.224	21488
897.345	21374
897.466	21355
897.587	21397
897.708	21557
897.828	21515
897.949	21378
898.07	21275
898.19	21466
898.311	21519
898.431	21412
898.552	21405
898.672	21458
898.792	21416
898.913	21355
899.033	21211
899.153	21157
899.273	21165
899.393	21192
899.513	21154
899.633	21127
899.753	21146
899.873	21176
899.993	21123
900.113	21066
900.232	21150
900.352	21108
900.472	20998
900.591	20804
900.711	20971
900.83	20861
900.95	21005
901.069	20990
901.189	20758
901.308	20651
901.427	20514
901.546	20396
901.665	20465
901.784	20568
901.904	20370
902.023	20240
902.141	20180
902.26	20031
902.379	20191
902.498	19947
902.617	20008
902.735	20016
902.854	20046
902.973	19997
903.091	19757
903.21	19666
903.328	19772
903.446	19601
903.565	19559
903.683	19426
903.801	19434
903.919	19343
904.038	19304
904.156	19274
904.274	19213
904.392	19168
904.51	19095
904.627	19263
904.745	19274
904.863	19247
904.981	18966
905.098	18783
905.216	18958
905.334	18825
905.451	18935
905.569	18825
905.686	18852
905.803	18871
905.921	18635
906.038	18817
906.155	18673
906.272	18528
906.389	18681
906.506	18403
906.623	18422
906.74	18300
906.857	18266
906.974	18277
907.091	18525
907.208	18422
907.324	18285
907.441	18273
907.557	18117
907.674	18136
907.79	18174
907.907	18072
908.023	18182
908.139	18125
908.256	18049
908.372	17969
908.488	17920
908.604	17920
908.72	17821
908.836	17798
908.952	17752
909.068	17813
909.184	17950
909.3	17832
909.415	17847
909.531	17733
909.647	17467
909.762	17512
909.878	17478
909.993	17535
910.108	17493
910.224	17372
910.339	17452
910.454	17368
910.57	17356
910.685	17193
910.8	17501
910.915	17482
911.03	17284
911.145	17079
911.259	17060
911.374	16968
911.489	16999
911.604	17025
911.718	16881
911.833	16850
911.947	16748
912.062	16725
912.176	16733
912.291	16873
912.405	16805
912.519	17025
912.633	17003
912.748	16873
912.862	16725
912.976	16664
913.09	16485
913.204	16622
913.318	16656
913.431	16634
913.545	16717
913.659	16706
913.772	16485
913.886	16519
914	16318
914.113	16436
914.226	16478
914.34	16508
914.453	16284
914.566	16455
914.68	16276
914.793	16303
914.906	16086
915.019	16040
915.132	15945
915.245	15915
915.358	16032
915.47	15987
915.583	15956
915.696	15899
915.809	16177
915.921	16200
916.034	15968
916.146	15937
916.259	15720
916.371	15941
916.483	15865
916.595	15827
916.708	15854
916.82	15823
916.932	15831
917.044	15819
917.156	15667
917.268	15667
917.38	15717
917.491	15530
917.603	15717
917.715	15637
917.826	15648
917.938	15519
918.049	15435
918.161	15557
918.272	15686
918.384	15606
918.495	15606
918.606	15351
918.717	15348
918.828	15469
918.939	15466
919.05	15089
919.161	15298
919.272	15146
919.383	15207
919.494	15359
919.604	15603
919.715	15340
919.826	15214
919.936	15161
920.047	15241
920.157	15302
920.267	15443
920.378	15298
920.488	15241
920.598	15435
920.708	15622
920.818	15469
920.928	15447
921.038	15538
921.148	15439
921.258	15245
921.368	15157
921.477	15013
921.587	15112
921.697	14998
921.806	15028
921.916	14830
922.025	14667
922.134	14598
922.244	14629
922.353	14727
922.462	14629
922.571	14434
922.68	14393
922.789	14244
922.898	14328
923.007	14370
923.116	14248
923.224	14229
923.333	14256
923.442	14054
923.55	14199
923.659	14084
923.767	14103
923.876	14005
923.984	14149
924.092	14107
924.201	14005
924.309	13986
924.417	13986
924.525	13864
924.633	13986
924.741	14686
924.849	13704
924.956	13913
925.064	13624
925.172	13647
925.279	13704
925.387	13586
925.494	13689
925.602	13753
925.709	13734
925.816	13616
925.924	13510
926.031	13658
926.138	13620
926.245	13597
926.352	13571
926.459	13582
926.566	13571
926.673	13586
926.779	13316
926.886	13384
926.993	13221
927.099	13225
927.206	13175
927.312	13179
927.419	13278
927.525	13198
927.631	13149
927.737	13129
927.843	13000
927.95	12928
928.056	13000
928.162	12932
928.267	13080
928.373	13636
928.479	13072
928.585	12768
928.69	12977
928.796	12935
928.901	12852
929.007	12604
929.112	12837
929.218	12673
929.323	12677
929.428	12787
929.533	12795
929.638	12604
929.743	12642
929.848	12707
929.953	12688
930.058	12490
930.163	12376
930.267	12426
930.372	12574
930.477	12353
930.581	12620
930.685	12384
930.79	12266
930.894	12338
930.998	12243
931.103	12388
931.207	11912
931.311	11965
931.415	11851
931.519	11722
931.623	11604
