Data from test_V78500241_1992.txt Node
Date: Fri Mar 25 15:55:36 CST 2022
User: usil
Spectrometer: V785-0024
Trigger mode: 0
Integration Time (sec): 4.000000E-1
Scans to average: 1
Nonlinearity correction enabled: false
Boxcar width: 0
Storing dark spectrum: false
XAxis mode: Wavelengths
Number of Pixels in Spectrum: 1024
>>>>>Begin Spectral Data<<<<<
801.071	28401
801.214	28341
801.356	28093
801.499	28029
801.641	28021
801.783	27854
801.926	28128
802.068	28135
802.211	27812
802.353	27842
802.496	27603
802.638	27663
802.78	27656
802.923	27538
803.065	27599
803.208	27450
803.35	27610
803.492	27732
803.635	27800
803.777	27759
803.919	27835
804.061	28192
804.204	27819
804.346	27720
804.488	27785
804.63	27819
804.773	27778
804.915	27823
805.057	28021
805.199	27914
805.341	28055
805.483	27930
805.626	27945
805.768	28067
805.91	27956
806.052	27907
806.194	27861
806.336	28207
806.478	28021
806.62	28040
806.762	28078
806.904	28375
807.046	28675
807.188	28474
807.33	28459
807.472	28550
807.614	28436
807.756	28352
807.898	28299
808.04	28173
808.182	28207
808.324	28459
808.465	28394
808.607	28592
808.749	28736
808.891	28694
809.033	28927
809.174	28748
809.316	28588
809.458	28675
809.6	28603
809.741	28679
809.883	28858
810.025	28995
810.166	28946
810.308	29033
810.45	28812
810.591	28839
810.733	28790
810.875	28801
811.016	28637
811.158	28561
811.299	28790
811.441	28755
811.582	28797
811.724	28683
811.865	28702
812.007	28645
812.148	28774
812.29	28729
812.431	28862
812.573	28885
812.714	29242
812.855	29143
812.997	29356
813.138	29444
813.279	29212
813.421	29189
813.562	29170
813.703	29090
813.845	28965
813.986	28466
814.127	28489
814.268	28363
814.41	28379
814.551	28421
814.692	28398
814.833	28299
814.974	28409
815.115	28371
815.256	28303
815.397	28131
815.539	28303
815.68	28006
815.821	28090
815.962	28154
816.103	28200
816.244	28238
816.385	27850
816.526	28067
816.666	27812
816.807	27629
816.948	27823
817.089	27762
817.23	27747
817.371	27709
817.512	27728
817.653	27606
817.793	27629
817.934	27781
818.075	27633
818.216	27762
818.356	27625
818.497	27641
818.638	27359
818.778	27382
818.919	27534
819.06	27542
819.2	27610
819.341	27606
819.481	27682
819.622	27751
819.762	27827
819.903	27968
820.043	27869
820.184	27914
820.324	27819
820.465	27865
820.605	27895
820.746	27781
820.886	27701
821.026	27797
821.167	27629
821.307	27808
821.447	27679
821.588	27587
821.728	27496
821.868	27348
822.008	27207
822.149	27081
822.289	27051
822.429	26895
822.569	26743
822.709	26956
822.849	26678
822.99	26613
823.13	26640
823.27	26571
823.41	26541
823.55	26423
823.69	26488
823.83	26332
823.97	26286
824.11	26172
824.25	26187
824.389	26248
824.529	26404
824.669	26305
824.809	26522
824.949	26355
825.089	26442
825.228	26313
825.368	26111
825.508	26153
825.648	26244
825.787	26248
825.927	26035
826.067	26218
826.206	26138
826.346	26221
826.485	26164
826.625	26176
826.765	26427
826.904	26233
827.044	26027
827.183	25921
827.323	25871
827.462	26001
827.601	25822
827.741	25932
827.88	25917
828.02	25738
828.159	25837
828.298	25925
828.437	25966
828.577	25799
828.716	26005
828.855	25837
828.994	25624
829.134	25647
829.273	25689
829.412	25533
829.551	25460
829.69	25540
829.829	25597
829.968	25677
830.107	25715
830.246	25662
830.385	25590
830.524	25525
830.663	25274
830.802	25308
830.941	25152
831.08	25198
831.219	25225
831.357	25240
831.496	25441
831.635	25168
831.774	25187
831.913	25015
832.051	25012
832.19	24863
832.329	25046
832.467	24802
832.606	24722
832.744	24837
832.883	24840
833.022	24909
833.16	24863
833.299	24928
833.437	24814
833.576	25061
833.714	25023
833.852	24924
833.991	24856
834.129	24985
834.267	24837
834.406	24989
834.544	24939
834.682	24791
834.821	24863
834.959	24992
835.097	24951
835.235	24970
835.373	24833
835.511	24867
835.65	24703
835.788	24779
835.926	24593
836.064	24601
836.202	24585
836.34	24673
836.478	24814
836.615	24563
836.753	24783
836.891	24814
837.029	24779
837.167	24734
837.305	24623
837.443	24505
837.58	24620
837.718	24563
837.856	24582
837.993	24513
838.131	24604
838.269	24384
838.406	24391
838.544	24422
838.681	24235
838.819	24171
838.956	24114
839.094	23999
839.231	24174
839.369	24216
839.506	24445
839.643	24296
839.781	24110
839.918	23939
840.055	23996
840.193	23942
840.33	23885
840.467	23950
840.604	24041
840.742	24258
840.879	23760
841.016	23824
841.153	23836
841.29	24045
841.427	23855
841.564	24060
841.701	23901
841.838	23893
841.975	23798
842.112	23885
842.249	23843
842.385	23722
842.522	23863
842.659	23790
842.796	23737
842.933	23699
843.069	23668
843.206	23627
843.343	23657
843.479	23760
843.616	23832
843.752	23452
843.889	23493
844.025	23646
844.162	23406
844.298	23535
844.435	23467
844.571	23425
844.708	23471
844.844	23737
844.98	23486
845.117	23630
845.253	23474
845.389	23383
845.525	23337
845.661	23296
845.798	23208
845.934	23220
846.07	23227
846.206	23356
846.342	23296
846.478	23200
846.614	23140
846.75	22885
846.886	22904
847.022	22946
847.158	22930
847.294	23006
847.429	22866
847.565	22896
847.701	23178
847.837	22713
847.972	22698
848.108	22729
848.244	22748
848.379	22618
848.515	22478
848.65	22470
848.786	22470
848.921	22527
849.057	22656
849.192	22565
849.328	22478
849.463	22485
849.598	22531
849.734	22386
849.869	22356
850.004	22242
850.14	22386
850.275	22257
850.41	22280
850.545	22249
850.68	22162
850.815	22344
850.95	22246
851.085	22367
851.22	22348
851.355	22375
851.49	22207
851.625	22158
851.76	22314
851.895	22143
852.03	22158
852.165	22291
852.299	22246
852.434	22485
852.569	22325
852.703	22276
852.838	22242
852.973	22421
853.107	22443
853.242	22276
853.376	22249
853.511	22097
853.645	21968
853.78	22242
853.914	22078
854.048	22002
854.183	22055
854.317	22181
854.451	22440
854.585	22044
854.72	22150
854.854	22143
854.988	21972
855.122	22166
855.256	21972
855.39	22154
855.524	22276
855.658	22143
855.792	22109
855.926	22230
856.06	22265
856.194	22207
856.327	22150
856.461	22063
856.595	22093
856.729	22207
856.862	22272
856.996	22128
857.13	22070
857.263	22207
857.397	22280
857.53	22173
857.664	22280
857.797	22333
857.931	22265
858.064	22238
858.197	22268
858.331	22135
858.464	22097
858.597	22051
858.731	22135
858.864	22093
858.997	22063
859.13	22207
859.263	22177
859.396	22238
859.529	22128
859.662	21968
859.795	22116
859.928	22131
860.061	22249
860.194	22402
860.327	22234
860.46	22124
860.592	22215
860.725	22303
860.858	22230
860.99	22169
861.123	22109
861.256	22101
861.388	22044
861.521	22881
861.653	22021
861.786	21827
861.918	21953
862.05	22010
862.183	22067
862.315	22013
862.447	22070
862.58	22017
862.712	21888
862.844	21766
862.976	22017
863.108	21956
863.24	22367
863.372	21762
863.504	21827
863.636	21774
863.768	21854
863.9	21922
864.032	21823
864.164	21850
864.296	21953
864.428	21949
864.559	21922
864.691	21911
864.823	21766
864.954	21907
865.086	21774
865.217	21835
865.349	21667
865.48	21736
865.612	21652
865.743	21865
865.875	21743
866.006	21591
866.137	21667
866.269	21629
866.4	21736
866.531	21701
866.662	21610
866.793	21679
866.924	21633
867.055	21633
867.186	21629
867.317	21736
867.448	21496
867.579	21622
867.71	21545
867.841	21629
867.972	21622
868.103	21580
868.233	21690
868.364	21644
868.495	21793
868.625	21861
868.756	21994
868.886	21823
869.017	21907
869.147	21911
869.278	21911
869.408	21903
869.539	21873
869.669	22017
869.799	21941
869.929	22021
870.06	22105
870.19	22143
870.32	22226
870.45	22207
870.58	22348
870.71	22409
870.84	22523
870.97	22284
871.1	22188
871.23	22656
871.36	22527
871.489	22402
871.619	22459
871.749	22455
871.879	22565
872.008	22603
872.138	22451
872.267	22481
872.397	22394
872.526	22303
872.656	22344
872.785	22276
872.915	22569
873.044	22660
873.173	22504
873.303	22687
873.432	22527
873.561	22546
873.69	22485
873.819	22516
873.948	22596
874.077	22470
874.206	22413
874.335	22447
874.464	22736
874.593	22767
874.722	22755
874.851	22805
874.979	22816
875.108	22721
875.237	22653
875.365	22725
875.494	22679
875.623	22847
875.751	22736
875.88	22748
876.008	22881
876.136	22923
876.265	23185
876.393	23250
876.521	23124
876.65	23235
876.778	23170
876.906	23155
877.034	23174
877.162	23212
877.29	23037
877.418	23151
877.546	23140
877.674	23064
877.802	23064
877.93	22938
878.058	23071
878.185	22984
878.313	22900
878.441	23124
878.568	22755
878.696	22980
878.824	23227
878.951	23162
879.079	23242
879.206	23311
879.333	23208
879.461	23143
879.588	23113
879.715	23197
879.842	23322
879.97	23231
880.097	22866
880.224	22896
880.351	22877
880.478	22991
880.605	22820
880.732	22862
880.859	23109
880.986	22889
881.112	22930
881.239	22691
881.366	22592
881.493	22637
881.619	22466
881.746	22424
881.872	22561
881.999	22459
882.125	22398
882.252	22527
882.378	22462
882.505	22557
882.631	22238
882.757	22322
882.883	22196
883.01	22154
883.136	22029
883.262	21960
883.388	22147
883.514	22097
883.64	22219
883.766	22044
883.892	21907
884.018	21907
884.143	22097
884.269	22234
884.395	21915
884.52	21739
884.646	21804
884.772	21720
884.897	21637
885.023	21789
885.148	21873
885.274	21888
885.399	21876
885.524	21911
885.65	21823
885.775	21736
885.9	21755
886.025	21838
886.15	21827
886.275	21641
886.4	21606
886.525	21739
886.65	21591
886.775	21660
886.9	21819
887.025	21968
887.149	21732
887.274	21595
887.399	21618
887.523	21576
887.648	21545
887.773	21538
887.897	21694
888.021	21637
888.146	21492
888.27	21561
888.395	21622
888.519	21698
888.643	21511
888.767	21450
888.891	21458
889.015	21298
889.139	21534
889.263	21355
889.387	21408
889.511	21603
889.635	21412
889.759	21389
889.883	21275
890.006	21294
890.13	21477
890.254	21260
890.377	21226
890.501	21055
890.624	21176
890.748	21142
890.871	20918
890.995	20864
891.118	20758
891.241	20918
891.364	20788
891.488	21047
891.611	20857
891.734	20998
891.857	20948
891.98	20826
892.103	21032
892.226	20937
892.349	20876
892.471	20708
892.594	20754
892.717	20864
892.839	20746
892.962	20762
893.085	20921
893.207	20883
893.33	20568
893.452	20724
893.575	20804
893.697	20708
893.819	20990
893.941	20967
894.064	20883
894.186	20826
894.308	20682
894.43	20792
894.552	20948
894.674	20914
894.796	20712
894.918	20727
895.04	20655
895.161	20762
895.283	20697
895.405	20708
895.526	20769
895.648	20705
895.769	20796
895.891	20788
896.012	20800
896.134	20785
896.255	20762
896.376	20594
896.498	20864
896.619	20781
896.74	20724
896.861	20826
896.982	21154
897.103	21157
897.224	21013
897.345	21017
897.466	20891
897.587	20906
897.708	21135
897.828	21093
897.949	21005
898.07	20830
898.19	20876
898.311	21039
898.431	20819
898.552	20918
898.672	21051
898.792	20971
898.913	21028
899.033	20914
899.153	20655
899.273	20648
899.393	20788
899.513	20792
899.633	20769
899.753	20686
899.873	20659
899.993	20678
900.113	20629
900.232	20697
900.352	20644
900.472	20480
900.591	20396
900.711	20530
900.83	20339
900.95	20667
901.069	20514
901.189	20351
901.308	20157
901.427	20046
901.546	20016
901.665	20180
901.784	20210
901.904	19818
902.023	19883
902.141	19453
902.26	19567
902.379	19655
902.498	19613
902.617	19563
902.735	19647
902.854	19548
902.973	19499
903.091	19198
903.21	19209
903.328	19194
903.446	19137
903.565	18966
903.683	19050
903.801	18833
903.919	18958
904.038	18821
904.156	18837
904.274	18829
904.392	18715
904.51	18833
904.627	18730
904.745	18764
904.863	18894
904.981	18593
905.098	18399
905.216	18467
905.334	18445
905.451	18445
905.569	18578
905.686	18528
905.803	18369
905.921	18289
906.038	18376
906.155	18254
906.272	18129
906.389	18140
906.506	17889
906.623	18087
906.74	18041
906.857	17912
906.974	17969
907.091	17988
907.208	18053
907.324	17992
907.441	17954
907.557	17672
907.674	17703
907.79	17726
907.907	17668
908.023	17733
908.139	17764
908.256	17596
908.372	17619
908.488	17619
908.604	17360
908.72	17425
908.836	17467
908.952	17349
909.068	17395
909.184	17471
909.3	17421
909.415	17440
909.531	17398
909.647	17159
909.762	17022
909.878	17128
909.993	17113
910.108	17064
910.224	17022
910.339	17094
910.454	16873
910.57	16889
910.685	16847
910.8	17124
910.915	17003
911.03	16904
911.145	16774
911.259	16675
911.374	16740
911.489	16584
911.604	16584
911.718	16299
911.833	16375
911.947	16443
912.062	16276
912.176	16386
912.291	16405
912.405	16504
912.519	16694
912.633	16603
912.748	16386
912.862	16497
912.976	16291
913.09	16029
913.204	16207
913.318	16246
913.431	16284
913.545	16276
913.659	16318
913.772	16071
913.886	16063
914	15983
914.113	16055
914.226	16131
914.34	16086
914.453	15994
914.566	16032
914.68	15922
914.793	15827
914.906	15641
915.019	15682
915.132	15500
915.245	15595
915.358	15618
915.47	15542
915.583	15599
915.696	15557
915.809	15747
915.921	15698
916.034	15477
916.146	15606
916.259	15542
916.371	15599
916.483	15572
916.595	15397
916.708	15374
916.82	15397
916.932	15454
917.044	15462
917.156	15359
917.268	15188
917.38	15298
917.491	15176
917.603	15306
917.715	15230
917.826	15367
917.938	15192
918.049	15127
918.161	15272
918.272	15298
918.384	15325
918.495	15154
918.606	15039
918.717	14891
918.828	15036
918.939	15020
919.05	14823
919.161	14979
919.272	14819
919.383	14906
919.494	15089
919.604	15195
919.715	14960
919.826	14891
919.936	14918
920.047	15097
920.157	14979
920.267	15192
920.378	14975
920.488	14941
920.598	15036
920.708	15348
920.818	15062
920.928	15112
921.038	15173
921.148	15165
921.258	14842
921.368	14792
921.477	14705
921.587	14701
921.697	14606
921.806	14651
921.916	14610
922.025	14381
922.134	14317
922.244	14377
922.353	14351
922.462	14183
922.571	14096
922.68	14043
922.789	13921
922.898	13932
923.007	13986
923.116	13997
923.224	13986
923.333	13940
923.442	13852
923.55	13761
923.659	13894
923.767	13727
923.876	13689
923.984	13769
924.092	13670
924.201	13731
924.309	13685
924.417	13670
924.525	13578
924.633	13548
924.741	14328
924.849	13426
924.956	13563
925.064	13354
925.172	13324
925.279	13407
925.387	13301
925.494	13327
925.602	13495
925.709	13396
925.816	13221
925.924	13308
926.031	13411
926.138	13209
926.245	13358
926.352	13251
926.459	13339
926.566	13316
926.673	13259
926.779	13019
926.886	13099
926.993	12970
927.099	12935
927.206	12871
927.312	12856
927.419	12833
927.525	12875
927.631	12981
927.737	12821
927.843	12700
927.95	12631
928.056	12787
928.162	12677
928.267	12772
928.373	13422
928.479	12825
928.585	12513
928.69	12563
928.796	12734
928.901	12589
929.007	12506
929.112	12604
929.218	12445
929.323	12540
929.428	12513
929.533	12445
929.638	12388
929.743	12403
929.848	12445
929.953	12403
930.058	12270
930.163	12114
930.267	12072
930.372	12277
930.477	12064
930.581	12334
930.685	12171
930.79	11977
930.894	12064
930.998	11973
931.103	12121
931.207	11802
931.311	11668
931.415	11608
931.519	11398
931.623	11425
