Data from test_V78500241_2773.txt Node
Date: Fri Mar 25 16:01:00 CST 2022
User: usil
Spectrometer: V785-0024
Trigger mode: 0
Integration Time (sec): 4.000000E-1
Scans to average: 1
Nonlinearity correction enabled: false
Boxcar width: 0
Storing dark spectrum: false
XAxis mode: Wavelengths
Number of Pixels in Spectrum: 1024
>>>>>Begin Spectral Data<<<<<
801.071	29212
801.214	29064
801.356	28961
801.499	28755
801.641	28801
801.783	28801
801.926	28748
802.068	28687
802.211	28622
802.353	28744
802.496	28436
802.638	28341
802.78	28196
802.923	28512
803.065	28306
803.208	28401
803.35	28428
803.492	28607
803.635	28771
803.777	28607
803.919	28698
804.061	28915
804.204	28683
804.346	28672
804.488	28592
804.63	28679
804.773	28580
804.915	28782
805.057	28896
805.199	28611
805.341	28820
805.483	28790
805.626	28774
805.768	28774
805.91	28900
806.052	28968
806.194	28786
806.336	29090
806.478	28904
806.62	28820
806.762	29033
806.904	29109
807.046	29292
807.188	29269
807.33	29223
807.472	29353
807.614	29170
807.756	29315
807.898	29315
808.04	29079
808.182	29273
808.324	29121
808.465	29277
808.607	29482
808.749	29585
808.891	29524
809.033	29813
809.174	29760
809.316	29509
809.458	29585
809.6	29638
809.741	29714
809.883	29665
810.025	29958
810.166	29961
810.308	29984
810.45	29729
810.591	29676
810.733	29756
810.875	29661
811.016	29520
811.158	29497
811.299	29771
811.441	29760
811.582	29745
811.724	29516
811.865	29642
812.007	29691
812.148	29596
812.29	29558
812.431	29843
812.573	29935
812.714	29965
812.855	30190
812.997	30334
813.138	30365
813.279	30334
813.421	30098
813.562	30076
813.703	29992
813.845	29790
813.986	29581
814.127	29360
814.268	29231
814.41	29360
814.551	29383
814.692	29391
814.833	29273
814.974	29200
815.115	29269
815.256	29140
815.397	29311
815.539	29185
815.68	29128
815.821	29128
815.962	29200
816.103	29132
816.244	29090
816.385	28904
816.526	28908
816.666	28725
816.807	28580
816.948	28729
817.089	28740
817.23	28577
817.371	28622
817.512	28679
817.653	28637
817.793	28660
817.934	28611
818.075	28618
818.216	28565
818.356	28637
818.497	28474
818.638	28436
818.778	28447
818.919	28531
819.06	28485
819.2	28569
819.341	28588
819.481	28611
819.622	28858
819.762	29178
819.903	28968
820.043	28961
820.184	28858
820.324	28839
820.465	28843
820.605	28763
820.746	28713
820.886	28706
821.026	28649
821.167	28744
821.307	28744
821.447	28748
821.588	28500
821.728	28596
821.868	28413
822.008	28215
822.149	28207
822.289	27987
822.429	27857
822.569	27800
822.709	27854
822.849	27652
822.99	27705
823.13	27542
823.27	27572
823.41	27583
823.55	27370
823.69	27485
823.83	27466
823.97	27294
824.11	27264
824.25	27066
824.389	27260
824.529	27332
824.669	27154
824.809	27454
824.949	27367
825.089	27378
825.228	27408
825.368	27184
825.508	27127
825.648	27180
825.787	27146
825.927	27165
826.067	27135
826.206	27237
826.346	27256
826.485	27176
826.625	27169
826.765	27275
826.904	27184
827.044	27009
827.183	26876
827.323	26902
827.462	26940
827.601	26944
827.741	26921
827.88	26979
828.02	26792
828.159	26861
828.298	26899
828.437	27017
828.577	26739
828.716	26899
828.855	26754
828.994	26571
829.134	26678
829.273	26663
829.412	26514
829.551	26503
829.69	26636
829.829	26632
829.968	26762
830.107	26693
830.246	26606
830.385	26701
830.524	26590
830.663	26324
830.802	26218
830.941	26370
831.08	26187
831.219	26271
831.357	26290
831.496	26453
831.635	26187
831.774	26278
831.913	26149
832.051	26084
832.19	26065
832.329	26016
832.467	25906
832.606	25753
832.744	25913
832.883	25917
833.022	25879
833.16	25822
833.299	25883
833.437	25803
833.576	26008
833.714	26043
833.852	26020
833.991	26005
834.129	26096
834.267	26081
834.406	26035
834.544	25978
834.682	25860
834.821	26008
834.959	26024
835.097	25921
835.235	26043
835.373	25811
835.511	25932
835.65	25871
835.788	25708
835.926	25742
836.064	25674
836.202	25594
836.34	25841
836.478	25936
836.615	25746
836.753	25727
836.891	25837
837.029	25723
837.167	25655
837.305	25632
837.443	25670
837.58	25582
837.718	25613
837.856	25586
837.993	25453
838.131	25616
838.269	25575
838.406	25590
838.544	25316
838.681	25190
838.819	25236
838.956	25046
839.094	25088
839.231	25107
839.369	25293
839.506	25400
839.643	25327
839.781	25069
839.918	24913
840.055	25019
840.193	25034
840.33	24966
840.467	24901
840.604	24932
840.742	25122
840.879	24867
841.016	24886
841.153	24658
841.29	24970
841.427	24863
841.564	24981
841.701	25015
841.838	24829
841.975	24791
842.112	24856
842.249	24875
842.385	24745
842.522	24928
842.659	24749
842.796	24798
842.933	24585
843.069	24661
843.206	24604
843.343	24757
843.479	24745
843.616	24700
843.752	24380
843.889	24483
844.025	24631
844.162	24509
844.298	24513
844.435	24551
844.571	24460
844.708	24505
844.844	24593
844.98	24551
845.117	24509
845.253	24445
845.389	24353
845.525	24410
845.661	24350
845.798	24254
845.934	24289
846.07	24194
846.206	24205
846.342	24296
846.478	24167
846.614	23992
846.75	24045
846.886	23847
847.022	23988
847.158	24034
847.294	23912
847.429	23935
847.565	23999
847.701	24098
847.837	23672
847.972	23585
848.108	23783
848.244	23729
848.379	23634
848.515	23592
848.65	23452
848.786	23531
848.921	23543
849.057	23596
849.192	23539
849.328	23520
849.463	23516
849.598	23356
849.734	23322
849.869	23387
850.004	23254
850.14	23242
850.275	23235
850.41	23200
850.545	23200
850.68	23303
850.815	23296
850.95	23277
851.085	23421
851.22	23364
851.355	23288
851.49	23372
851.625	23185
851.76	23121
851.895	23216
852.03	23296
852.165	23284
852.299	23330
852.434	23345
852.569	23349
852.703	23417
852.838	23273
852.973	23391
853.107	23292
853.242	23242
853.376	23155
853.511	22968
853.645	23048
853.78	23220
853.914	23128
854.048	23121
854.183	23075
854.317	23102
854.451	23326
854.585	23064
854.72	23105
854.854	23197
854.988	23075
855.122	23044
855.256	22854
855.39	23064
855.524	23212
855.658	23223
855.792	23113
855.926	23064
856.06	23105
856.194	23098
856.327	23162
856.461	22995
856.595	22987
856.729	23025
856.862	23204
856.996	23064
857.13	23121
857.263	23299
857.397	23113
857.53	22991
857.664	23052
857.797	23174
857.931	23239
858.064	23044
858.197	23296
858.331	23151
858.464	23098
858.597	22934
858.731	23041
858.864	22995
858.997	23014
859.13	23052
859.263	23193
859.396	23181
859.529	23022
859.662	23003
859.795	22995
859.928	23178
860.061	23349
860.194	23315
860.327	23220
860.46	23071
860.592	23204
860.725	23318
860.858	23280
860.99	23143
861.123	22961
861.256	23121
861.388	23121
861.521	23817
861.653	22976
861.786	22866
861.918	22889
862.05	22961
862.183	22984
862.315	23052
862.447	23155
862.58	23010
862.712	22889
862.844	22767
862.976	22972
863.108	22866
863.24	23349
863.372	22843
863.504	22774
863.636	22733
863.768	22850
863.9	22801
864.032	22831
864.164	22771
864.296	22820
864.428	22782
864.559	22881
864.691	22850
864.823	22816
864.954	22675
865.086	22790
865.217	22740
865.349	22478
865.48	22683
865.612	22675
865.743	22809
865.875	22637
866.006	22755
866.137	22683
866.269	22637
866.4	22683
866.531	22588
866.662	22622
866.793	22599
866.924	22611
867.055	22759
867.186	22653
867.317	22660
867.448	22390
867.579	22588
867.71	22371
867.841	22573
867.972	22599
868.103	22546
868.233	22546
868.364	22599
868.495	22630
868.625	22778
868.756	22987
868.886	22721
869.017	22835
869.147	22987
869.278	22987
869.408	22831
869.539	22797
869.669	22889
869.799	22949
869.929	22968
870.06	22850
870.19	22942
870.32	23223
870.45	23269
870.58	23303
870.71	23360
870.84	23288
870.97	23246
871.1	23311
871.23	23440
871.36	23360
871.489	23360
871.619	23353
871.749	23311
871.879	23516
872.008	23581
872.138	23482
872.267	23387
872.397	23258
872.526	23280
872.656	23246
872.785	23280
872.915	23421
873.044	23482
873.173	23459
873.303	23657
873.432	23478
873.561	23482
873.69	23448
873.819	23516
873.948	23589
874.077	23452
874.206	23440
874.335	23531
874.464	23623
874.593	23821
874.722	23695
874.851	23657
874.979	23699
875.108	23809
875.237	23680
875.365	23554
875.494	23619
875.623	23726
875.751	23653
875.88	23604
876.008	23726
876.136	23824
876.265	24148
876.393	24201
876.521	24152
876.65	24064
876.778	24064
876.906	23912
877.034	23950
877.162	24087
877.29	23863
877.418	24034
877.546	24011
877.674	24007
877.802	23988
877.93	23984
878.058	23950
878.185	23836
878.313	24045
878.441	23908
878.568	24007
878.696	23912
878.824	24057
878.951	24216
879.079	24133
879.206	24361
879.333	24213
879.461	24011
879.588	24140
879.715	24136
879.842	24403
879.97	24102
880.097	23859
880.224	23836
880.351	23821
880.478	23866
880.605	23779
880.732	23802
880.859	24182
880.986	23824
881.112	23832
881.239	23726
881.366	23680
881.493	23467
881.619	23395
881.746	23417
881.872	23444
881.999	23360
882.125	23288
882.252	23433
882.378	23330
882.505	23471
882.631	23254
882.757	23010
882.883	23151
883.01	23090
883.136	23025
883.262	22946
883.388	22911
883.514	23010
883.64	23128
883.766	22984
883.892	22831
884.018	22729
884.143	22980
884.269	22991
884.395	22816
884.52	22748
884.646	22603
884.772	22710
884.897	22546
885.023	22683
885.148	22790
885.274	22843
885.399	22774
885.524	22710
885.65	22618
885.775	22577
885.9	22660
886.025	22835
886.15	22778
886.275	22554
886.4	22542
886.525	22786
886.65	22557
886.775	22679
886.9	22854
887.025	22767
887.149	22816
887.274	22432
887.399	22398
887.523	22352
887.648	22337
887.773	22291
887.897	22470
888.021	22451
888.146	22299
888.27	22523
888.395	22542
888.519	22436
888.643	22466
888.767	22417
888.891	22242
889.015	22238
889.139	22242
889.263	22204
889.387	22265
889.511	22421
889.635	22360
889.759	22230
889.883	22268
890.006	22299
890.13	22421
890.254	22120
890.377	22116
890.501	21960
890.624	22002
890.748	21979
890.871	21804
890.995	21701
891.118	21564
891.241	21804
891.364	21766
891.488	21922
891.611	21812
891.734	21732
891.857	21854
891.98	21743
892.103	21850
892.226	21690
892.349	21766
892.471	21587
892.594	21713
892.717	21633
892.839	21736
892.962	21724
893.085	21827
893.207	21637
893.33	21466
893.452	21587
893.575	21717
893.697	21614
893.819	21705
893.941	21816
894.064	21732
894.186	21568
894.308	21408
894.43	21682
894.552	21846
894.674	21652
894.796	21492
894.918	21606
895.04	21576
895.161	21694
895.283	21724
895.405	21488
895.526	21622
895.648	21564
895.769	21671
895.891	21705
896.012	21652
896.134	21682
896.255	21618
896.376	21530
896.498	21534
896.619	21568
896.74	21599
896.861	21625
896.982	21907
897.103	22036
897.224	21850
897.345	21831
897.466	21739
897.587	21694
897.708	21937
897.828	21823
897.949	21679
898.07	21583
898.19	21698
898.311	21819
898.431	21637
898.552	21686
898.672	21865
898.792	21838
898.913	21808
899.033	21732
899.153	21580
899.273	21428
899.393	21629
899.513	21618
899.633	21397
899.753	21488
899.873	21431
899.993	21564
900.113	21443
900.232	21519
900.352	21500
900.472	21203
900.591	21237
900.711	21306
900.83	21272
900.95	21401
901.069	21302
901.189	21123
901.308	20891
901.427	20826
901.546	20682
901.665	20925
901.784	20861
901.904	20663
902.023	20575
902.141	20427
902.26	20393
902.379	20446
902.498	20324
902.617	20225
902.735	20415
902.854	20309
902.973	20324
903.091	20065
903.21	19917
903.328	20035
903.446	19818
903.565	19871
903.683	19734
903.801	19708
903.919	19788
904.038	19685
904.156	19499
904.274	19529
904.392	19518
904.51	19453
904.627	19460
904.745	19700
904.863	19601
904.981	19285
905.098	19308
905.216	19148
905.334	19164
905.451	19148
905.569	19225
905.686	19168
905.803	19129
905.921	18894
906.038	19076
906.155	19046
906.272	18875
906.389	18932
906.506	18639
906.623	18749
906.74	18741
906.857	18559
906.974	18639
907.091	18749
907.208	18715
907.324	18783
907.441	18566
907.557	18426
907.674	18327
907.79	18330
907.907	18403
908.023	18445
908.139	18509
908.256	18410
908.372	18327
908.488	18323
908.604	18148
908.72	18167
908.836	18163
908.952	18072
909.068	18167
909.184	18266
909.3	18152
909.415	18197
909.531	18114
909.647	17969
909.762	17836
909.878	17767
909.993	17874
910.108	17794
910.224	17840
910.339	17729
910.454	17726
910.57	17752
910.685	17600
910.8	17859
910.915	17802
911.03	17581
911.145	17463
911.259	17474
911.374	17421
911.489	17459
911.604	17277
911.718	17204
911.833	17079
911.947	17079
912.062	16915
912.176	17170
912.291	17022
912.405	17048
912.519	17376
912.633	17360
912.748	17124
912.862	17143
912.976	16854
913.09	16869
913.204	16889
913.318	17056
913.431	17018
913.545	17006
913.659	17067
913.772	16896
913.886	16858
914	16698
914.113	16774
914.226	16908
914.34	16748
914.453	16615
914.566	16755
914.68	16603
914.793	16596
914.906	16386
915.019	16417
915.132	16299
915.245	16268
915.358	16371
915.47	16310
915.583	16261
915.696	16261
915.809	16348
915.921	16451
916.034	16226
916.146	16215
916.259	16169
916.371	16299
916.483	16177
916.595	16029
916.708	16116
916.82	16082
916.932	16204
917.044	16044
917.156	16086
917.268	15816
917.38	15945
917.491	15846
917.603	15892
917.715	15998
917.826	15972
917.938	15873
918.049	15705
918.161	15785
918.272	15873
918.384	16017
918.495	15705
918.606	15660
918.717	15572
918.828	15671
918.939	15724
919.05	15564
919.161	15671
919.272	15348
919.383	15496
919.494	15618
919.604	15778
919.715	15705
919.826	15557
919.936	15542
920.047	15629
920.157	15584
920.267	15762
920.378	15564
920.488	15538
920.598	15797
920.708	15835
920.818	15671
920.928	15736
921.038	15895
921.148	15812
921.258	15614
921.368	15302
921.477	15245
921.587	15302
921.697	15154
921.806	15249
921.916	15112
922.025	14994
922.134	14902
922.244	14891
922.353	14910
922.462	14807
922.571	14842
922.68	14598
922.789	14575
922.898	14499
923.007	14549
923.116	14629
923.224	14514
923.333	14495
923.442	14393
923.55	14423
923.659	14400
923.767	14294
923.876	14358
923.984	14366
924.092	14271
924.201	14351
924.309	14290
924.417	14214
924.525	14164
924.633	14172
924.741	15032
924.849	14005
924.956	14153
925.064	14016
925.172	13871
925.279	13894
925.387	13883
925.494	13940
925.602	13974
925.709	14005
925.816	13769
925.924	13837
926.031	13841
926.138	13860
926.245	13951
926.352	13753
926.459	13830
926.566	13894
926.673	13712
926.779	13651
926.886	13582
926.993	13476
927.099	13400
927.206	13426
927.312	13316
927.419	13567
927.525	13430
927.631	13411
927.737	13270
927.843	13259
927.95	13152
928.056	13217
928.162	13278
928.267	13324
928.373	13765
928.479	13339
928.585	13091
928.69	13076
928.796	13301
928.901	13145
929.007	12924
929.112	13000
929.218	13019
929.323	12958
929.428	12981
929.533	13042
929.638	12833
929.743	12958
929.848	12894
929.953	12897
930.058	12814
930.163	12616
930.267	12597
930.372	12650
930.477	12601
930.581	12932
930.685	12650
930.79	12452
930.894	12494
930.998	12506
931.103	12540
931.207	12232
931.311	12167
931.415	12003
931.519	11942
931.623	11794
