Data from test_V78500241_1951.txt Node
Date: Fri Mar 25 15:55:19 CST 2022
User: usil
Spectrometer: V785-0024
Trigger mode: 0
Integration Time (sec): 4.000000E-1
Scans to average: 1
Nonlinearity correction enabled: false
Boxcar width: 0
Storing dark spectrum: false
XAxis mode: Wavelengths
Number of Pixels in Spectrum: 1024
>>>>>Begin Spectral Data<<<<<
801.071	28869
801.214	28759
801.356	28603
801.499	28588
801.641	28417
801.783	28474
801.926	28504
802.068	28409
802.211	28421
802.353	28371
802.496	28116
802.638	28063
802.78	28150
802.923	27998
803.065	28040
803.208	28158
803.35	28097
803.492	28162
803.635	28314
803.777	28280
803.919	28356
804.061	28729
804.204	28470
804.346	28329
804.488	28188
804.63	28443
804.773	28253
804.915	28337
805.057	28565
805.199	28371
805.341	28527
805.483	28561
805.626	28645
805.768	28409
805.91	28554
806.052	28489
806.194	28390
806.336	28797
806.478	28721
806.62	28451
806.762	28713
806.904	28824
807.046	29086
807.188	28881
807.33	29067
807.472	29102
807.614	29006
807.756	28987
807.898	28938
808.04	28687
808.182	28927
808.324	28873
808.465	28991
808.607	29121
808.749	29204
808.891	29322
809.033	29421
809.174	29345
809.316	29261
809.458	29258
809.6	29181
809.741	29277
809.883	29337
810.025	29520
810.166	29497
810.308	29471
810.45	29474
810.591	29474
810.733	29414
810.875	29311
811.016	29121
811.158	29250
811.299	29353
811.441	29493
811.582	29383
811.724	29455
811.865	29326
812.007	29296
812.148	29265
812.29	29292
812.431	29433
812.573	29444
812.714	29748
812.855	29752
812.997	29824
813.138	30072
813.279	30007
813.421	29764
813.562	29760
813.703	29562
813.845	29474
813.986	29231
814.127	29155
814.268	29090
814.41	29056
814.551	28866
814.692	29014
814.833	28892
814.974	28976
815.115	28946
815.256	28854
815.397	28820
815.539	28706
815.68	28740
815.821	28725
815.962	28790
816.103	28763
816.244	28615
816.385	28462
816.526	28508
816.666	28333
816.807	28177
816.948	28295
817.089	28440
817.23	28181
817.371	28261
817.512	28223
817.653	28192
817.793	28226
817.934	28230
818.075	28196
818.216	28230
818.356	28329
818.497	28124
818.638	27903
818.778	28032
818.919	28105
819.06	28131
819.2	28265
819.341	28204
819.481	28284
819.622	28337
819.762	28649
819.903	28561
820.043	28508
820.184	28428
820.324	28481
820.465	28447
820.605	28542
820.746	28481
820.886	28314
821.026	28478
821.167	28455
821.307	28500
821.447	28238
821.588	28303
821.728	28105
821.868	27918
822.008	27895
822.149	27739
822.289	27770
822.429	27496
822.569	27496
822.709	27473
822.849	27389
822.99	27173
823.13	27370
823.27	27138
823.41	27043
823.55	27005
823.69	26975
823.83	27127
823.97	27032
824.11	26811
824.25	26967
824.389	26944
824.529	27070
824.669	27123
824.809	27245
824.949	26986
825.089	27074
825.228	26975
825.368	26708
825.508	26925
825.648	26845
825.787	26868
825.927	26834
826.067	26849
826.206	26861
826.346	26754
826.485	26933
826.625	26712
826.765	26823
826.904	26754
827.044	26724
827.183	26579
827.323	26545
827.462	26617
827.601	26587
827.741	26412
827.88	26503
828.02	26438
828.159	26423
828.298	26625
828.437	26552
828.577	26476
828.716	26552
828.855	26522
828.994	26381
829.134	26161
829.273	26313
829.412	26138
829.551	26256
829.69	26248
829.829	26294
829.968	26244
830.107	26290
830.246	26282
830.385	26275
830.524	26191
830.663	26062
830.802	25841
830.941	25757
831.08	25860
831.219	25822
831.357	25986
831.496	25978
831.635	25788
831.774	25811
831.913	25647
832.051	25685
832.19	25578
832.329	25567
832.467	25502
832.606	25491
832.744	25491
832.883	25552
833.022	25510
833.16	25396
833.299	25460
833.437	25514
833.576	25658
833.714	25662
833.852	25575
833.991	25719
834.129	25712
834.267	25460
834.406	25518
834.544	25510
834.682	25464
834.821	25491
834.959	25677
835.097	25479
835.235	25514
835.373	25556
835.511	25533
835.65	25438
835.788	25316
835.926	25285
836.064	25168
836.202	25278
836.34	25441
836.478	25487
836.615	25339
836.753	25392
836.891	25388
837.029	25369
837.167	25320
837.305	25324
837.443	25137
837.58	25103
837.718	25278
837.856	25168
837.993	25050
838.131	25103
838.269	25050
838.406	25057
838.544	24958
838.681	24852
838.819	24810
838.956	24738
839.094	24578
839.231	24738
839.369	24779
839.506	25034
839.643	24837
839.781	24654
839.918	24639
840.055	24620
840.193	24642
840.33	24673
840.467	24627
840.604	24563
840.742	24791
840.879	24433
841.016	24525
841.153	24483
841.29	24661
841.427	24646
841.564	24631
841.701	24505
841.838	24376
841.975	24498
842.112	24566
842.249	24471
842.385	24285
842.522	24525
842.659	24391
842.796	24243
842.933	24361
843.069	24391
843.206	24178
843.343	24346
843.479	24224
843.616	24300
843.752	24144
843.889	24155
844.025	24254
844.162	24072
844.298	24148
844.435	23973
844.571	24060
844.708	24213
844.844	24167
844.98	24220
845.117	24076
845.253	23999
845.389	24064
845.525	23961
845.661	23882
845.798	23722
845.934	23984
846.07	23824
846.206	23843
846.342	23965
846.478	23836
846.614	23543
846.75	23436
846.886	23570
847.022	23615
847.158	23539
847.294	23516
847.429	23630
847.565	23589
847.701	23836
847.837	23284
847.972	23356
848.108	23410
848.244	23436
848.379	23197
848.515	23185
848.65	23140
848.786	23041
848.921	23071
849.057	23147
849.192	23185
849.328	23113
849.463	23132
849.598	23067
849.734	23094
849.869	22908
850.004	22854
850.14	22927
850.275	22965
850.41	22767
850.545	22843
850.68	22881
850.815	22976
850.95	22904
851.085	23064
851.22	22984
851.355	23003
851.49	22908
851.625	22881
851.76	22873
851.895	22771
852.03	22839
852.165	22850
852.299	23079
852.434	23006
852.569	22892
852.703	22862
852.838	22908
852.973	22980
853.107	23079
853.242	22930
853.376	22721
853.511	22641
853.645	22584
853.78	22721
853.914	22759
854.048	22668
854.183	22641
854.317	22786
854.451	22866
854.585	22733
854.72	22656
854.854	22831
854.988	22653
855.122	22801
855.256	22500
855.39	22577
855.524	22820
855.658	22782
855.792	22717
855.926	22733
856.06	22744
856.194	22816
856.327	22729
856.461	22622
856.595	22679
856.729	22641
856.862	22774
856.996	22793
857.13	22771
857.263	22835
857.397	22736
857.53	22634
857.664	22869
857.797	22774
857.931	22858
858.064	22736
858.197	22835
858.331	22641
858.464	22618
858.597	22580
858.731	22626
858.864	22615
858.997	22706
859.13	22599
859.263	22656
859.396	22774
859.529	22778
859.662	22755
859.795	22656
859.928	22755
860.061	22831
860.194	22953
860.327	22717
860.46	22683
860.592	22816
860.725	22946
860.858	22839
860.99	22801
861.123	22557
861.256	22691
861.388	22755
861.521	23406
861.653	22611
861.786	22481
861.918	22569
862.05	22596
862.183	22626
862.315	22649
862.447	22828
862.58	22531
862.712	22535
862.844	22440
862.976	22500
863.108	22360
863.24	22881
863.372	22337
863.504	22318
863.636	22462
863.768	22462
863.9	22363
864.032	22390
864.164	22375
864.296	22352
864.428	22523
864.559	22390
864.691	22470
864.823	22367
864.954	22440
865.086	22333
865.217	22272
865.349	22131
865.48	22303
865.612	22268
865.743	22481
865.875	22291
866.006	22303
866.137	22185
866.269	22223
866.4	22177
866.531	22101
866.662	22082
866.793	22166
866.924	22177
867.055	22249
867.186	22147
867.317	22200
867.448	22185
867.579	22242
867.71	22177
867.841	22139
867.972	22078
868.103	22086
868.233	22128
868.364	22029
868.495	22246
868.625	22440
868.756	22428
868.886	22371
869.017	22459
869.147	22390
869.278	22588
869.408	22462
869.539	22478
869.669	22428
869.799	22443
869.929	22455
870.06	22611
870.19	22721
870.32	22755
870.45	22752
870.58	22820
870.71	22858
870.84	23025
870.97	22828
871.1	22949
871.23	22896
871.36	23067
871.489	22927
871.619	22976
871.749	23094
871.879	23075
872.008	23124
872.138	22987
872.267	22987
872.397	22889
872.526	22900
872.656	22828
872.785	22809
872.915	22987
873.044	22999
873.173	23029
873.303	23162
873.432	23208
873.561	23128
873.69	23003
873.819	22957
873.948	23128
874.077	23193
874.206	22972
874.335	23041
874.464	23239
874.593	23307
874.722	23231
874.851	23429
874.979	23322
875.108	23269
875.237	23208
875.365	23109
875.494	23136
875.623	23345
875.751	23178
875.88	23326
876.008	23391
876.136	23406
876.265	23661
876.393	23790
876.521	23703
876.65	23771
876.778	23680
876.906	23653
877.034	23573
877.162	23638
877.29	23524
877.418	23558
877.546	23619
877.674	23570
877.802	23642
877.93	23505
878.058	23577
878.185	23391
878.313	23570
878.441	23543
878.568	23520
878.696	23417
878.824	23745
878.951	23638
879.079	23889
879.206	23901
879.333	23794
879.461	23566
879.588	23733
879.715	23737
879.842	23817
879.97	23672
880.097	23406
880.224	23463
880.351	23531
880.478	23414
880.605	23398
880.732	23410
880.859	23665
880.986	23467
881.112	23455
881.239	23280
881.366	23105
881.493	23212
881.619	23140
881.746	23010
881.872	22984
881.999	22980
882.125	22790
882.252	22999
882.378	23010
882.505	23140
882.631	22873
882.757	22717
882.883	22805
883.01	22630
883.136	22569
883.262	22489
883.388	22554
883.514	22626
883.64	22774
883.766	22611
883.892	22500
884.018	22596
884.143	22626
884.269	22580
884.395	22508
884.52	22223
884.646	22394
884.772	22196
884.897	22109
885.023	22295
885.148	22299
885.274	22459
885.399	22436
885.524	22284
885.65	22314
885.775	22306
885.9	22223
886.025	22394
886.15	22284
886.275	22276
886.4	22238
886.525	22234
886.65	22173
886.775	22257
886.9	22424
887.025	22561
887.149	22299
887.274	22112
887.399	22169
887.523	22029
887.648	21987
887.773	21937
887.897	22135
888.021	22059
888.146	22029
888.27	22166
888.395	22032
888.519	22109
888.643	22120
888.767	22044
888.891	21991
889.015	21793
889.139	21823
889.263	21816
889.387	21964
889.511	22025
889.635	21884
889.759	21778
889.883	21690
890.006	21751
890.13	21945
890.254	21762
890.377	21755
890.501	21504
890.624	21564
890.748	21580
890.871	21488
890.995	21386
891.118	21336
891.241	21405
891.364	21351
891.488	21447
891.611	21412
891.734	21386
891.857	21443
891.98	21412
892.103	21454
892.226	21332
892.349	21256
892.471	21165
892.594	21313
892.717	21306
892.839	21249
892.962	21222
893.085	21275
893.207	21268
893.33	21081
893.452	21176
893.575	21355
893.697	21207
893.819	21454
893.941	21431
894.064	21275
894.186	21275
894.308	21214
894.43	21321
894.552	21447
894.674	21412
894.796	21146
894.918	21188
895.04	21146
895.161	21245
895.283	21233
895.405	21264
895.526	21218
895.648	21176
895.769	21230
895.891	21256
896.012	21386
896.134	21184
896.255	21138
896.376	21169
896.498	21256
896.619	21359
896.74	21252
896.861	21367
896.982	21572
897.103	21583
897.224	21542
897.345	21420
897.466	21405
897.587	21420
897.708	21564
897.828	21458
897.949	21310
898.07	21207
898.19	21405
898.311	21553
898.431	21351
898.552	21500
898.672	21454
898.792	21500
898.913	21397
899.033	21237
899.153	21272
899.273	21085
899.393	21154
899.513	21211
899.633	21207
899.753	21222
899.873	21100
899.993	21287
900.113	21085
900.232	21192
900.352	21089
900.472	20902
900.591	21043
900.711	20849
900.83	20937
900.95	21047
901.069	20982
901.189	20891
901.308	20549
901.427	20457
901.546	20590
901.665	20431
901.784	20476
901.904	20332
902.023	20218
902.141	20001
902.26	19974
902.379	20054
902.498	19940
902.617	20016
902.735	19989
902.854	19997
902.973	19860
903.091	19689
903.21	19693
903.328	19696
903.446	19453
903.565	19377
903.683	19434
903.801	19274
903.919	19472
904.038	19403
904.156	19202
904.274	19422
904.392	19255
904.51	19076
904.627	19194
904.745	19297
904.863	19244
904.981	18962
905.098	18779
905.216	18848
905.334	18958
905.451	18863
905.569	18783
905.686	18897
905.803	18848
905.921	18551
906.038	18787
906.155	18642
906.272	18620
906.389	18540
906.506	18395
906.623	18410
906.74	18460
906.857	18285
906.974	18235
907.091	18437
907.208	18426
907.324	18456
907.441	18346
907.557	18087
907.674	18049
907.79	18038
907.907	18049
908.023	18129
908.139	18152
908.256	18022
908.372	17988
908.488	18083
908.604	17771
908.72	17824
908.836	17783
908.952	17851
909.068	17897
909.184	17980
909.3	17722
909.415	17920
909.531	17764
909.647	17562
909.762	17501
909.878	17436
909.993	17573
910.108	17452
910.224	17547
910.339	17444
910.454	17337
910.57	17299
910.685	17170
910.8	17509
910.915	17440
911.03	17307
911.145	17124
911.259	17010
911.374	17124
911.489	16896
911.604	16976
911.718	16866
911.833	16892
911.947	16725
912.062	16675
912.176	16809
912.291	16877
912.405	16816
912.519	16908
912.633	17022
912.748	16854
912.862	16843
912.976	16675
913.09	16538
913.204	16603
913.318	16558
913.431	16698
913.545	16675
913.659	16698
913.772	16592
913.886	16432
914	16295
914.113	16504
914.226	16588
914.34	16386
914.453	16303
914.566	16535
914.68	16246
914.793	16280
914.906	16166
915.019	16101
915.132	15884
915.245	16006
915.358	16021
915.47	16021
915.583	15991
915.696	16109
915.809	16067
915.921	16051
916.034	15926
916.146	15884
916.259	15812
916.371	15835
916.483	16025
916.595	15823
916.708	15838
916.82	15759
916.932	15751
917.044	15751
917.156	15717
917.268	15603
917.38	15720
917.491	15553
917.603	15641
917.715	15675
917.826	15603
917.938	15538
918.049	15443
918.161	15564
918.272	15633
918.384	15637
918.495	15618
918.606	15416
918.717	15294
918.828	15412
918.939	15367
919.05	15260
919.161	15340
919.272	15157
919.383	15268
919.494	15298
919.604	15538
919.715	15351
919.826	15165
919.936	15264
920.047	15355
920.157	15332
920.267	15523
920.378	15329
920.488	15310
920.598	15412
920.708	15561
920.818	15515
920.928	15386
921.038	15523
921.148	15504
921.258	15287
921.368	15108
921.477	15131
921.587	15020
921.697	15013
921.806	15024
921.916	14895
922.025	14716
922.134	14610
922.244	14556
922.353	14678
922.462	14526
922.571	14434
922.68	14248
922.789	14240
922.898	14351
923.007	14233
923.116	14240
923.224	14309
923.333	14233
923.442	14244
923.55	14119
923.659	13986
923.767	14096
923.876	14027
923.984	14298
924.092	13959
924.201	13982
924.309	13959
924.417	13978
924.525	13803
924.633	13955
924.741	14842
924.849	13715
924.956	13871
925.064	13689
925.172	13731
925.279	13715
925.387	13609
925.494	13655
925.602	13712
925.709	13765
925.816	13540
925.924	13605
926.031	13666
926.138	13601
926.245	13563
926.352	13369
926.459	13655
926.566	13620
926.673	13502
926.779	13343
926.886	13339
926.993	13221
927.099	13187
927.206	13187
927.312	13168
927.419	13236
927.525	13164
927.631	13145
927.737	13053
927.843	13050
927.95	12920
928.056	12996
928.162	13076
928.267	13012
928.373	13636
928.479	13095
928.585	12875
928.69	12977
928.796	13023
928.901	12890
929.007	12650
929.112	12749
929.218	12814
929.323	12654
929.428	12726
929.533	12878
929.638	12684
929.743	12665
929.848	12749
929.953	12593
930.058	12582
930.163	12346
930.267	12452
930.372	12608
930.477	12357
930.581	12601
930.685	12448
930.79	12266
930.894	12292
930.998	12224
931.103	12330
931.207	11958
931.311	11912
931.415	11786
931.519	11691
931.623	11596
