Data from test_V78500241_2284.txt Node
Date: Fri Mar 25 15:57:37 CST 2022
User: usil
Spectrometer: V785-0024
Trigger mode: 0
Integration Time (sec): 4.000000E-1
Scans to average: 1
Nonlinearity correction enabled: false
Boxcar width: 0
Storing dark spectrum: false
XAxis mode: Wavelengths
Number of Pixels in Spectrum: 1024
>>>>>Begin Spectral Data<<<<<
801.071	28824
801.214	28862
801.356	28679
801.499	28615
801.641	28656
801.783	28485
801.926	28721
802.068	28653
802.211	28417
802.353	28379
802.496	28363
802.638	28204
802.78	28234
802.923	28265
803.065	28097
803.208	28070
803.35	28284
803.492	28272
803.635	28466
803.777	28447
803.919	28607
804.061	28809
804.204	28569
804.346	28440
804.488	28386
804.63	28428
804.773	28287
804.915	28584
805.057	28546
805.199	28462
805.341	28573
805.483	28660
805.626	28630
805.768	28459
805.91	28508
806.052	28713
806.194	28557
806.336	28885
806.478	28637
806.62	28691
806.762	28801
806.904	28980
807.046	29029
807.188	29147
807.33	29041
807.472	29147
807.614	29052
807.756	29159
807.898	28938
808.04	28946
808.182	28908
808.324	29025
808.465	28984
808.607	29010
808.749	29337
808.891	29421
809.033	29463
809.174	29326
809.316	29353
809.458	29478
809.6	29227
809.741	29433
809.883	29463
810.025	29642
810.166	29741
810.308	29649
810.45	29646
810.591	29459
810.733	29292
810.875	29375
811.016	29330
811.158	29337
811.299	29299
811.441	29474
811.582	29551
811.724	29360
811.865	29307
812.007	29280
812.148	29288
812.29	29303
812.431	29433
812.573	29646
812.714	29828
812.855	29855
812.997	29950
813.138	30117
813.279	30045
813.421	29824
813.562	29828
813.703	29783
813.845	29585
813.986	29288
814.127	29204
814.268	29102
814.41	29098
814.551	29014
814.692	29132
814.833	28866
814.974	29025
815.115	29079
815.256	29025
815.397	28896
815.539	28949
815.68	28911
815.821	28812
815.962	28961
816.103	28816
816.244	28721
816.385	28557
816.526	28565
816.666	28466
816.807	28405
816.948	28474
817.089	28481
817.23	28405
817.371	28295
817.512	28424
817.653	28249
817.793	28382
817.934	28375
818.075	28310
818.216	28314
818.356	28367
818.497	28268
818.638	28078
818.778	28101
818.919	28135
819.06	28158
819.2	28230
819.341	28424
819.481	28363
819.622	28569
819.762	28706
819.903	28733
820.043	28550
820.184	28459
820.324	28512
820.465	28519
820.605	28546
820.746	28436
820.886	28401
821.026	28531
821.167	28466
821.307	28508
821.447	28360
821.588	28481
821.728	28265
821.868	27876
822.008	27934
822.149	27987
822.289	27846
822.429	27500
822.569	27431
822.709	27481
822.849	27279
822.99	27443
823.13	27344
823.27	27317
823.41	27298
823.55	27161
823.69	27252
823.83	27310
823.97	27146
824.11	26933
824.25	26914
824.389	27089
824.529	27161
824.669	26906
824.809	27176
824.949	27176
825.089	27119
825.228	27161
825.368	26925
825.508	26895
825.648	26929
825.787	26967
825.927	27062
826.067	26960
826.206	26899
826.346	27062
826.485	26872
826.625	26864
826.765	27100
826.904	26902
827.044	26731
827.183	26689
827.323	26568
827.462	26571
827.601	26720
827.741	26651
827.88	26590
828.02	26530
828.159	26575
828.298	26655
828.437	26731
828.577	26469
828.716	26785
828.855	26552
828.994	26286
829.134	26438
829.273	26381
829.412	26248
829.551	26263
829.69	26351
829.829	26290
829.968	26317
830.107	26404
830.246	26286
830.385	26199
830.524	26221
830.663	25997
830.802	26046
830.941	25921
831.08	25963
831.219	25970
831.357	25986
831.496	26024
831.635	25890
831.774	25769
831.913	25795
832.051	25765
832.19	25746
832.329	25700
832.467	25594
832.606	25544
832.744	25502
832.883	25575
833.022	25495
833.16	25685
833.299	25712
833.437	25567
833.576	25681
833.714	25712
833.852	25685
833.991	25750
834.129	25795
834.267	25738
834.406	25628
834.544	25696
834.682	25662
834.821	25761
834.959	25864
835.097	25624
835.235	25712
835.373	25658
835.511	25506
835.65	25415
835.788	25487
835.926	25301
836.064	25320
836.202	25411
836.34	25525
836.478	25453
836.615	25422
836.753	25559
836.891	25556
837.029	25506
837.167	25377
837.305	25183
837.443	25365
837.58	25304
837.718	25426
837.856	25301
837.993	25244
838.131	25259
838.269	25171
838.406	25194
838.544	25091
838.681	24939
838.819	25057
838.956	24722
839.094	24795
839.231	24844
839.369	24894
839.506	25141
839.643	25015
839.781	24658
839.918	24707
840.055	24745
840.193	24677
840.33	24509
840.467	24696
840.604	24757
840.742	24894
840.879	24433
841.016	24544
841.153	24479
841.29	24646
841.427	24502
841.564	24623
841.701	24692
841.838	24627
841.975	24475
842.112	24555
842.249	24391
842.385	24410
842.522	24601
842.659	24601
842.796	24486
842.933	24448
843.069	24452
843.206	24239
843.343	24277
843.479	24483
843.616	24361
843.752	24243
843.889	24205
844.025	24414
844.162	24087
844.298	24182
844.435	24117
844.571	24091
844.708	24186
844.844	24296
844.98	24334
845.117	24350
845.253	24197
845.389	23992
845.525	24125
845.661	24091
845.798	23863
845.934	23984
846.07	23935
846.206	23965
846.342	24026
846.478	23893
846.614	23707
846.75	23558
846.886	23531
847.022	23752
847.158	23657
847.294	23551
847.429	23756
847.565	23642
847.701	23904
847.837	23467
847.972	23337
848.108	23474
848.244	23444
848.379	23277
848.515	23231
848.65	23121
848.786	23208
848.921	23330
849.057	23372
849.192	23372
849.328	23296
849.463	23334
849.598	23216
849.734	23143
849.869	23075
850.004	23014
850.14	23014
850.275	23003
850.41	22934
850.545	22999
850.68	22843
850.815	22965
850.95	22911
851.085	23124
851.22	23056
851.355	23124
851.49	23006
851.625	22991
851.76	22987
851.895	22961
852.03	22991
852.165	23117
852.299	23048
852.434	23029
852.569	23083
852.703	22968
852.838	23136
852.973	23181
853.107	23132
853.242	22896
853.376	22889
853.511	22752
853.645	22828
853.78	23014
853.914	22733
854.048	22816
854.183	22782
854.317	22828
854.451	22980
854.585	22831
854.72	22847
854.854	22930
854.988	22820
855.122	22885
855.256	22733
855.39	22847
855.524	22869
855.658	22972
855.792	22892
855.926	22831
856.06	22949
856.194	22900
856.327	22713
856.461	22763
856.595	22869
856.729	22767
856.862	22900
856.996	22767
857.13	22896
857.263	22919
857.397	22965
857.53	22801
857.664	22930
857.797	22961
857.931	22987
858.064	22938
858.197	22953
858.331	22744
858.464	22824
858.597	22637
858.731	22744
858.864	22900
858.997	22740
859.13	22767
859.263	22934
859.396	22961
859.529	22881
859.662	22694
859.795	22793
859.928	22805
860.061	22850
860.194	22980
860.327	22873
860.46	22816
860.592	22968
860.725	22923
860.858	22919
860.99	22835
861.123	22717
861.256	22774
861.388	22733
861.521	23421
861.653	22546
861.786	22683
861.918	22607
862.05	22694
862.183	22809
862.315	22710
862.447	22927
862.58	22634
862.712	22603
862.844	22508
862.976	22588
863.108	22641
863.24	22965
863.372	22356
863.504	22550
863.636	22550
863.768	22615
863.9	22531
864.032	22451
864.164	22405
864.296	22653
864.428	22653
864.559	22478
864.691	22565
864.823	22607
864.954	22531
865.086	22436
865.217	22348
865.349	22230
865.48	22462
865.612	22394
865.743	22504
865.875	22424
866.006	22329
866.137	22337
866.269	22394
866.4	22440
866.531	22257
866.662	22325
866.793	22348
866.924	22417
867.055	22348
867.186	22360
867.317	22371
867.448	22265
867.579	22440
867.71	22261
867.841	22291
867.972	22303
868.103	22329
868.233	22306
868.364	22382
868.495	22440
868.625	22466
868.756	22592
868.886	22455
869.017	22557
869.147	22672
869.278	22721
869.408	22550
869.539	22615
869.669	22565
869.799	22698
869.929	22641
870.06	22588
870.19	22843
870.32	22790
870.45	22847
870.58	22946
870.71	23014
870.84	23029
870.97	22911
871.1	22908
871.23	22965
871.36	23098
871.489	22991
871.619	23151
871.749	23261
871.879	23128
872.008	23273
872.138	23170
872.267	23102
872.397	23018
872.526	22923
872.656	22869
872.785	23041
872.915	23174
873.044	23273
873.173	23006
873.303	23239
873.432	23170
873.561	23242
873.69	23132
873.819	23151
873.948	23265
874.077	23102
874.206	23212
874.335	23060
874.464	23258
874.593	23383
874.722	23326
874.851	23436
874.979	23387
875.108	23395
875.237	23155
875.365	23280
875.494	23330
875.623	23547
875.751	23307
875.88	23341
876.008	23387
876.136	23539
876.265	23733
876.393	23802
876.521	23779
876.65	23802
876.778	23726
876.906	23684
877.034	23634
877.162	23729
877.29	23707
877.418	23737
877.546	23672
877.674	23771
877.802	23809
877.93	23627
878.058	23672
878.185	23649
878.313	23630
878.441	23687
878.568	23509
878.696	23710
878.824	23805
878.951	23832
879.079	23984
879.206	24125
879.333	23840
879.461	23737
879.588	23718
879.715	23889
879.842	23984
879.97	23817
880.097	23596
880.224	23497
880.351	23558
880.478	23509
880.605	23493
880.732	23600
880.859	23695
880.986	23421
881.112	23509
881.239	23440
881.366	23204
881.493	23094
881.619	23105
881.746	23140
881.872	23204
881.999	23060
882.125	23048
882.252	23006
882.378	22949
882.505	23044
882.631	22828
882.757	22812
882.883	23010
883.01	22740
883.136	22767
883.262	22637
883.388	22611
883.514	22637
883.64	22831
883.766	22615
883.892	22592
884.018	22713
884.143	22801
884.269	22782
884.395	22291
884.52	22360
884.646	22462
884.772	22371
884.897	22284
885.023	22352
885.148	22485
885.274	22641
885.399	22577
885.524	22382
885.65	22523
885.775	22470
885.9	22535
886.025	22481
886.15	22394
886.275	22379
886.4	22242
886.525	22337
886.65	22337
886.775	22360
886.9	22466
887.025	22630
887.149	22325
887.274	22261
887.399	22112
887.523	22150
887.648	22131
887.773	22143
887.897	22322
888.021	22109
888.146	22131
888.27	22268
888.395	22169
888.519	22128
888.643	22131
888.767	22211
888.891	22116
889.015	21892
889.139	22044
889.263	21956
889.387	22036
889.511	22173
889.635	22147
889.759	21850
889.883	21892
890.006	21907
890.13	21987
890.254	21949
890.377	21838
890.501	21618
890.624	21709
890.748	21747
890.871	21523
890.995	21553
891.118	21466
891.241	21488
891.364	21450
891.488	21462
891.611	21462
891.734	21481
891.857	21633
891.98	21435
892.103	21454
892.226	21389
892.349	21534
892.471	21241
892.594	21389
892.717	21370
892.839	21496
892.962	21412
893.085	21450
893.207	21188
893.33	21108
893.452	21192
893.575	21367
893.697	21279
893.819	21397
893.941	21538
894.064	21519
894.186	21237
894.308	21233
894.43	21374
894.552	21443
894.674	21340
894.796	21249
894.918	21169
895.04	21378
895.161	21336
895.283	21374
895.405	21393
895.526	21355
895.648	21378
895.769	21325
895.891	21382
896.012	21466
896.134	21401
896.255	21340
896.376	21260
896.498	21370
896.619	21348
896.74	21306
896.861	21222
896.982	21644
897.103	21804
897.224	21583
897.345	21523
897.466	21401
897.587	21496
897.708	21663
897.828	21473
897.949	21401
898.07	21302
898.19	21473
898.311	21648
898.431	21408
898.552	21431
898.672	21519
898.792	21599
898.913	21545
899.033	21249
899.153	21321
899.273	21275
899.393	21374
899.513	21401
899.633	21252
899.753	21336
899.873	21211
899.993	21298
900.113	21104
900.232	21252
900.352	21119
900.472	21039
900.591	21024
900.711	21062
900.83	20963
900.95	21146
901.069	21081
901.189	20902
901.308	20613
901.427	20571
901.546	20583
901.665	20636
901.784	20552
901.904	20514
902.023	20286
902.141	20214
902.26	20050
902.379	20077
902.498	20077
902.617	20035
902.735	20077
902.854	20016
902.973	19944
903.091	19715
903.21	19700
903.328	19689
903.446	19601
903.565	19487
903.683	19548
903.801	19373
903.919	19483
904.038	19449
904.156	19381
904.274	19331
904.392	19289
904.51	19301
904.627	19236
904.745	19365
904.863	19339
904.981	18989
905.098	18935
905.216	19023
905.334	18993
905.451	18913
905.569	18981
905.686	19012
905.803	18966
905.921	18753
906.038	18802
906.155	18757
906.272	18616
906.389	18738
906.506	18391
906.623	18437
906.74	18410
906.857	18418
906.974	18384
907.091	18532
907.208	18540
907.324	18452
907.441	18456
907.557	18224
907.674	18289
907.79	18197
907.907	18057
908.023	18235
908.139	18144
908.256	18140
908.372	18106
908.488	18038
908.604	17908
908.72	17870
908.836	17980
908.952	17786
909.068	17813
909.184	17969
909.3	17794
909.415	17942
909.531	17821
909.647	17665
909.762	17623
909.878	17627
909.993	17573
910.108	17547
910.224	17562
910.339	17551
910.454	17471
910.57	17391
910.685	17307
910.8	17539
910.915	17516
911.03	17341
911.145	17159
911.259	17220
911.374	17132
911.489	17117
911.604	17041
911.718	16965
911.833	16881
911.947	16858
912.062	16759
912.176	16949
912.291	17010
912.405	16877
912.519	17033
912.633	17048
912.748	16843
912.862	16953
912.976	16653
913.09	16679
913.204	16748
913.318	16691
913.431	16793
913.545	16778
913.659	16683
913.772	16626
913.886	16493
914	16538
914.113	16592
914.226	16618
914.34	16424
914.453	16379
914.566	16493
914.68	16447
914.793	16333
914.906	16177
915.019	16071
915.132	15991
915.245	16086
915.358	16051
915.47	16040
915.583	16036
915.696	16071
915.809	16211
915.921	16223
916.034	15926
916.146	15903
916.259	15953
916.371	16105
916.483	16135
916.595	15937
916.708	15994
916.82	15850
916.932	15770
917.044	15861
917.156	15759
917.268	15671
917.38	15808
917.491	15694
917.603	15751
917.715	15766
917.826	15823
917.938	15705
918.049	15637
918.161	15591
918.272	15808
918.384	15762
918.495	15557
918.606	15485
918.717	15401
918.828	15386
918.939	15538
919.05	15401
919.161	15420
919.272	15252
919.383	15298
919.494	15439
919.604	15667
919.715	15378
919.826	15355
919.936	15329
920.047	15500
920.157	15431
920.267	15580
920.378	15359
920.488	15344
920.598	15564
920.708	15713
920.818	15405
920.928	15534
921.038	15584
921.148	15599
921.258	15370
921.368	15230
921.477	15135
921.587	15131
921.697	14975
921.806	15070
921.916	15020
922.025	14792
922.134	14697
922.244	14697
922.353	14762
922.462	14625
922.571	14590
922.68	14404
922.789	14438
922.898	14431
923.007	14339
923.116	14370
923.224	14336
923.333	14320
923.442	14305
923.55	14168
923.659	14252
923.767	14206
923.876	14039
923.984	14214
924.092	14103
924.201	14142
924.309	14123
924.417	14183
924.525	14149
924.633	14024
924.741	15001
924.849	13807
924.956	13928
925.064	13833
925.172	13662
925.279	13712
925.387	13753
925.494	13765
925.602	13917
925.709	13776
925.816	13704
925.924	13636
926.031	13677
926.138	13689
926.245	13658
926.352	13586
926.459	13609
926.566	13696
926.673	13605
926.779	13483
926.886	13487
926.993	13381
927.099	13316
927.206	13282
927.312	13209
927.419	13259
927.525	13301
927.631	13274
927.737	13129
927.843	13122
927.95	12985
928.056	13080
928.162	13019
928.267	13091
928.373	13784
928.479	13209
928.585	12909
928.69	13110
928.796	13012
928.901	12958
929.007	12840
929.112	12947
929.218	12920
929.323	12856
929.428	12806
929.533	12935
929.638	12787
929.743	12783
929.848	12734
929.953	12700
930.058	12654
930.163	12452
930.267	12456
930.372	12597
930.477	12342
930.581	12654
930.685	12486
930.79	12357
930.894	12315
930.998	12311
931.103	12490
931.207	12098
931.311	11984
931.415	11954
931.519	11805
931.623	11699
