Data from test_V78500241_2609.txt Node
Date: Fri Mar 25 15:59:52 CST 2022
User: usil
Spectrometer: V785-0024
Trigger mode: 0
Integration Time (sec): 4.000000E-1
Scans to average: 1
Nonlinearity correction enabled: false
Boxcar width: 0
Storing dark spectrum: false
XAxis mode: Wavelengths
Number of Pixels in Spectrum: 1024
>>>>>Begin Spectral Data<<<<<
801.071	28911
801.214	28694
801.356	28577
801.499	28413
801.641	28409
801.783	28363
801.926	28641
802.068	28325
802.211	28417
802.353	28284
802.496	28246
802.638	28131
802.78	28051
802.923	28093
803.065	28025
803.208	28139
803.35	28207
803.492	28295
803.635	28352
803.777	28363
803.919	28367
804.061	28694
804.204	28413
804.346	28261
804.488	28341
804.63	28211
804.773	28310
804.915	28337
805.057	28538
805.199	28504
805.341	28508
805.483	28325
805.626	28630
805.768	28394
805.91	28527
806.052	28607
806.194	28447
806.336	28675
806.478	28588
806.62	28557
806.762	28721
806.904	28809
807.046	29105
807.188	29094
807.33	29010
807.472	28999
807.614	28946
807.756	28908
807.898	28835
808.04	28736
808.182	28847
808.324	28831
808.465	28763
808.607	29162
808.749	29235
808.891	29383
809.033	29337
809.174	29341
809.316	29273
809.458	29200
809.6	29246
809.741	29387
809.883	29410
810.025	29486
810.166	29562
810.308	29592
810.45	29482
810.591	29406
810.733	29318
810.875	29132
811.016	29166
811.158	29052
811.299	29318
811.441	29360
811.582	29391
811.724	29223
811.865	29212
812.007	29174
812.148	29269
812.29	29379
812.431	29467
812.573	29687
812.714	29627
812.855	29745
812.997	29889
813.138	30018
813.279	29977
813.421	29752
813.562	29680
813.703	29543
813.845	29368
813.986	29288
814.127	29075
814.268	28938
814.41	29037
814.551	28946
814.692	29094
814.833	28752
814.974	29056
815.115	28885
815.256	28923
815.397	28873
815.539	28748
815.68	28782
815.821	28771
815.962	28858
816.103	28748
816.244	28683
816.385	28428
816.526	28607
816.666	28348
816.807	28295
816.948	28394
817.089	28417
817.23	28318
817.371	28375
817.512	28325
817.653	28356
817.793	28272
817.934	28093
818.075	28295
818.216	28360
818.356	28337
818.497	28185
818.638	28082
818.778	28017
818.919	28124
819.06	28040
819.2	28105
819.341	28261
819.481	28280
819.622	28413
819.762	28573
819.903	28527
820.043	28386
820.184	28451
820.324	28443
820.465	28382
820.605	28451
820.746	28432
820.886	28375
821.026	28386
821.167	28333
821.307	28508
821.447	28424
821.588	28306
821.728	28169
821.868	27895
822.008	27888
822.149	27827
822.289	27762
822.429	27561
822.569	27439
822.709	27557
822.849	27150
822.99	27302
823.13	27374
823.27	27279
823.41	27058
823.55	27157
823.69	27184
823.83	27100
823.97	27001
824.11	27005
824.25	26944
824.389	26925
824.529	26902
824.669	27013
824.809	27055
824.949	27108
825.089	27020
825.228	26990
825.368	26842
825.508	26807
825.648	26880
825.787	26598
825.927	27043
826.067	26769
826.206	26758
826.346	26819
826.485	26902
826.625	26739
826.765	26804
826.904	26769
827.044	26731
827.183	26655
827.323	26537
827.462	26530
827.601	26533
827.741	26488
827.88	26492
828.02	26507
828.159	26343
828.298	26514
828.437	26545
828.577	26587
828.716	26602
828.855	26545
828.994	26362
829.134	26290
829.273	26290
829.412	26130
829.551	26248
829.69	26183
829.829	26221
829.968	26176
830.107	26320
830.246	26256
830.385	26126
830.524	26134
830.663	25997
830.802	25860
830.941	25750
831.08	25826
831.219	25864
831.357	25902
831.496	26100
831.635	25841
831.774	25704
831.913	25750
832.051	25651
832.19	25620
832.329	25719
832.467	25419
832.606	25430
832.744	25438
832.883	25567
833.022	25384
833.16	25521
833.299	25586
833.437	25575
833.576	25491
833.714	25586
833.852	25620
833.991	25750
834.129	25632
834.267	25670
834.406	25449
834.544	25556
834.682	25514
834.821	25582
834.959	25734
835.097	25422
835.235	25499
835.373	25472
835.511	25453
835.65	25396
835.788	25293
835.926	25251
836.064	25179
836.202	25289
836.34	25457
836.478	25453
836.615	25343
836.753	25278
836.891	25438
837.029	25453
837.167	25415
837.305	25232
837.443	25206
837.58	25137
837.718	25449
837.856	25084
837.993	25190
838.131	25179
838.269	25061
838.406	25308
838.544	25027
838.681	24958
838.819	24924
838.956	24642
839.094	24642
839.231	24684
839.369	24863
839.506	25031
839.643	24966
839.781	24730
839.918	24646
840.055	24604
840.193	24620
840.33	24661
840.467	24669
840.604	24566
840.742	24856
840.879	24369
841.016	24372
841.153	24456
841.29	24604
841.427	24475
841.564	24722
841.701	24456
841.838	24445
841.975	24456
842.112	24513
842.249	24289
842.385	24346
842.522	24456
842.659	24372
842.796	24270
842.933	24350
843.069	24304
843.206	24121
843.343	24365
843.479	24334
843.616	24281
843.752	24163
843.889	24140
844.025	24251
844.162	23961
844.298	24125
844.435	24114
844.571	24064
844.708	24270
844.844	24285
844.98	24247
845.117	24292
845.253	24015
845.389	23984
845.525	23965
845.661	23935
845.798	23771
845.934	23897
846.07	23783
846.206	23859
846.342	23824
846.478	23863
846.614	23528
846.75	23570
846.886	23581
847.022	23581
847.158	23547
847.294	23490
847.429	23627
847.565	23520
847.701	23756
847.837	23250
847.972	23273
848.108	23349
848.244	23322
848.379	23235
848.515	23121
848.65	23067
848.786	23235
848.921	23242
849.057	23185
849.192	23330
849.328	23258
849.463	23143
849.598	23079
849.734	23010
849.869	23075
850.004	22797
850.14	22881
850.275	22957
850.41	22904
850.545	22767
850.68	23003
850.815	22885
850.95	22828
851.085	23075
851.22	23022
851.355	22991
851.49	22919
851.625	22961
851.76	22839
851.895	22809
852.03	22839
852.165	22949
852.299	22946
852.434	22949
852.569	22949
852.703	22900
852.838	22984
852.973	23003
853.107	23018
853.242	22839
853.376	22828
853.511	22645
853.645	22622
853.78	22752
853.914	22801
854.048	22607
854.183	22656
854.317	22740
854.451	22881
854.585	22733
854.72	22713
854.854	22839
854.988	22577
855.122	22710
855.256	22637
855.39	22713
855.524	22702
855.658	22748
855.792	22740
855.926	22828
856.06	22744
856.194	22755
856.327	22691
856.461	22710
856.595	22691
856.729	22634
856.862	22744
856.996	22725
857.13	22733
857.263	22744
857.397	22843
857.53	22713
857.664	22763
857.797	22710
857.931	22854
858.064	22809
858.197	22771
858.331	22713
858.464	22706
858.597	22584
858.731	22786
858.864	22660
858.997	22588
859.13	22664
859.263	22877
859.396	22797
859.529	22622
859.662	22611
859.795	22672
859.928	22752
860.061	22911
860.194	23022
860.327	22805
860.46	22835
860.592	22854
860.725	22889
860.858	22805
860.99	22721
861.123	22691
861.256	22607
861.388	22752
861.521	23334
861.653	22577
861.786	22519
861.918	22489
862.05	22641
862.183	22607
862.315	22702
862.447	22710
862.58	22489
862.712	22470
862.844	22500
862.976	22481
863.108	22432
863.24	22835
863.372	22344
863.504	22451
863.636	22447
863.768	22489
863.9	22508
864.032	22280
864.164	22386
864.296	22390
864.428	22500
864.559	22489
864.691	22489
864.823	22421
864.954	22352
865.086	22440
865.217	22466
865.349	22325
865.48	22348
865.612	22287
865.743	22344
865.875	22318
866.006	22284
866.137	22230
866.269	22421
866.4	22295
866.531	22067
866.662	22154
866.793	22204
866.924	22276
867.055	22185
867.186	22196
867.317	22162
867.448	22234
867.579	22185
867.71	22185
867.841	21930
867.972	22257
868.103	22291
868.233	22226
868.364	22322
868.495	22341
868.625	22352
868.756	22611
868.886	22398
869.017	22417
869.147	22569
869.278	22527
869.408	22538
869.539	22398
869.669	22459
869.799	22527
869.929	22649
870.06	22546
870.19	22618
870.32	22778
870.45	22824
870.58	22961
870.71	22949
870.84	22908
870.97	22809
871.1	22957
871.23	22976
871.36	23044
871.489	22946
871.619	23014
871.749	23037
871.879	22995
872.008	23220
872.138	23102
872.267	23041
872.397	22957
872.526	23044
872.656	22927
872.785	22873
872.915	23102
873.044	23166
873.173	22984
873.303	23044
873.432	23098
873.561	23261
873.69	23193
873.819	23025
873.948	23166
874.077	23064
874.206	23025
874.335	23071
874.464	23193
874.593	23318
874.722	23258
874.851	23383
874.979	23254
875.108	23395
875.237	23231
875.365	23147
875.494	23318
875.623	23307
875.751	23360
875.88	23261
876.008	23402
876.136	23444
876.265	23642
876.393	23817
876.521	23764
876.65	23843
876.778	23661
876.906	23638
877.034	23551
877.162	23589
877.29	23436
877.418	23699
877.546	23775
877.674	23604
877.802	23752
877.93	23638
878.058	23573
878.185	23421
878.313	23600
878.441	23482
878.568	23455
878.696	23604
878.824	23707
878.951	23718
879.079	23786
879.206	23916
879.333	23756
879.461	23703
879.588	23882
879.715	23840
879.842	23870
879.97	23661
880.097	23509
880.224	23474
880.351	23551
880.478	23543
880.605	23337
880.732	23440
880.859	23699
880.986	23463
881.112	23398
881.239	23273
881.366	23140
881.493	23071
881.619	22987
881.746	23140
881.872	23056
881.999	22984
882.125	22919
882.252	23029
882.378	22930
882.505	23033
882.631	22854
882.757	22816
882.883	22740
883.01	22592
883.136	22759
883.262	22592
883.388	22523
883.514	22622
883.64	22698
883.766	22660
883.892	22394
884.018	22428
884.143	22554
884.269	22618
884.395	22375
884.52	22268
884.646	22352
884.772	22177
884.897	22249
885.023	22382
885.148	22348
885.274	22481
885.399	22542
885.524	22348
885.65	22318
885.775	22390
885.9	22082
886.025	22337
886.15	22519
886.275	22226
886.4	22291
886.525	22253
886.65	22295
886.775	22230
886.9	22398
887.025	22436
887.149	22192
887.274	22090
887.399	22112
887.523	22059
887.648	21975
887.773	21956
887.897	22082
888.021	22143
888.146	22002
888.27	22246
888.395	22055
888.519	22055
888.643	22078
888.767	22097
888.891	22070
889.015	21922
889.139	21895
889.263	21739
889.387	21956
889.511	22120
889.635	22017
889.759	21747
889.883	21835
890.006	21831
890.13	21873
890.254	21690
890.377	21819
890.501	21568
890.624	21652
890.748	21667
890.871	21447
890.995	21458
891.118	21256
891.241	21477
891.364	21401
891.488	21439
891.611	21488
891.734	21359
891.857	21416
891.98	21355
892.103	21412
892.226	21382
892.349	21466
892.471	21138
892.594	21249
892.717	21302
892.839	21344
892.962	21386
893.085	21447
893.207	21325
893.33	21131
893.452	21222
893.575	21310
893.697	21249
893.819	21378
893.941	21587
894.064	21378
894.186	21165
894.308	21294
894.43	21283
894.552	21382
894.674	21336
894.796	21051
894.918	21325
895.04	21249
895.161	21264
895.283	21302
895.405	21264
895.526	21214
895.648	21310
895.769	21287
895.891	21310
896.012	21355
896.134	21359
896.255	21279
896.376	21268
896.498	21298
896.619	21237
896.74	21222
896.861	21370
896.982	21694
897.103	21690
897.224	21485
897.345	21492
897.466	21370
897.587	21447
897.708	21656
897.828	21458
897.949	21450
898.07	21332
898.19	21488
898.311	21542
898.431	21401
898.552	21439
898.672	21492
898.792	21519
898.913	21580
899.033	21370
899.153	21298
899.273	21093
899.393	21279
899.513	21211
899.633	21039
899.753	21226
899.873	21112
899.993	21146
900.113	21161
900.232	21070
900.352	21009
900.472	20994
900.591	20891
900.711	21077
900.83	21024
900.95	21036
901.069	21017
901.189	20777
901.308	20644
901.427	20522
901.546	20434
901.665	20644
901.784	20545
901.904	20317
902.023	20294
902.141	20153
902.26	20058
902.379	20187
902.498	19978
902.617	19845
902.735	20046
902.854	19989
902.973	19902
903.091	19696
903.21	19613
903.328	19643
903.446	19506
903.565	19529
903.683	19358
903.801	19411
903.919	19510
904.038	19445
904.156	19171
904.274	19274
904.392	19301
904.51	19103
904.627	19160
904.745	19244
904.863	19308
904.981	19038
905.098	18901
905.216	18848
905.334	18954
905.451	18943
905.569	18920
905.686	18852
905.803	18890
905.921	18608
906.038	18802
906.155	18677
906.272	18593
906.389	18612
906.506	18414
906.623	18502
906.74	18365
906.857	18327
906.974	18323
907.091	18403
907.208	18506
907.324	18429
907.441	18319
907.557	18209
907.674	18140
907.79	18053
907.907	18019
908.023	18110
908.139	18068
908.256	18148
908.372	17992
908.488	18015
908.604	17885
908.72	17874
908.836	17863
908.952	17878
909.068	17790
909.184	17992
909.3	17798
909.415	17863
909.531	17809
909.647	17562
909.762	17562
909.878	17528
909.993	17467
910.108	17509
910.224	17551
910.339	17379
910.454	17368
910.57	17254
910.685	17231
910.8	17619
910.915	17528
911.03	17269
911.145	17132
911.259	17124
911.374	17083
911.489	17022
911.604	16987
911.718	16828
911.833	16843
911.947	16778
912.062	16603
912.176	16877
912.291	16900
912.405	16778
912.519	17071
912.633	16942
912.748	16873
912.862	16930
912.976	16698
913.09	16523
913.204	16645
913.318	16713
913.431	16694
913.545	16736
913.659	16771
913.772	16554
913.886	16417
914	16428
914.113	16603
914.226	16527
914.34	16538
914.453	16325
914.566	16466
914.68	16352
914.793	16299
914.906	16029
915.019	16021
915.132	15979
915.245	15960
915.358	16048
915.47	15964
915.583	16044
915.696	16063
915.809	16074
915.921	16032
916.034	15907
916.146	15873
916.259	15918
916.371	15930
916.483	15903
916.595	15778
916.708	15755
916.82	15827
916.932	15785
917.044	15804
917.156	15751
917.268	15652
917.38	15644
917.491	15656
917.603	15724
917.715	15732
917.826	15751
917.938	15610
918.049	15477
918.161	15507
918.272	15705
918.384	15720
918.495	15515
918.606	15443
918.717	15412
918.828	15408
918.939	15367
919.05	15291
919.161	15321
919.272	15108
919.383	15233
919.494	15325
919.604	15500
919.715	15214
919.826	15161
919.936	15340
920.047	15336
920.157	15306
920.267	15511
920.378	15298
920.488	15310
920.598	15435
920.708	15549
920.818	15450
920.928	15454
921.038	15538
921.148	15496
921.258	15310
921.368	15150
921.477	15093
921.587	15051
921.697	14937
921.806	15055
921.916	14868
922.025	14720
922.134	14697
922.244	14590
922.353	14663
922.462	14537
922.571	14484
922.68	14339
922.789	14347
922.898	14278
923.007	14233
923.116	14275
923.224	14355
923.333	14252
923.442	14195
923.55	14031
923.659	14103
923.767	14115
923.876	14115
923.984	14111
924.092	13909
924.201	13997
924.309	14054
924.417	14058
924.525	13921
924.633	13864
924.741	14883
924.849	13852
924.956	13917
925.064	13772
925.172	13647
925.279	13681
925.387	13765
925.494	13693
925.602	13757
925.709	13750
925.816	13651
925.924	13597
926.031	13677
926.138	13639
926.245	13639
926.352	13552
926.459	13651
926.566	13685
926.673	13616
926.779	13422
926.886	13411
926.993	13175
927.099	13232
927.206	13149
927.312	13015
927.419	13266
927.525	13217
927.631	13194
927.737	12989
927.843	13107
927.95	12970
928.056	13027
928.162	12989
928.267	12947
928.373	13556
928.479	13080
928.585	12875
928.69	12920
928.796	13000
928.901	12852
929.007	12719
929.112	12867
929.218	12817
929.323	12768
929.428	12806
929.533	12795
929.638	12696
929.743	12620
929.848	12730
929.953	12662
930.058	12555
930.163	12441
930.267	12437
930.372	12601
930.477	12437
930.581	12563
930.685	12464
930.79	12319
930.894	12247
930.998	12266
931.103	12357
931.207	12072
931.311	11942
931.415	11866
931.519	11726
931.623	11592
