Data from test_V78500241_151.txt Node
Date: Fri Mar 25 15:42:50 CST 2022
User: usil
Spectrometer: V785-0024
Trigger mode: 0
Integration Time (sec): 4.000000E-1
Scans to average: 1
Nonlinearity correction enabled: false
Boxcar width: 0
Storing dark spectrum: false
XAxis mode: Wavelengths
Number of Pixels in Spectrum: 1024
>>>>>Begin Spectral Data<<<<<
801.071	29783
801.214	29592
801.356	29307
801.499	29258
801.641	29029
801.783	29227
801.926	29170
802.068	29060
802.211	29071
802.353	28961
802.496	28755
802.638	28862
802.78	28713
802.923	28660
803.065	28656
803.208	28675
803.35	28763
803.492	28873
803.635	28984
803.777	28755
803.919	28828
804.061	29178
804.204	28953
804.346	28748
804.488	28831
804.63	28915
804.773	28843
804.915	28866
805.057	28885
805.199	28862
805.341	28854
805.483	28919
805.626	28961
805.768	28908
805.91	28946
806.052	29094
806.194	28987
806.336	29079
806.478	29037
806.62	28904
806.762	29132
806.904	29318
807.046	29353
807.188	29318
807.33	29353
807.472	29436
807.614	29223
807.756	29242
807.898	29208
808.04	29094
808.182	29033
808.324	29136
808.465	29140
808.607	29284
808.749	29486
808.891	29608
809.033	29665
809.174	29528
809.316	29505
809.458	29379
809.6	29398
809.741	29722
809.883	29543
810.025	29756
810.166	29699
810.308	29691
810.45	29703
810.591	29566
810.733	29547
810.875	29497
811.016	29322
811.158	29216
811.299	29554
811.441	29684
811.582	29634
811.724	29402
811.865	29326
812.007	29452
812.148	29315
812.29	29627
812.431	29467
812.573	29809
812.714	29878
812.855	29851
812.997	29939
813.138	30121
813.279	30053
813.421	29973
813.562	29958
813.703	29680
813.845	29638
813.986	29265
814.127	29235
814.268	29006
814.41	29075
814.551	29086
814.692	29075
814.833	28987
814.974	29006
815.115	28999
815.256	28843
815.397	28843
815.539	28850
815.68	28683
815.821	28771
815.962	28828
816.103	28717
816.244	28577
816.385	28599
816.526	28413
816.666	28409
816.807	28303
816.948	28234
817.089	28322
817.23	28215
817.371	28166
817.512	28196
817.653	27994
817.793	28116
817.934	28101
818.075	28143
818.216	28169
818.356	28070
818.497	27941
818.638	27953
818.778	27846
818.919	27892
819.06	27953
819.2	28086
819.341	28017
819.481	28101
819.622	28143
819.762	28405
819.903	28325
820.043	28215
820.184	28185
820.324	28234
820.465	28238
820.605	28051
820.746	28204
820.886	28070
821.026	28253
821.167	28044
821.307	28287
821.447	28204
821.588	28021
821.728	27873
821.868	27595
822.008	27397
822.149	27564
822.289	27545
822.429	27351
822.569	27150
822.709	27135
822.849	27043
822.99	27043
823.13	26880
823.27	26857
823.41	26834
823.55	26701
823.69	26720
823.83	26686
823.97	26560
824.11	26678
824.25	26396
824.389	26514
824.529	26556
824.669	26655
824.809	26682
824.949	26724
825.089	26693
825.228	26530
825.368	26317
825.508	26343
825.648	26537
825.787	26415
825.927	26309
826.067	26324
826.206	26381
826.346	26351
826.485	26351
826.625	26305
826.765	26450
826.904	26267
827.044	26100
827.183	26130
827.323	26050
827.462	26221
827.601	25966
827.741	26103
827.88	25944
828.02	25871
828.159	26054
828.298	25966
828.437	26088
828.577	26027
828.716	26043
828.855	25856
828.994	25776
829.134	25833
829.273	25708
829.412	25635
829.551	25708
829.69	25658
829.829	25647
829.968	25681
830.107	25723
830.246	25628
830.385	25533
830.524	25624
830.663	25438
830.802	25297
830.941	25301
831.08	25110
831.219	25270
831.357	25369
831.496	25396
831.635	25206
831.774	25000
831.913	24966
832.051	24924
832.19	25072
832.329	24928
832.467	24863
832.606	24779
832.744	24905
832.883	24840
833.022	24833
833.16	24817
833.299	24905
833.437	24951
833.576	24886
833.714	24894
833.852	24913
833.991	24897
834.129	24989
834.267	24935
834.406	24711
834.544	24882
834.682	24703
834.821	24814
834.959	24924
835.097	24741
835.235	24810
835.373	24886
835.511	24753
835.65	24734
835.788	24646
835.926	24540
836.064	24422
836.202	24483
836.34	24612
836.478	24722
836.615	24616
836.753	24635
836.891	24772
837.029	24585
837.167	24582
837.305	24502
837.443	24448
837.58	24475
837.718	24456
837.856	24460
837.993	24372
838.131	24391
838.269	24342
838.406	24289
838.544	24232
838.681	24087
838.819	24079
838.956	23897
839.094	23980
839.231	23912
839.369	24064
839.506	24216
839.643	24079
839.781	23821
839.918	23729
840.055	23889
840.193	23733
840.33	23729
840.467	23764
840.604	23840
840.742	23984
840.879	23604
841.016	23615
841.153	23604
841.29	23779
841.427	23790
841.564	23771
841.701	23691
841.838	23756
841.975	23486
842.112	23570
842.249	23528
842.385	23406
842.522	23760
842.659	23497
842.796	23501
842.933	23406
843.069	23471
843.206	23376
843.343	23467
843.479	23520
843.616	23490
843.752	23303
843.889	23235
844.025	23341
844.162	23143
844.298	23239
844.435	23159
844.571	23132
844.708	23170
844.844	23246
844.98	23227
845.117	23189
845.253	23132
845.389	23025
845.525	23098
845.661	23060
845.798	22729
845.934	22854
846.07	22877
846.206	22805
846.342	22889
846.478	22908
846.614	22588
846.75	22546
846.886	22630
847.022	22580
847.158	22611
847.294	22603
847.429	22554
847.565	22523
847.701	22778
847.837	22325
847.972	22143
848.108	22466
848.244	22455
848.379	22124
848.515	22131
848.65	21956
848.786	22097
848.921	22116
849.057	22200
849.192	22280
849.328	22143
849.463	22150
849.598	21975
849.734	21945
849.869	22032
850.004	21869
850.14	21876
850.275	21838
850.41	21842
850.545	21926
850.68	21823
850.815	21888
850.95	21850
851.085	21949
851.22	21994
851.355	21778
851.49	21728
851.625	21759
851.76	21705
851.895	21709
852.03	21694
852.165	21728
852.299	21831
852.434	21892
852.569	21926
852.703	21918
852.838	21728
852.973	21804
853.107	22105
853.242	21850
853.376	21724
853.511	21458
853.645	21534
853.78	21633
853.914	21671
854.048	21648
854.183	21656
854.317	21637
854.451	21770
854.585	21690
854.72	21500
854.854	21861
854.988	21519
855.122	21553
855.256	21530
855.39	21610
855.524	21667
855.658	21637
855.792	21625
855.926	21698
856.06	21610
856.194	21713
856.327	21599
856.461	21660
856.595	21633
856.729	21530
856.862	21679
856.996	21694
857.13	21686
857.263	21759
857.397	21759
857.53	21564
857.664	21557
857.797	21675
857.931	21644
858.064	21648
858.197	21869
858.331	21622
858.464	21530
858.597	21526
858.731	21523
858.864	21549
858.997	21507
859.13	21564
859.263	21679
859.396	21660
859.529	21549
859.662	21599
859.795	21507
859.928	21481
860.061	21557
860.194	21675
860.327	21542
860.46	21557
860.592	21663
860.725	21694
860.858	21614
860.99	21637
861.123	21545
861.256	21488
861.388	21549
861.521	22112
861.653	21389
861.786	21386
861.918	21450
862.05	21504
862.183	21553
862.315	21614
862.447	21629
862.58	21473
862.712	21283
862.844	21363
862.976	21428
863.108	21310
863.24	21644
863.372	21249
863.504	21195
863.636	21237
863.768	21336
863.9	21272
864.032	21218
864.164	21089
864.296	21302
864.428	21374
864.559	21275
864.691	21275
864.823	21195
864.954	21252
865.086	21249
865.217	21096
865.349	21131
865.48	21074
865.612	21093
865.743	21256
865.875	21203
866.006	21180
866.137	21077
866.269	21093
866.4	21043
866.531	21249
866.662	20956
866.793	21104
866.924	20937
867.055	21028
867.186	21142
867.317	21051
867.448	20956
867.579	21062
867.71	20929
867.841	20967
867.972	21104
868.103	20944
868.233	21089
868.364	21020
868.495	21032
868.625	21108
868.756	21454
868.886	21157
869.017	21252
869.147	21420
869.278	21310
869.408	21397
869.539	21386
869.669	21256
869.799	21393
869.929	21538
870.06	21408
870.19	21564
870.32	21443
870.45	21641
870.58	21618
870.71	21713
870.84	21736
870.97	21690
871.1	21629
871.23	21838
871.36	21975
871.489	21709
871.619	21732
871.749	21873
871.879	21972
872.008	22093
872.138	21816
872.267	21865
872.397	21816
872.526	21644
872.656	21736
872.785	21720
872.915	21915
873.044	22124
873.173	21899
873.303	21876
873.432	21827
873.561	22128
873.69	21876
873.819	21918
873.948	22090
874.077	21895
874.206	21850
874.335	21918
874.464	22097
874.593	22097
874.722	22021
874.851	22188
874.979	22261
875.108	22314
875.237	22158
875.365	22162
875.494	22173
875.623	22280
875.751	22074
875.88	22166
876.008	22257
876.136	22432
876.265	22565
876.393	22656
876.521	22615
876.65	22713
876.778	22542
876.906	22531
877.034	22565
877.162	22512
877.29	22466
877.418	22599
877.546	22641
877.674	22481
877.802	22599
877.93	22459
878.058	22478
878.185	22432
878.313	22489
878.441	22474
878.568	22390
878.696	22390
878.824	22687
878.951	22618
879.079	22733
879.206	22710
879.333	22725
879.461	22516
879.588	22645
879.715	22763
879.842	22805
879.97	22550
880.097	22344
880.224	22371
880.351	22333
880.478	22299
880.605	22318
880.732	22280
880.859	22561
880.986	22421
881.112	22310
881.239	22120
881.366	22097
881.493	21846
881.619	21953
881.746	22002
881.872	21937
881.999	21854
882.125	21876
882.252	21930
882.378	21850
882.505	22002
882.631	21743
882.757	21720
882.883	21800
883.01	21724
883.136	21534
883.262	21576
883.388	21408
883.514	21644
883.64	21652
883.766	21545
883.892	21424
884.018	21481
884.143	21595
884.269	21705
884.395	21416
884.52	21393
884.646	21302
884.772	21302
884.897	21272
885.023	21207
885.148	21504
885.274	21325
885.399	21279
885.524	21252
885.65	21283
885.775	21192
885.9	21157
886.025	21374
886.15	21351
886.275	21195
886.4	21203
886.525	21207
886.65	21093
886.775	21127
886.9	21355
887.025	21454
887.149	21237
887.274	21089
887.399	20921
887.523	20937
887.648	20883
887.773	20998
887.897	20918
888.021	21077
888.146	20967
888.27	21119
888.395	21093
888.519	21039
888.643	21032
888.767	21024
888.891	20826
889.015	20800
889.139	20929
889.263	20606
889.387	20960
889.511	21017
889.635	20952
889.759	20758
889.883	20811
890.006	20830
890.13	20758
890.254	20727
890.377	20716
890.501	20602
890.624	20381
890.748	20678
890.871	20358
890.995	20294
891.118	20259
891.241	20446
891.364	20309
891.488	20469
891.611	20298
891.734	20400
891.857	20400
891.98	20377
892.103	20427
892.226	20362
892.349	20324
892.471	20092
892.594	20199
892.717	20362
892.839	20294
892.962	20278
893.085	20442
893.207	20206
893.33	20161
893.452	20172
893.575	20210
893.697	20164
893.819	20339
893.941	20507
894.064	20381
894.186	20278
894.308	20157
894.43	20393
894.552	20469
894.674	20488
894.796	20115
894.918	20130
895.04	20218
895.161	20313
895.283	20301
895.405	20195
895.526	20210
895.648	20214
895.769	20259
895.891	20240
896.012	20313
896.134	20438
896.255	20492
896.376	20324
896.498	20339
896.619	20305
896.74	20324
896.861	20320
896.982	20663
897.103	20785
897.224	20598
897.345	20579
897.466	20427
897.587	20450
897.708	20606
897.828	20541
897.949	20396
898.07	20259
898.19	20347
898.311	20594
898.431	20446
898.552	20594
898.672	20549
898.792	20568
898.913	20370
899.033	20324
899.153	20172
899.273	20107
899.393	20191
899.513	20252
899.633	20164
899.753	20298
899.873	20176
899.993	20081
900.113	20058
900.232	20145
900.352	20183
900.472	19913
900.591	19921
900.711	20069
900.83	20012
900.95	20031
901.069	19959
901.189	19875
901.308	19578
901.427	19666
901.546	19575
901.665	19681
901.784	19510
901.904	19449
902.023	19354
902.141	19126
902.26	19069
902.379	19080
902.498	18962
902.617	19004
902.735	19065
902.854	18905
902.973	18905
903.091	18707
903.21	18681
903.328	18719
903.446	18525
903.565	18502
903.683	18601
903.801	18437
903.919	18471
904.038	18380
904.156	18285
904.274	18315
904.392	18148
904.51	18251
904.627	18243
904.745	18224
904.863	18232
904.981	17984
905.098	17893
905.216	17939
905.334	17889
905.451	17912
905.569	17859
905.686	18026
905.803	17980
905.921	17775
906.038	17813
906.155	17790
906.272	17661
906.389	17627
906.506	17440
906.623	17429
906.74	17398
906.857	17356
906.974	17379
907.091	17524
907.208	17493
907.324	17482
907.441	17174
907.557	17083
907.674	17166
907.79	17025
907.907	17033
908.023	17132
908.139	17079
908.256	16980
908.372	17037
908.488	16991
908.604	16873
908.72	16824
908.836	16805
908.952	16786
909.068	16675
909.184	16843
909.3	16816
909.415	16812
909.531	16736
909.647	16577
909.762	16493
909.878	16413
909.993	16516
910.108	16417
910.224	16424
910.339	16504
910.454	16481
910.57	16318
910.685	16253
910.8	16390
910.915	16519
911.03	16261
911.145	16177
911.259	16017
911.374	16109
911.489	15979
911.604	16051
911.718	15804
911.833	15781
911.947	15850
912.062	15667
912.176	15808
912.291	15861
912.405	15907
912.519	15983
912.633	16078
912.748	15846
912.862	15812
912.976	15618
913.09	15576
913.204	15629
913.318	15629
913.431	15663
913.545	15599
913.659	15675
913.772	15530
913.886	15321
914	15447
914.113	15397
914.226	15557
914.34	15564
914.453	15264
914.566	15405
914.68	15329
914.793	15260
914.906	15028
915.019	15089
915.132	14899
915.245	15032
915.358	15058
915.47	15005
915.583	15047
915.696	15028
915.809	15199
915.921	15138
916.034	14971
916.146	14971
916.259	14864
916.371	14979
916.483	14944
916.595	14857
916.708	14819
916.82	14842
916.932	14872
917.044	14826
917.156	14823
917.268	14655
917.38	14667
917.491	14655
917.603	14705
917.715	14773
917.826	14765
917.938	14640
918.049	14495
918.161	14575
918.272	14697
918.384	14617
918.495	14564
918.606	14454
918.717	14343
918.828	14514
918.939	14442
919.05	14267
919.161	14389
919.272	14210
919.383	14282
919.494	14374
919.604	14457
919.715	14400
919.826	14320
919.936	14362
920.047	14343
920.157	14278
920.267	14461
920.378	14465
920.488	14267
920.598	14522
920.708	14724
920.818	14480
920.928	14549
921.038	14670
921.148	14579
921.258	14305
921.368	14115
921.477	14138
921.587	14054
921.697	13875
921.806	14107
921.916	13970
922.025	13750
922.134	13803
922.244	13658
922.353	13704
922.462	13537
922.571	13457
922.68	13400
922.789	13331
922.898	13350
923.007	13289
923.116	13411
923.224	13259
923.333	13274
923.442	13126
923.55	13206
923.659	13164
923.767	13217
923.876	13168
923.984	13217
924.092	13008
924.201	13145
924.309	13072
924.417	13012
924.525	13038
924.633	13088
924.741	13780
924.849	12825
924.956	12962
925.064	12806
925.172	12787
925.279	12711
925.387	12757
925.494	12730
925.602	12840
925.709	12829
925.816	12654
925.924	12715
926.031	12856
926.138	12741
926.245	12795
926.352	12639
926.459	12734
926.566	12772
926.673	12608
926.779	12479
926.886	12486
926.993	12330
927.099	12384
927.206	12365
927.312	12357
927.419	12395
927.525	12330
927.631	12350
927.737	12277
927.843	12224
927.95	12045
928.056	12091
928.162	12197
928.267	12178
928.373	12848
928.479	12247
928.585	11992
928.69	12083
928.796	12186
928.901	12083
929.007	11851
929.112	12060
929.218	12007
929.323	11897
929.428	11897
929.533	12019
929.638	11840
929.743	11748
929.848	11870
929.953	11866
930.058	11680
930.163	11600
930.267	11592
930.372	11703
930.477	11490
930.581	11714
930.685	11608
930.79	11471
930.894	11425
930.998	11425
931.103	11543
931.207	11151
931.311	11086
931.415	10976
931.519	10831
931.623	10873
