Data from test_V78500241_2143.txt Node
Date: Fri Mar 25 15:56:38 CST 2022
User: usil
Spectrometer: V785-0024
Trigger mode: 0
Integration Time (sec): 4.000000E-1
Scans to average: 1
Nonlinearity correction enabled: false
Boxcar width: 0
Storing dark spectrum: false
XAxis mode: Wavelengths
Number of Pixels in Spectrum: 1024
>>>>>Begin Spectral Data<<<<<
801.071	29048
801.214	28866
801.356	28649
801.499	28774
801.641	28527
801.783	28569
801.926	28588
802.068	28538
802.211	28447
802.353	28554
802.496	28451
802.638	28329
802.78	28394
802.923	28242
803.065	28169
803.208	28295
803.35	28306
803.492	28424
803.635	28599
803.777	28417
803.919	28516
804.061	28816
804.204	28550
804.346	28398
804.488	28348
804.63	28443
804.773	28474
804.915	28417
805.057	28599
805.199	28531
805.341	28653
805.483	28748
805.626	28706
805.768	28702
805.91	28687
806.052	28721
806.194	28637
806.336	28961
806.478	28672
806.62	28733
806.762	28892
806.904	28980
807.046	29315
807.188	29086
807.33	29083
807.472	29292
807.614	29155
807.756	29064
807.898	28991
808.04	29079
808.182	29010
808.324	28991
808.465	29025
808.607	29208
808.749	29334
808.891	29471
809.033	29531
809.174	29455
809.316	29349
809.458	29337
809.6	29444
809.741	29528
809.883	29600
810.025	29668
810.166	29684
810.308	29608
810.45	29566
810.591	29516
810.733	29535
810.875	29330
811.016	29406
811.158	29326
811.299	29531
811.441	29570
811.582	29604
811.724	29433
811.865	29501
812.007	29277
812.148	29292
812.29	29539
812.431	29748
812.573	29836
812.714	29821
812.855	29866
812.997	30148
813.138	30174
813.279	29946
813.421	30018
813.562	29866
813.703	29847
813.845	29623
813.986	29391
814.127	29269
814.268	29086
814.41	29212
814.551	29094
814.692	29239
814.833	28980
814.974	29094
815.115	29220
815.256	29052
815.397	29086
815.539	29052
815.68	28877
815.821	28774
815.962	28976
816.103	28991
816.244	28786
816.385	28710
816.526	28793
816.666	28584
816.807	28390
816.948	28634
817.089	28447
817.23	28417
817.371	28489
817.512	28417
817.653	28443
817.793	28462
817.934	28516
818.075	28550
818.216	28371
818.356	28314
818.497	28459
818.638	28207
818.778	28382
818.919	28177
819.06	28401
819.2	28299
819.341	28481
819.481	28436
819.622	28653
819.762	28687
819.903	28729
820.043	28710
820.184	28611
820.324	28565
820.465	28637
820.605	28603
820.746	28637
820.886	28413
821.026	28588
821.167	28516
821.307	28588
821.447	28459
821.588	28356
821.728	28337
821.868	28150
822.008	27998
822.149	27983
822.289	27876
822.429	27789
822.569	27618
822.709	27656
822.849	27443
822.99	27389
823.13	27561
823.27	27325
823.41	27176
823.55	27176
823.69	27218
823.83	27344
823.97	27245
824.11	27028
824.25	27081
824.389	26967
824.529	27116
824.669	26963
824.809	27195
824.949	27237
825.089	27363
825.228	27169
825.368	27055
825.508	26998
825.648	27013
825.787	27051
825.927	26998
826.067	26823
826.206	27062
826.346	26982
826.485	27131
826.625	26891
826.765	27070
826.904	27096
827.044	26811
827.183	26788
827.323	26716
827.462	26678
827.601	26811
827.741	26712
827.88	26872
828.02	26526
828.159	26705
828.298	26765
828.437	26689
828.577	26701
828.716	26743
828.855	26438
828.994	26343
829.134	26336
829.273	26370
829.412	26362
829.551	26347
829.69	26473
829.829	26469
829.968	26530
830.107	26377
830.246	26419
830.385	26324
830.524	26294
830.663	26328
830.802	26176
830.941	25951
831.08	25879
831.219	26145
831.357	26157
831.496	26103
831.635	26008
831.774	25986
831.913	25978
832.051	25674
832.19	25814
832.329	25734
832.467	25788
832.606	25639
832.744	25628
832.883	25651
833.022	25567
833.16	25658
833.299	25830
833.437	25586
833.576	25845
833.714	25715
833.852	25811
833.991	25685
834.129	25826
834.267	25769
834.406	25761
834.544	25769
834.682	25784
834.821	25727
834.959	25902
835.097	25753
835.235	25712
835.373	25780
835.511	25693
835.65	25552
835.788	25518
835.926	25502
836.064	25388
836.202	25438
836.34	25693
836.478	25674
836.615	25548
836.753	25533
836.891	25818
837.029	25487
837.167	25388
837.305	25354
837.443	25438
837.58	25430
837.718	25525
837.856	25316
837.993	25415
838.131	25396
838.269	25198
838.406	25225
838.544	25247
838.681	25050
838.819	24947
838.956	24928
839.094	24867
839.231	24817
839.369	25053
839.506	25225
839.643	25251
839.781	24916
839.918	24852
840.055	24886
840.193	24829
840.33	24886
840.467	24806
840.604	24700
840.742	25038
840.879	24589
841.016	24760
841.153	24627
841.29	24810
841.427	24669
841.564	24821
841.701	24768
841.838	24711
841.975	24650
842.112	24688
842.249	24593
842.385	24597
842.522	24707
842.659	24627
842.796	24608
842.933	24471
843.069	24464
843.206	24365
843.343	24642
843.479	24623
843.616	24547
843.752	24277
843.889	24323
844.025	24464
844.162	24243
844.298	24483
844.435	24292
844.571	24228
844.708	24292
844.844	24486
844.98	24323
845.117	24414
845.253	24117
845.389	24106
845.525	24155
845.661	24129
845.798	23988
845.934	24079
846.07	23980
846.206	24209
846.342	24034
846.478	24129
846.614	23775
846.75	23726
846.886	23699
847.022	23885
847.158	23851
847.294	23843
847.429	23714
847.565	23699
847.701	23809
847.837	23452
847.972	23463
848.108	23501
848.244	23501
848.379	23345
848.515	23212
848.65	23387
848.786	23307
848.921	23345
849.057	23387
849.192	23524
849.328	23497
849.463	23261
849.598	23318
849.734	23269
849.869	23174
850.004	23041
850.14	23113
850.275	23113
850.41	23014
850.545	22980
850.68	22927
850.815	23090
850.95	23010
851.085	23189
851.22	23174
851.355	23197
851.49	23162
851.625	23079
851.76	23018
851.895	22991
852.03	23018
852.165	23083
852.299	23178
852.434	23227
852.569	23102
852.703	23113
852.838	23147
852.973	23220
853.107	23200
853.242	23052
853.376	22957
853.511	22797
853.645	22976
853.78	22889
853.914	22930
854.048	22873
854.183	22873
854.317	22965
854.451	23143
854.585	22942
854.72	23025
854.854	22927
854.988	22881
855.122	22889
855.256	22759
855.39	22911
855.524	22908
855.658	22965
855.792	23014
855.926	22881
856.06	22927
856.194	22942
856.327	22797
856.461	22889
856.595	22740
856.729	22866
856.862	22949
856.996	22999
857.13	22930
857.263	23044
857.397	23014
857.53	22877
857.664	22915
857.797	23010
857.931	23056
858.064	22946
858.197	23075
858.331	22991
858.464	22790
858.597	22946
858.731	22961
858.864	22927
858.997	22877
859.13	22869
859.263	22877
859.396	23003
859.529	22938
859.662	22869
859.795	22892
859.928	22980
860.061	22949
860.194	23022
860.327	23067
860.46	22934
860.592	23113
860.725	22972
860.858	22957
860.99	22961
861.123	22915
861.256	22896
861.388	22881
861.521	23668
861.653	22824
861.786	22694
861.918	22736
862.05	22611
862.183	22873
862.315	22915
862.447	22984
862.58	22706
862.712	22725
862.844	22573
862.976	22805
863.108	22611
863.24	22980
863.372	22660
863.504	22603
863.636	22584
863.768	22721
863.9	22592
864.032	22500
864.164	22493
864.296	22649
864.428	22748
864.559	22573
864.691	22752
864.823	22626
864.954	22538
865.086	22679
865.217	22531
865.349	22390
865.48	22405
865.612	22554
865.743	22588
865.875	22668
866.006	22436
866.137	22459
866.269	22470
866.4	22466
866.531	22462
866.662	22344
866.793	22493
866.924	22440
867.055	22500
867.186	22470
867.317	22405
867.448	22360
867.579	22322
867.71	22303
867.841	22318
867.972	22352
868.103	22481
868.233	22527
868.364	22462
868.495	22466
868.625	22573
868.756	22828
868.886	22531
869.017	22656
869.147	22691
869.278	22809
869.408	22698
869.539	22698
869.669	22782
869.799	22744
869.929	22691
870.06	22786
870.19	23025
870.32	22812
870.45	22927
870.58	22949
870.71	23178
870.84	23060
870.97	22984
871.1	23086
871.23	23143
871.36	23299
871.489	23098
871.619	23185
871.749	23178
871.879	23345
872.008	23417
872.138	23193
872.267	23189
872.397	23174
872.526	23105
872.656	23018
872.785	23064
872.915	23147
873.044	23391
873.173	23258
873.303	23326
873.432	23246
873.561	23383
873.69	23288
873.819	23292
873.948	23299
874.077	23204
874.206	23261
874.335	23246
874.464	23391
874.593	23531
874.722	23589
874.851	23524
874.979	23524
875.108	23615
875.237	23425
875.365	23410
875.494	23387
875.623	23482
875.751	23414
875.88	23452
876.008	23577
876.136	23600
876.265	23870
876.393	23969
876.521	23889
876.65	23893
876.778	23764
876.906	23767
877.034	23733
877.162	23779
877.29	23783
877.418	23786
877.546	23836
877.674	23760
877.802	23680
877.93	23775
878.058	23722
878.185	23668
878.313	23783
878.441	23764
878.568	23646
878.696	23646
878.824	23836
878.951	23859
879.079	23897
879.206	23992
879.333	23863
879.461	23767
879.588	23999
879.715	23958
879.842	24076
879.97	23908
880.097	23558
880.224	23585
880.351	23646
880.478	23668
880.605	23589
880.732	23623
880.859	23923
880.986	23615
881.112	23551
881.239	23501
881.366	23341
881.493	23018
881.619	23200
881.746	23227
881.872	23181
881.999	23136
882.125	23197
882.252	23239
882.378	23075
882.505	23341
882.631	22976
882.757	22904
882.883	23044
883.01	22885
883.136	22733
883.262	22824
883.388	22615
883.514	22786
883.64	22801
883.766	22847
883.892	22516
884.018	22668
884.143	22710
884.269	22820
884.395	22653
884.52	22550
884.646	22481
884.772	22390
884.897	22371
885.023	22390
885.148	22584
885.274	22565
885.399	22485
885.524	22470
885.65	22478
885.775	22310
885.9	22413
886.025	22516
886.15	22519
886.275	22485
886.4	22421
886.525	22379
886.65	22417
886.775	22310
886.9	22508
887.025	22565
887.149	22417
887.274	22379
887.399	22272
887.523	22352
887.648	22314
887.773	22204
887.897	22443
888.021	22253
888.146	22128
888.27	22325
888.395	22402
888.519	22166
888.643	22249
888.767	22223
888.891	22109
889.015	21994
889.139	22128
889.263	22021
889.387	22097
889.511	22196
889.635	22215
889.759	22010
889.883	21987
890.006	22101
890.13	22219
890.254	21903
890.377	21888
890.501	21736
890.624	21808
890.748	21793
890.871	21614
890.995	21561
891.118	21481
891.241	21545
891.364	21519
891.488	21648
891.611	21576
891.734	21663
891.857	21633
891.98	21610
892.103	21618
892.226	21583
892.349	21542
892.471	21325
892.594	21401
892.717	21542
892.839	21447
892.962	21469
893.085	21549
893.207	21488
893.33	21294
893.452	21386
893.575	21492
893.697	21336
893.819	21519
893.941	21641
894.064	21473
894.186	21275
894.308	21192
894.43	21481
894.552	21488
894.674	21447
894.796	21264
894.918	21416
895.04	21420
895.161	21496
895.283	21382
895.405	21389
895.526	21355
895.648	21401
895.769	21439
895.891	21332
896.012	21370
896.134	21466
896.255	21511
896.376	21378
896.498	21447
896.619	21424
896.74	21310
896.861	21382
896.982	21599
897.103	21945
897.224	21656
897.345	21679
897.466	21485
897.587	21496
897.708	21892
897.828	21690
897.949	21477
898.07	21443
898.19	21481
898.311	21698
898.431	21466
898.552	21610
898.672	21523
898.792	21599
898.913	21572
899.033	21424
899.153	21332
899.273	21348
899.393	21504
899.513	21348
899.633	21329
899.753	21279
899.873	21211
899.993	21306
900.113	21192
900.232	21348
900.352	21348
900.472	21104
900.591	21039
900.711	21108
900.83	21058
900.95	21112
901.069	21096
901.189	20979
901.308	20727
901.427	20663
901.546	20617
901.665	20651
901.784	20655
901.904	20568
902.023	20484
902.141	20202
902.26	20157
902.379	20138
902.498	20138
902.617	20176
902.735	20126
902.854	20134
902.973	20065
903.091	19845
903.21	19833
903.328	19731
903.446	19727
903.565	19746
903.683	19597
903.801	19533
903.919	19567
904.038	19453
904.156	19316
904.274	19373
904.392	19350
904.51	19331
904.627	19434
904.745	19369
904.863	19324
904.981	19107
905.098	19072
905.216	19095
905.334	19110
905.451	19110
905.569	18973
905.686	19023
905.803	18977
905.921	18795
906.038	18886
906.155	18863
906.272	18757
906.389	18665
906.506	18525
906.623	18570
906.74	18494
906.857	18547
906.974	18479
907.091	18650
907.208	18536
907.324	18589
907.441	18422
907.557	18209
907.674	18281
907.79	18216
907.907	18171
908.023	18258
908.139	18239
908.256	18148
908.372	18133
908.488	18125
908.604	17942
908.72	17942
908.836	17901
908.952	17840
909.068	18049
909.184	17916
909.3	17889
909.415	17950
909.531	17958
909.647	17748
909.762	17634
909.878	17619
909.993	17661
910.108	17661
910.224	17585
910.339	17596
910.454	17512
910.57	17410
910.685	17417
910.8	17619
910.915	17532
911.03	17379
911.145	17193
911.259	17216
911.374	17216
911.489	17083
911.604	17155
911.718	17041
911.833	16885
911.947	16896
912.062	16812
912.176	17071
912.291	17006
912.405	16953
912.519	17109
912.633	17117
912.748	16999
912.862	17071
912.976	16771
913.09	16641
913.204	16729
913.318	16816
913.431	16805
913.545	16790
913.659	16843
913.772	16740
913.886	16535
914	16546
914.113	16630
914.226	16592
914.34	16592
914.453	16417
914.566	16519
914.68	16409
914.793	16360
914.906	16272
915.019	16196
915.132	16150
915.245	16143
915.358	16173
915.47	16223
915.583	16112
915.696	16105
915.809	16268
915.921	16154
916.034	15956
916.146	16010
916.259	15922
916.371	16109
916.483	16090
916.595	15880
916.708	15968
916.82	15880
916.932	15857
917.044	15838
917.156	15857
917.268	15698
917.38	15835
917.491	15713
917.603	15739
917.715	15789
917.826	15793
917.938	15637
918.049	15515
918.161	15648
918.272	15747
918.384	15854
918.495	15762
918.606	15523
918.717	15424
918.828	15447
918.939	15428
919.05	15294
919.161	15485
919.272	15226
919.383	15302
919.494	15523
919.604	15759
919.715	15424
919.826	15275
919.936	15355
920.047	15363
920.157	15283
920.267	15701
920.378	15515
920.488	15408
920.598	15625
920.708	15797
920.818	15507
920.928	15603
921.038	15679
921.148	15572
921.258	15310
921.368	15237
921.477	15127
921.587	15169
921.697	15043
921.806	15146
921.916	15032
922.025	14739
922.134	14739
922.244	14731
922.353	14811
922.462	14724
922.571	14575
922.68	14457
922.789	14488
922.898	14507
923.007	14298
923.116	14476
923.224	14419
923.333	14381
923.442	14275
923.55	14210
923.659	14259
923.767	14286
923.876	14153
923.984	14298
924.092	14073
924.201	14161
924.309	14130
924.417	14138
924.525	14024
924.633	14020
924.741	14773
924.849	13845
924.956	13890
925.064	13780
925.172	13776
925.279	13784
925.387	13811
925.494	13849
925.602	13849
925.709	13780
925.816	13674
925.924	13685
926.031	13864
926.138	13708
926.245	13776
926.352	13666
926.459	13719
926.566	13814
926.673	13537
926.779	13521
926.886	13502
926.993	13320
927.099	13346
927.206	13274
927.312	13270
927.419	13304
927.525	13289
927.631	13346
927.737	13156
927.843	13228
927.95	13061
928.056	13034
928.162	13149
928.267	13221
928.373	13738
928.479	13149
928.585	12935
928.69	13095
928.796	13168
928.901	12916
929.007	12901
929.112	12977
929.218	12894
929.323	12852
929.428	12787
929.533	12871
929.638	12741
929.743	12703
929.848	12707
929.953	12760
930.058	12711
930.163	12486
930.267	12441
930.372	12566
930.477	12448
930.581	12700
930.685	12448
930.79	12380
930.894	12365
930.998	12296
931.103	12452
931.207	12133
931.311	12034
931.415	11855
931.519	11752
931.623	11718
