Data from test_V78500241_1148.txt Node
Date: Fri Mar 25 15:49:45 CST 2022
User: usil
Spectrometer: V785-0024
Trigger mode: 0
Integration Time (sec): 4.000000E-1
Scans to average: 1
Nonlinearity correction enabled: false
Boxcar width: 0
Storing dark spectrum: false
XAxis mode: Wavelengths
Number of Pixels in Spectrum: 1024
>>>>>Begin Spectral Data<<<<<
801.071	28504
801.214	28691
801.356	28363
801.499	28090
801.641	28025
801.783	28048
801.926	28105
802.068	28093
802.211	28044
802.353	28177
802.496	27861
802.638	27800
802.78	27865
802.923	27793
803.065	27861
803.208	27888
803.35	27876
803.492	27964
803.635	28055
803.777	27911
803.919	28135
804.061	28287
804.204	28181
804.346	28044
804.488	28074
804.63	28078
804.773	27968
804.915	28051
805.057	28116
805.199	27930
805.341	28173
805.483	28181
805.626	28257
805.768	28154
805.91	28204
806.052	28070
806.194	28010
806.336	28303
806.478	28173
806.62	28371
806.762	28272
806.904	28504
807.046	28763
807.188	28630
807.33	28649
807.472	28767
807.614	28413
807.756	28565
807.898	28580
808.04	28504
808.182	28455
808.324	28615
808.465	28451
808.607	28812
808.749	28885
808.891	28927
809.033	28965
809.174	28915
809.316	28660
809.458	28748
809.6	28786
809.741	29025
809.883	29041
810.025	29200
810.166	29090
810.308	29193
810.45	29162
810.591	28946
810.733	28995
810.875	28888
811.016	28847
811.158	28797
811.299	28995
811.441	29090
811.582	29022
811.724	28885
811.865	28896
812.007	28915
812.148	28923
812.29	28927
812.431	29151
812.573	29250
812.714	29315
812.855	29482
812.997	29490
813.138	29676
813.279	29528
813.421	29520
813.562	29356
813.703	29231
813.845	29098
813.986	28911
814.127	28790
814.268	28664
814.41	28698
814.551	28497
814.692	28687
814.833	28504
814.974	28527
815.115	28660
815.256	28379
815.397	28360
815.539	28493
815.68	28295
815.821	28272
815.962	28390
816.103	28470
816.244	28230
816.385	28196
816.526	28318
816.666	28063
816.807	27888
816.948	27861
817.089	28010
817.23	27937
817.371	28013
817.512	28051
817.653	27816
817.793	27884
817.934	27926
818.075	27857
818.216	27926
818.356	27918
818.497	27648
818.638	27507
818.778	27694
818.919	27671
819.06	27743
819.2	27835
819.341	27789
819.481	27968
819.622	28112
819.762	28299
819.903	28226
820.043	28044
820.184	28150
820.324	28067
820.465	28070
820.605	28116
820.746	28040
820.886	27956
821.026	27850
821.167	27903
821.307	28093
821.447	27922
821.588	27937
821.728	27736
821.868	27568
822.008	27374
822.149	27408
822.289	27317
822.429	27077
822.569	27127
822.709	27104
822.849	26975
822.99	26979
823.13	26921
823.27	26975
823.41	26815
823.55	26629
823.69	26769
823.83	26697
823.97	26777
824.11	26484
824.25	26507
824.389	26530
824.529	26743
824.669	26568
824.809	26758
824.949	26693
825.089	26640
825.228	26648
825.368	26473
825.508	26385
825.648	26484
825.787	26503
825.927	26507
826.067	26473
826.206	26423
826.346	26537
826.485	26541
826.625	26396
826.765	26655
826.904	26434
827.044	26381
827.183	26168
827.323	26183
827.462	26328
827.601	26168
827.741	26214
827.88	26282
828.02	26016
828.159	26130
828.298	26107
828.437	26199
828.577	26111
828.716	26278
828.855	26058
828.994	25932
829.134	25856
829.273	25887
829.412	25788
829.551	25780
829.69	25917
829.829	25909
829.968	25955
830.107	25928
830.246	25803
830.385	25879
830.524	25791
830.663	25700
830.802	25670
830.941	25438
831.08	25430
831.219	25544
831.357	25632
831.496	25769
831.635	25483
831.774	25434
831.913	25453
832.051	25339
832.19	25324
832.329	25270
832.467	25171
832.606	25187
832.744	25251
832.883	25206
833.022	25137
833.16	25164
833.299	25213
833.437	25152
833.576	25244
833.714	25164
833.852	25240
833.991	25190
834.129	25384
834.267	25285
834.406	25164
834.544	25278
834.682	25122
834.821	25168
834.959	25373
835.097	25152
835.235	25171
835.373	25110
835.511	25076
835.65	25027
835.788	25072
835.926	25015
836.064	24821
836.202	24852
836.34	25053
836.478	25148
836.615	24970
836.753	24962
836.891	25080
837.029	25110
837.167	24897
837.305	24928
837.443	24958
837.58	24814
837.718	24806
837.856	24863
837.993	24734
838.131	24798
838.269	24722
838.406	24768
838.544	24635
838.681	24483
838.819	24490
838.956	24486
839.094	24311
839.231	24201
839.369	24471
839.506	24684
839.643	24460
839.781	24300
839.918	24277
840.055	24323
840.193	24311
840.33	24228
840.467	24289
840.604	24300
840.742	24578
840.879	24015
841.016	24220
841.153	24030
841.29	24327
841.427	24152
841.564	24353
841.701	24159
841.838	24083
841.975	24076
842.112	24114
842.249	24003
842.385	24034
842.522	24247
842.659	24121
842.796	23931
842.933	23958
843.069	23843
843.206	23843
843.343	24125
843.479	23999
843.616	24007
843.752	23760
843.889	23813
844.025	23745
844.162	23699
844.298	23771
844.435	23756
844.571	23802
844.708	23748
844.844	24003
844.98	23893
845.117	23897
845.253	23680
845.389	23589
845.525	23699
845.661	23619
845.798	23440
845.934	23512
846.07	23509
846.206	23368
846.342	23596
846.478	23398
846.614	23223
846.75	23181
846.886	23185
847.022	23113
847.158	23311
847.294	23162
847.429	23322
847.565	23098
847.701	23231
847.837	22934
847.972	22961
848.108	23003
848.244	22949
848.379	22725
848.515	22801
848.65	22839
848.786	22828
848.921	22816
849.057	22835
849.192	22900
849.328	22759
849.463	22755
849.598	22752
849.734	22615
849.869	22744
850.004	22580
850.14	22675
850.275	22459
850.41	22474
850.545	22421
850.68	22603
850.815	22573
850.95	22577
851.085	22767
851.22	22618
851.355	22687
851.49	22485
851.625	22474
851.76	22618
851.895	22466
852.03	22493
852.165	22565
852.299	22649
852.434	22573
852.569	22607
852.703	22592
852.838	22497
852.973	22626
853.107	22672
853.242	22421
853.376	22341
853.511	22363
853.645	22363
853.78	22428
853.914	22421
854.048	22280
854.183	22268
854.317	22318
854.451	22478
854.585	22356
854.72	22424
854.854	22455
854.988	22318
855.122	22344
855.256	22257
855.39	22398
855.524	22303
855.658	22402
855.792	22325
855.926	22382
856.06	22329
856.194	22455
856.327	22280
856.461	22348
856.595	22242
856.729	22337
856.862	22634
856.996	22394
857.13	22424
857.263	22413
857.397	22481
857.53	22363
857.664	22356
857.797	22390
857.931	22531
858.064	22474
858.197	22375
858.331	22322
858.464	22303
858.597	22291
858.731	22413
858.864	22428
858.997	22226
859.13	22348
859.263	22466
859.396	22466
859.529	22413
859.662	22249
859.795	22318
859.928	22409
860.061	22519
860.194	22565
860.327	22428
860.46	22413
860.592	22542
860.725	22466
860.858	22516
860.99	22405
861.123	22253
861.256	22322
861.388	22360
861.521	23048
861.653	22181
861.786	22253
861.918	22139
862.05	22303
862.183	22230
862.315	22249
862.447	22325
862.58	22325
862.712	22059
862.844	22036
862.976	22010
863.108	22097
863.24	22649
863.372	21922
863.504	22025
863.636	22051
863.768	22002
863.9	22078
864.032	22013
864.164	21949
864.296	22162
864.428	22268
864.559	22158
864.691	22139
864.823	22158
864.954	22082
865.086	21998
865.217	21911
865.349	21899
865.48	21930
865.612	21972
865.743	21998
865.875	21941
866.006	22013
866.137	22002
866.269	21960
866.4	21926
866.531	21972
866.662	21876
866.793	21778
866.924	21895
867.055	21918
867.186	21998
867.317	21876
867.448	21831
867.579	21941
867.71	21747
867.841	21797
867.972	21911
868.103	21850
868.233	21846
868.364	21953
868.495	22059
868.625	22112
868.756	22215
868.886	22097
869.017	22249
869.147	22154
869.278	22287
869.408	22097
869.539	22090
869.669	22261
869.799	22291
869.929	22188
870.06	22272
870.19	22493
870.32	22474
870.45	22322
870.58	22531
870.71	22592
870.84	22710
870.97	22409
871.1	22512
871.23	22717
871.36	22816
871.489	22687
871.619	22694
871.749	22687
871.879	22702
872.008	22809
872.138	22603
872.267	22752
872.397	22588
872.526	22542
872.656	22436
872.785	22554
872.915	22793
873.044	22801
873.173	22797
873.303	22713
873.432	22862
873.561	22953
873.69	22740
873.819	22675
873.948	22793
874.077	22748
874.206	22660
874.335	22774
874.464	22748
874.593	22972
874.722	23022
874.851	22869
874.979	23025
875.108	22995
875.237	22930
875.365	22877
875.494	22801
875.623	23025
875.751	22911
875.88	22915
876.008	23151
876.136	23109
876.265	23345
876.393	23429
876.521	23337
876.65	23356
876.778	23318
876.906	23360
877.034	23170
877.162	23250
877.29	23166
877.418	23372
877.546	23463
877.674	23269
877.802	23288
877.93	23299
878.058	23227
878.185	23155
878.313	23280
878.441	23231
878.568	23075
878.696	23075
878.824	23292
878.951	23478
879.079	23455
879.206	23509
879.333	23535
879.461	23349
879.588	23433
879.715	23444
879.842	23474
879.97	23334
880.097	23174
880.224	23178
880.351	23181
880.478	23083
880.605	23071
880.732	23189
880.859	23326
880.986	23048
881.112	23185
881.239	22965
881.366	22847
881.493	22740
881.619	22626
881.746	22649
881.872	22653
881.999	22596
882.125	22531
882.252	22653
882.378	22603
882.505	22744
882.631	22447
882.757	22402
882.883	22447
883.01	22440
883.136	22253
883.262	22040
883.388	22185
883.514	22325
883.64	22337
883.766	22287
883.892	21975
884.018	22112
884.143	22219
884.269	22314
884.395	22116
884.52	21778
884.646	22040
884.772	21903
884.897	21838
885.023	22021
885.148	22002
885.274	22135
885.399	22074
885.524	21857
885.65	21960
885.775	22010
885.9	21934
886.025	22131
886.15	21934
886.275	21903
886.4	21888
886.525	21888
886.65	22002
886.775	21991
886.9	22044
887.025	22166
887.149	21876
887.274	21698
887.399	21679
887.523	21747
887.648	21759
887.773	21610
887.897	21812
888.021	21762
888.146	21667
888.27	21808
888.395	21812
888.519	21755
888.643	21766
888.767	21732
888.891	21644
889.015	21595
889.139	21694
889.263	21344
889.387	21618
889.511	21724
889.635	21595
889.759	21439
889.883	21507
890.006	21538
890.13	21553
890.254	21420
890.377	21534
890.501	21264
890.624	21199
890.748	21233
890.871	21165
890.995	21020
891.118	21074
891.241	21138
891.364	21096
891.488	21207
891.611	21127
891.734	20990
891.857	21062
891.98	21081
892.103	21184
892.226	21070
892.349	20975
892.471	20872
892.594	20868
892.717	21039
892.839	20952
892.962	20986
893.085	21112
893.207	20967
893.33	20906
893.452	20811
893.575	20948
893.697	20956
893.819	21070
893.941	21112
894.064	21157
894.186	20948
894.308	20834
894.43	21032
894.552	21074
894.674	21131
894.796	20823
894.918	20902
895.04	20990
895.161	21043
895.283	21070
895.405	20899
895.526	21001
895.648	20986
895.769	21005
895.891	21066
896.012	21066
896.134	20895
896.255	20952
896.376	20864
896.498	20933
896.619	21001
896.74	21009
896.861	20990
896.982	21233
897.103	21374
897.224	21142
897.345	21180
897.466	21180
897.587	21112
897.708	21275
897.828	21287
897.949	21036
898.07	20994
898.19	21058
898.311	21264
898.431	21066
898.552	21127
898.672	21211
898.792	21116
898.913	21043
899.033	21066
899.153	20971
899.273	20830
899.393	20971
899.513	20902
899.633	20895
899.753	20834
899.873	20941
899.993	20773
900.113	20800
900.232	20807
900.352	20686
900.472	20758
900.591	20636
900.711	20754
900.83	20686
900.95	20651
901.069	20731
901.189	20469
901.308	20377
901.427	20142
901.546	20191
901.665	20332
901.784	20237
901.904	20054
902.023	19955
902.141	19761
902.26	19814
902.379	19769
902.498	19719
902.617	19666
902.735	19719
902.854	19727
902.973	19533
903.091	19480
903.21	19407
903.328	19320
903.446	19232
903.565	19244
903.683	19137
903.801	19141
903.919	19171
904.038	19194
904.156	18916
904.274	18993
904.392	18958
904.51	18985
904.627	18981
904.745	18951
904.863	19000
904.981	18730
905.098	18540
905.216	18658
905.334	18540
905.451	18597
905.569	18681
905.686	18612
905.803	18627
905.921	18407
906.038	18486
906.155	18452
906.272	18323
906.389	18266
906.506	18174
906.623	18102
906.74	18060
906.857	18015
906.974	18121
907.091	18171
907.208	18224
907.324	18011
907.441	18076
907.557	17969
907.674	17878
907.79	17760
907.907	17703
908.023	17767
908.139	17771
908.256	17817
908.372	17836
908.488	17783
908.604	17493
908.72	17429
908.836	17581
908.952	17600
909.068	17516
909.184	17646
909.3	17532
909.415	17608
909.531	17638
909.647	17345
909.762	17303
909.878	17223
909.993	17307
910.108	17227
910.224	17181
910.339	17269
910.454	17071
910.57	17094
910.685	17064
910.8	17254
910.915	17273
911.03	17010
911.145	16915
911.259	16858
911.374	16771
911.489	16809
911.604	16706
911.718	16611
911.833	16569
911.947	16569
912.062	16478
912.176	16618
912.291	16618
912.405	16713
912.519	16850
912.633	16782
912.748	16645
912.862	16508
912.976	16367
913.09	16299
913.204	16333
913.318	16356
913.431	16470
913.545	16440
913.659	16424
913.772	16329
913.886	16276
914	16192
914.113	16280
914.226	16287
914.34	16246
914.453	16002
914.566	16188
914.68	16097
914.793	16029
914.906	15759
915.019	15797
915.132	15709
915.245	15694
915.358	15736
915.47	15770
915.583	15762
915.696	15857
915.809	15960
915.921	15915
916.034	15732
916.146	15778
916.259	15572
916.371	15682
916.483	15682
916.595	15557
916.708	15587
916.82	15564
916.932	15511
917.044	15511
917.156	15485
917.268	15405
917.38	15492
917.491	15344
917.603	15420
917.715	15469
917.826	15435
917.938	15302
918.049	15298
918.161	15420
918.272	15485
918.384	15447
918.495	15344
918.606	15195
918.717	15051
918.828	15188
918.939	15203
919.05	15077
919.161	15142
919.272	14925
919.383	14944
919.494	15104
919.604	15256
919.715	15146
919.826	15028
919.936	15058
920.047	15108
920.157	15104
920.267	15226
920.378	15089
920.488	15070
920.598	15321
920.708	15264
920.818	15279
920.928	15260
921.038	15348
921.148	15317
921.258	15039
921.368	14925
921.477	14708
921.587	14849
921.697	14716
921.806	14864
921.916	14651
922.025	14461
922.134	14488
922.244	14351
922.353	14469
922.462	14244
922.571	14206
922.68	14092
922.789	14081
922.898	14008
923.007	13940
923.116	14134
923.224	14050
923.333	14031
923.442	13947
923.55	13875
923.659	13947
923.767	13883
923.876	13849
923.984	13989
924.092	13712
924.201	13822
924.309	13833
924.417	13757
924.525	13696
924.633	13769
924.741	14434
924.849	13582
924.956	13605
925.064	13460
925.172	13430
925.279	13483
925.387	13578
925.494	13457
925.602	13499
925.709	13575
925.816	13400
925.924	13415
926.031	13487
926.138	13419
926.245	13468
926.352	13343
926.459	13445
926.566	13445
926.673	13320
926.779	13213
926.886	13183
926.993	13042
927.099	12993
927.206	12916
927.312	12894
927.419	13110
927.525	12989
927.631	13076
927.737	12905
927.843	12913
927.95	12810
928.056	12829
928.162	12886
928.267	12890
928.373	13502
928.479	12924
928.585	12665
928.69	12719
928.796	12848
928.901	12662
929.007	12494
929.112	12715
929.218	12635
929.323	12658
929.428	12517
929.533	12669
929.638	12498
929.743	12536
929.848	12494
929.953	12456
930.058	12391
930.163	12163
930.267	12220
930.372	12357
930.477	12129
930.581	12346
930.685	12220
930.79	12140
930.894	12163
930.998	12121
931.103	12190
931.207	11847
931.311	11745
931.415	11733
931.519	11482
931.623	11539
