Data from test_V78500241_2401.txt Node
Date: Fri Mar 25 15:58:26 CST 2022
User: usil
Spectrometer: V785-0024
Trigger mode: 0
Integration Time (sec): 4.000000E-1
Scans to average: 1
Nonlinearity correction enabled: false
Boxcar width: 0
Storing dark spectrum: false
XAxis mode: Wavelengths
Number of Pixels in Spectrum: 1024
>>>>>Begin Spectral Data<<<<<
801.071	28881
801.214	28843
801.356	28554
801.499	28634
801.641	28531
801.783	28443
801.926	28565
802.068	28447
802.211	28504
802.353	28382
802.496	28436
802.638	28257
802.78	28215
802.923	28059
803.065	28169
803.208	28230
803.35	28318
803.492	28394
803.635	28462
803.777	28409
803.919	28592
804.061	28774
804.204	28516
804.346	28413
804.488	28386
804.63	28561
804.773	28386
804.915	28421
805.057	28554
805.199	28462
805.341	28557
805.483	28748
805.626	28573
805.768	28607
805.91	28630
806.052	28809
806.194	28622
806.336	28824
806.478	28702
806.62	28493
806.762	28805
806.904	28934
807.046	29090
807.188	29181
807.33	29124
807.472	29014
807.614	29109
807.756	29109
807.898	28850
808.04	28892
808.182	28835
808.324	28999
808.465	29094
808.607	29212
808.749	29261
808.891	29391
809.033	29501
809.174	29512
809.316	29364
809.458	29444
809.6	29322
809.741	29471
809.883	29520
810.025	29642
810.166	29745
810.308	29619
810.45	29509
810.591	29592
810.733	29429
810.875	29330
811.016	29345
811.158	29231
811.299	29429
811.441	29497
811.582	29684
811.724	29459
811.865	29429
812.007	29261
812.148	29379
812.29	29440
812.431	29516
812.573	29623
812.714	29714
812.855	29840
812.997	30041
813.138	30026
813.279	29977
813.421	29961
813.562	29783
813.703	29722
813.845	29718
813.986	29337
814.127	29155
814.268	29090
814.41	29029
814.551	29113
814.692	29155
814.833	29048
814.974	29048
815.115	29033
815.256	28987
815.397	28957
815.539	29033
815.68	28824
815.821	28835
815.962	28816
816.103	28801
816.244	28744
816.385	28763
816.526	28531
816.666	28656
816.807	28466
816.948	28409
817.089	28668
817.23	28276
817.371	28409
817.512	28405
817.653	28428
817.793	28382
817.934	28394
818.075	28417
818.216	28379
818.356	28314
818.497	28390
818.638	28150
818.778	28185
818.919	28226
819.06	28223
819.2	28314
819.341	28306
819.481	28424
819.622	28535
819.762	28793
819.903	28626
820.043	28752
820.184	28523
820.324	28451
820.465	28519
820.605	28569
820.746	28447
820.886	28424
821.026	28443
821.167	28440
821.307	28428
821.447	28599
821.588	28333
821.728	28120
821.868	28055
822.008	27842
822.149	27991
822.289	27876
822.429	27606
822.569	27580
822.709	27728
822.849	27466
822.99	27408
823.13	27526
823.27	27485
823.41	27188
823.55	27062
823.69	27192
823.83	27245
823.97	27207
824.11	27131
824.25	27116
824.389	27089
824.529	27058
824.669	27024
824.809	27214
824.949	27135
825.089	27074
825.228	27070
825.368	26887
825.508	26834
825.648	26895
825.787	27096
825.927	26838
826.067	26998
826.206	26857
826.346	27062
826.485	26914
826.625	26872
826.765	27173
826.904	26914
827.044	26724
827.183	26708
827.323	26598
827.462	26708
827.601	26773
827.741	26629
827.88	26796
828.02	26453
828.159	26606
828.298	26659
828.437	26754
828.577	26606
828.716	26739
828.855	26503
828.994	26278
829.134	26419
829.273	26374
829.412	26271
829.551	26191
829.69	26244
829.829	26202
829.968	26415
830.107	26362
830.246	26286
830.385	26214
830.524	26191
830.663	26122
830.802	26073
830.941	25989
831.08	25936
831.219	26077
831.357	26046
831.496	26210
831.635	25917
831.774	25803
831.913	25970
832.051	25765
832.19	25731
832.329	25761
832.467	25563
832.606	25518
832.744	25544
832.883	25571
833.022	25582
833.16	25457
833.299	25753
833.437	25670
833.576	25689
833.714	25765
833.852	25677
833.991	25757
834.129	25795
834.267	25841
834.406	25590
834.544	25712
834.682	25658
834.821	25616
834.959	25784
835.097	25556
835.235	25788
835.373	25689
835.511	25575
835.65	25495
835.788	25632
835.926	25365
836.064	25339
836.202	25228
836.34	25510
836.478	25556
836.615	25457
836.753	25434
836.891	25567
837.029	25464
837.167	25563
837.305	25426
837.443	25392
837.58	25285
837.718	25369
837.856	25422
837.993	25247
838.131	25362
838.269	25175
838.406	25324
838.544	25129
838.681	24829
838.819	25019
838.956	24905
839.094	24825
839.231	24760
839.369	24962
839.506	25362
839.643	24943
839.781	24848
839.918	24707
840.055	24795
840.193	24677
840.33	24768
840.467	24597
840.604	24715
840.742	24962
840.879	24555
841.016	24650
841.153	24513
841.29	24859
841.427	24582
841.564	24764
841.701	24688
841.838	24635
841.975	24547
842.112	24627
842.249	24498
842.385	24410
842.522	24639
842.659	24528
842.796	24528
842.933	24422
843.069	24330
843.206	24281
843.343	24467
843.479	24448
843.616	24464
843.752	24239
843.889	24262
844.025	24372
844.162	24197
844.298	24311
844.435	24220
844.571	24251
844.708	24433
844.844	24315
844.98	24388
845.117	24327
845.253	24167
845.389	24053
845.525	24178
845.661	24030
845.798	23984
845.934	23980
846.07	23923
846.206	23916
846.342	23969
846.478	23927
846.614	23672
846.75	23661
846.886	23592
847.022	23707
847.158	23741
847.294	23676
847.429	23687
847.565	23676
847.701	23961
847.837	23421
847.972	23349
848.108	23379
848.244	23528
848.379	23212
848.515	23261
848.65	23284
848.786	23231
848.921	23239
849.057	23391
849.192	23265
849.328	23364
849.463	23223
849.598	23372
849.734	23189
849.869	22984
850.004	23014
850.14	23056
850.275	23098
850.41	22934
850.545	23037
850.68	22900
850.815	23117
850.95	22942
851.085	23048
851.22	23162
851.355	23025
851.49	22934
851.625	22934
851.76	23075
851.895	22923
852.03	22961
852.165	23014
852.299	23124
852.434	23029
852.569	23117
852.703	23090
852.838	23010
852.973	23098
853.107	23170
853.242	22949
853.376	22820
853.511	22763
853.645	22706
853.78	22858
853.914	22987
854.048	22725
854.183	22904
854.317	22691
854.451	23083
854.585	22790
854.72	22786
854.854	22892
854.988	22786
855.122	22843
855.256	22755
855.39	22812
855.524	22889
855.658	22782
855.792	22812
855.926	22862
856.06	22889
856.194	22889
856.327	22889
856.461	22812
856.595	22759
856.729	22752
856.862	22873
856.996	22816
857.13	22862
857.263	22900
857.397	22862
857.53	22866
857.664	22904
857.797	22972
857.931	22938
858.064	22820
858.197	22972
858.331	22847
858.464	22778
858.597	22790
858.731	22866
858.864	22835
858.997	22889
859.13	22691
859.263	22953
859.396	22968
859.529	22809
859.662	22774
859.795	22683
859.928	22805
860.061	22946
860.194	23060
860.327	22915
860.46	22930
860.592	23022
860.725	23014
860.858	23018
860.99	22812
861.123	22820
861.256	22752
861.388	22824
861.521	23360
861.653	22679
861.786	22527
861.918	22672
862.05	22687
862.183	22683
862.315	22694
862.447	22763
862.58	22683
862.712	22554
862.844	22462
862.976	22637
863.108	22546
863.24	23094
863.372	22386
863.504	22527
863.636	22569
863.768	22611
863.9	22516
864.032	22379
864.164	22527
864.296	22535
864.428	22618
864.559	22577
864.691	22580
864.823	22554
864.954	22542
865.086	22535
865.217	22402
865.349	22341
865.48	22462
865.612	22367
865.743	22535
865.875	22363
866.006	22394
866.137	22405
866.269	22424
866.4	22428
866.531	22265
866.662	22249
866.793	22234
866.924	22386
867.055	22375
867.186	22234
867.317	22226
867.448	22166
867.579	22310
867.71	22226
867.841	22169
867.972	22238
868.103	22215
868.233	22352
868.364	22405
868.495	22470
868.625	22679
868.756	22702
868.886	22451
869.017	22580
869.147	22561
869.278	22672
869.408	22588
869.539	22538
869.669	22634
869.799	22691
869.929	22797
870.06	22645
870.19	22915
870.32	22820
870.45	22904
870.58	22957
870.71	23014
870.84	23185
870.97	22942
871.1	23094
871.23	23174
871.36	23212
871.489	23079
871.619	23162
871.749	23273
871.879	23307
872.008	23242
872.138	23155
872.267	23181
872.397	23003
872.526	23044
872.656	23006
872.785	23056
872.915	23204
873.044	23334
873.173	23193
873.303	23269
873.432	23200
873.561	23299
873.69	23269
873.819	23094
873.948	23318
874.077	23235
874.206	23098
874.335	23204
874.464	23273
874.593	23387
874.722	23349
874.851	23379
874.979	23509
875.108	23307
875.237	23364
875.365	23337
875.494	23223
875.623	23497
875.751	23246
875.88	23353
876.008	23551
876.136	23585
876.265	23824
876.393	23923
876.521	23752
876.65	23859
876.778	23908
876.906	23729
877.034	23764
877.162	23741
877.29	23672
877.418	23699
877.546	23642
877.674	23790
877.802	23748
877.93	23684
878.058	23767
878.185	23600
878.313	23676
878.441	23615
878.568	23581
878.696	23615
878.824	23680
878.951	23843
879.079	23794
879.206	24220
879.333	23828
879.461	23729
879.588	23767
879.715	23779
879.842	23965
879.97	23771
880.097	23562
880.224	23478
880.351	23691
880.478	23665
880.605	23516
880.732	23531
880.859	23901
880.986	23611
881.112	23531
881.239	23429
881.366	23261
881.493	23132
881.619	23014
881.746	23117
881.872	23208
881.999	23094
882.125	22976
882.252	23071
882.378	23143
882.505	23181
882.631	22908
882.757	22858
882.883	22869
883.01	22824
883.136	22672
883.262	22641
883.388	22588
883.514	22801
883.64	22839
883.766	22630
883.892	22584
884.018	22577
884.143	22778
884.269	22675
884.395	22466
884.52	22424
884.646	22375
884.772	22329
884.897	22306
885.023	22337
885.148	22577
885.274	22653
885.399	22554
885.524	22356
885.65	22409
885.775	22257
885.9	22386
886.025	22436
886.15	22531
886.275	22352
886.4	22310
886.525	22333
886.65	22386
886.775	22382
886.9	22546
887.025	22519
887.149	22394
887.274	22310
887.399	22242
887.523	22200
887.648	22109
887.773	22154
887.897	22200
888.021	22223
888.146	22078
888.27	22200
888.395	22150
888.519	22200
888.643	22226
888.767	22128
888.891	22036
889.015	22017
889.139	22010
889.263	21903
889.387	22025
889.511	22097
889.635	22032
889.759	21934
889.883	21926
890.006	21918
890.13	22029
890.254	21922
890.377	21797
890.501	21720
890.624	21614
890.748	21827
890.871	21633
890.995	21428
891.118	21523
891.241	21447
891.364	21519
891.488	21591
891.611	21538
891.734	21542
891.857	21561
891.98	21523
892.103	21538
892.226	21515
892.349	21485
892.471	21298
892.594	21329
892.717	21439
892.839	21344
892.962	21496
893.085	21496
893.207	21287
893.33	21256
893.452	21348
893.575	21302
893.697	21401
893.819	21485
893.941	21606
894.064	21477
894.186	21298
894.308	21306
894.43	21447
894.552	21469
894.674	21401
894.796	21237
894.918	21401
895.04	21321
895.161	21412
895.283	21473
895.405	21378
895.526	21401
895.648	21329
895.769	21313
895.891	21374
896.012	21393
896.134	21306
896.255	21332
896.376	21496
896.498	21435
896.619	21287
896.74	21272
896.861	21359
896.982	21591
897.103	21755
897.224	21587
897.345	21625
897.466	21481
897.587	21466
897.708	21755
897.828	21523
897.949	21496
898.07	21386
898.19	21458
898.311	21591
898.431	21466
898.552	21561
898.672	21652
898.792	21728
898.913	21443
899.033	21382
899.153	21355
899.273	21218
899.393	21218
899.513	21332
899.633	21340
899.753	21348
899.873	21116
899.993	21272
900.113	21218
900.232	21214
900.352	21157
900.472	21119
900.591	21116
900.711	21013
900.83	21001
900.95	21089
901.069	21135
901.189	20941
901.308	20693
901.427	20579
901.546	20602
901.665	20602
901.784	20587
901.904	20511
902.023	20298
902.141	20240
902.26	20100
902.379	20259
902.498	20065
902.617	20012
902.735	20237
902.854	20039
902.973	20027
903.091	19753
903.21	19746
903.328	19731
903.446	19533
903.565	19483
903.683	19616
903.801	19426
903.919	19609
904.038	19388
904.156	19411
904.274	19308
904.392	19312
904.51	19339
904.627	19263
904.745	19339
904.863	19308
904.981	19057
905.098	18886
905.216	18958
905.334	19103
905.451	18989
905.569	18993
905.686	18973
905.803	18970
905.921	18757
906.038	18897
906.155	18764
906.272	18623
906.389	18661
906.506	18494
906.623	18506
906.74	18513
906.857	18315
906.974	18513
907.091	18559
907.208	18612
907.324	18448
907.441	18319
907.557	18102
907.674	18133
907.79	18121
907.907	18190
908.023	18251
908.139	18216
908.256	18133
908.372	18110
908.488	18022
908.604	17946
908.72	17878
908.836	17897
908.952	17916
909.068	17866
909.184	17939
909.3	17882
909.415	18003
909.531	17843
909.647	17630
909.762	17649
909.878	17600
909.993	17623
910.108	17646
910.224	17562
910.339	17558
910.454	17478
910.57	17509
910.685	17360
910.8	17623
910.915	17589
911.03	17376
911.145	17170
911.259	17174
911.374	17166
911.489	17151
911.604	17048
911.718	16881
911.833	16919
911.947	16843
912.062	16763
912.176	16839
912.291	16900
912.405	16972
912.519	17071
912.633	17147
912.748	16885
912.862	16930
912.976	16767
913.09	16561
913.204	16637
913.318	16763
913.431	16778
913.545	16843
913.659	16862
913.772	16691
913.886	16462
914	16451
914.113	16607
914.226	16607
914.34	16561
914.453	16379
914.566	16500
914.68	16394
914.793	16329
914.906	16131
915.019	16086
915.132	16067
915.245	16090
915.358	16105
915.47	16029
915.583	16006
915.696	16071
915.809	16067
915.921	16204
916.034	16017
916.146	15964
916.259	15903
916.371	16036
916.483	16044
916.595	15869
916.708	15888
916.82	15842
916.932	15846
917.044	15819
917.156	15789
917.268	15736
917.38	15747
917.491	15625
917.603	15675
917.715	15770
917.826	15827
917.938	15576
918.049	15507
918.161	15610
918.272	15899
918.384	15797
918.495	15603
918.606	15439
918.717	15340
918.828	15420
918.939	15462
919.05	15416
919.161	15492
919.272	15226
919.383	15222
919.494	15538
919.604	15553
919.715	15382
919.826	15317
919.936	15408
920.047	15466
920.157	15500
920.267	15656
920.378	15351
920.488	15283
920.598	15534
920.708	15660
920.818	15530
920.928	15618
921.038	15652
921.148	15606
921.258	15268
921.368	15169
921.477	15214
921.587	15104
921.697	14891
921.806	15085
921.916	15001
922.025	14834
922.134	14697
922.244	14735
922.353	14777
922.462	14575
922.571	14507
922.68	14549
922.789	14332
922.898	14377
923.007	14332
923.116	14396
923.224	14362
923.333	14248
923.442	14267
923.55	14103
923.659	14218
923.767	14290
923.876	14142
923.984	14050
924.092	14073
924.201	14081
924.309	14134
924.417	14115
924.525	13967
924.633	14058
924.741	14849
924.849	13780
924.956	14039
925.064	13765
925.172	13670
925.279	13670
925.387	13734
925.494	13666
925.602	13849
925.709	13769
925.816	13590
925.924	13674
926.031	13727
926.138	13677
926.245	13742
926.352	13533
926.459	13757
926.566	13700
926.673	13666
926.779	13430
926.886	13388
926.993	13365
927.099	13373
927.206	13225
927.312	13202
927.419	13285
927.525	13282
927.631	13377
927.737	13160
927.843	13088
927.95	12939
928.056	12966
928.162	13046
928.267	13206
928.373	13753
928.479	13126
928.585	12897
928.69	12996
928.796	13114
928.901	12890
929.007	12814
929.112	12981
929.218	12833
929.323	12894
929.428	12768
929.533	12897
929.638	12776
929.743	12665
929.848	12741
929.953	12776
930.058	12623
930.163	12441
930.267	12509
930.372	12563
930.477	12437
930.581	12700
930.685	12517
930.79	12273
930.894	12346
930.998	12315
931.103	12361
931.207	12068
931.311	12011
931.415	11931
931.519	11665
931.623	11699
