Data from test_V78500241_1266.txt Node
Date: Fri Mar 25 15:50:34 CST 2022
User: usil
Spectrometer: V785-0024
Trigger mode: 0
Integration Time (sec): 4.000000E-1
Scans to average: 1
Nonlinearity correction enabled: false
Boxcar width: 0
Storing dark spectrum: false
XAxis mode: Wavelengths
Number of Pixels in Spectrum: 1024
>>>>>Begin Spectral Data<<<<<
801.071	28904
801.214	28710
801.356	28637
801.499	28615
801.641	28360
801.783	28580
801.926	28459
802.068	28447
802.211	28462
802.353	28356
802.496	28185
802.638	28272
802.78	28223
802.923	28070
803.065	28139
803.208	28135
803.35	28230
803.492	28242
803.635	28455
803.777	28196
803.919	28394
804.061	28729
804.204	28344
804.346	28462
804.488	28246
804.63	28306
804.773	28295
804.915	28398
805.057	28417
805.199	28382
805.341	28447
805.483	28702
805.626	28546
805.768	28478
805.91	28500
806.052	28710
806.194	28519
806.336	28687
806.478	28702
806.62	28641
806.762	28778
806.904	28938
807.046	29181
807.188	29113
807.33	29018
807.472	29041
807.614	29060
807.756	29052
807.898	28968
808.04	28885
808.182	28881
808.324	28942
808.465	29006
808.607	29181
808.749	29208
808.891	29372
809.033	29383
809.174	29330
809.316	29284
809.458	29216
809.6	29307
809.741	29520
809.883	29303
810.025	29558
810.166	29646
810.308	29627
810.45	29577
810.591	29459
810.733	29444
810.875	29318
811.016	29117
811.158	29284
811.299	29356
811.441	29467
811.582	29516
811.724	29341
811.865	29250
812.007	29360
812.148	29231
812.29	29421
812.431	29474
812.573	29722
812.714	29733
812.855	29733
812.997	29939
813.138	30018
813.279	29904
813.421	29859
813.562	29733
813.703	29623
813.845	29619
813.986	29223
814.127	29231
814.268	28942
814.41	29117
814.551	29022
814.692	29113
814.833	28976
814.974	29098
815.115	29128
815.256	28862
815.397	28999
815.539	28919
815.68	28934
815.821	28816
815.962	28752
816.103	28706
816.244	28683
816.385	28717
816.526	28649
816.666	28538
816.807	28276
816.948	28394
817.089	28535
817.23	28341
817.371	28394
817.512	28360
817.653	28344
817.793	28249
817.934	28413
818.075	28249
818.216	28306
818.356	28188
818.497	28131
818.638	28196
818.778	28097
818.919	28242
819.06	28276
819.2	28226
819.341	28432
819.481	28211
819.622	28519
819.762	28759
819.903	28550
820.043	28656
820.184	28573
820.324	28428
820.465	28557
820.605	28550
820.746	28573
820.886	28333
821.026	28550
821.167	28432
821.307	28451
821.447	28356
821.588	28306
821.728	28131
821.868	28017
822.008	27808
822.149	27827
822.289	27857
822.429	27500
822.569	27629
822.709	27591
822.849	27447
822.99	27424
823.13	27378
823.27	27397
823.41	27218
823.55	27165
823.69	27203
823.83	27184
823.97	27066
824.11	26967
824.25	26937
824.389	26990
824.529	27074
824.669	27096
824.809	27020
824.949	27135
825.089	27119
825.228	26952
825.368	26868
825.508	26929
825.648	26857
825.787	27043
825.927	26925
826.067	26781
826.206	26826
826.346	27070
826.485	27055
826.625	26921
826.765	26975
826.904	27009
827.044	26815
827.183	26663
827.323	26629
827.462	26712
827.601	26689
827.741	26488
827.88	26716
828.02	26541
828.159	26682
828.298	26602
828.437	26629
828.577	26583
828.716	26735
828.855	26419
828.994	26374
829.134	26263
829.273	26286
829.412	26374
829.551	26240
829.69	26389
829.829	26442
829.968	26427
830.107	26404
830.246	26351
830.385	26267
830.524	26233
830.663	26172
830.802	26050
830.941	25746
831.08	25875
831.219	26062
831.357	25970
831.496	26237
831.635	25921
831.774	25845
831.913	25772
832.051	25761
832.19	25666
832.329	25830
832.467	25662
832.606	25544
832.744	25563
832.883	25643
833.022	25514
833.16	25700
833.299	25696
833.437	25780
833.576	25742
833.714	25666
833.852	25651
833.991	25719
834.129	25712
834.267	25624
834.406	25719
834.544	25651
834.682	25651
834.821	25601
834.959	25826
835.097	25597
835.235	25757
835.373	25628
835.511	25624
835.65	25533
835.788	25567
835.926	25388
836.064	25403
836.202	25377
836.34	25400
836.478	25525
836.615	25438
836.753	25472
836.891	25476
837.029	25571
837.167	25304
837.305	25343
837.443	25388
837.58	25369
837.718	25441
837.856	25354
837.993	25308
838.131	25445
838.269	25072
838.406	25217
838.544	25065
838.681	24890
838.819	24882
838.956	24677
839.094	24772
839.231	24856
839.369	24935
839.506	25225
839.643	24916
839.781	24764
839.918	24768
840.055	24772
840.193	24692
840.33	24677
840.467	24745
840.604	24897
840.742	24916
840.879	24532
841.016	24719
841.153	24566
841.29	24814
841.427	24719
841.564	24661
841.701	24635
841.838	24635
841.975	24612
842.112	24711
842.249	24426
842.385	24505
842.522	24715
842.659	24547
842.796	24445
842.933	24467
843.069	24395
843.206	24460
843.343	24471
843.479	24395
843.616	24399
843.752	24163
843.889	24258
844.025	24330
844.162	24197
844.298	24323
844.435	24304
844.571	24136
844.708	24148
844.844	24327
844.98	24395
845.117	24266
845.253	24140
845.389	24003
845.525	24167
845.661	23969
845.798	23912
845.934	24098
846.07	23946
846.206	23935
846.342	24098
846.478	23794
846.614	23608
846.75	23414
846.886	23714
847.022	23832
847.158	23661
847.294	23729
847.429	23653
847.565	23467
847.701	23893
847.837	23417
847.972	23395
848.108	23486
848.244	23478
848.379	23140
848.515	23246
848.65	23166
848.786	23185
848.921	23151
849.057	23421
849.192	23376
849.328	23417
849.463	23288
849.598	23162
849.734	23140
849.869	23075
850.004	23041
850.14	23003
850.275	23071
850.41	22923
850.545	22980
850.68	22942
850.815	22984
850.95	22930
851.085	23235
851.22	23022
851.355	22881
851.49	23060
851.625	23010
851.76	22934
851.895	22862
852.03	23025
852.165	22942
852.299	22904
852.434	22965
852.569	22968
852.703	22968
852.838	23041
852.973	23052
853.107	23029
853.242	22953
853.376	22862
853.511	22809
853.645	22744
853.78	22869
853.914	22828
854.048	22877
854.183	22866
854.317	22793
854.451	22965
854.585	22919
854.72	22790
854.854	22930
854.988	22656
855.122	22797
855.256	22668
855.39	22748
855.524	22843
855.658	22854
855.792	22866
855.926	22820
856.06	22858
856.194	22835
856.327	22729
856.461	22755
856.595	22782
856.729	22679
856.862	22991
856.996	22896
857.13	22911
857.263	23086
857.397	22854
857.53	22862
857.664	22866
857.797	22828
857.931	22942
858.064	22908
858.197	22900
858.331	22740
858.464	22626
858.597	22774
858.731	22752
858.864	22809
858.997	22744
859.13	22790
859.263	22736
859.396	22961
859.529	22816
859.662	22672
859.795	22675
859.928	22755
860.061	22915
860.194	23064
860.327	22896
860.46	22892
860.592	22892
860.725	22961
860.858	22965
860.99	22740
861.123	22596
861.256	22710
861.388	22850
861.521	23318
861.653	22615
861.786	22618
861.918	22603
862.05	22675
862.183	22630
862.315	22736
862.447	22809
862.58	22721
862.712	22474
862.844	22428
862.976	22554
863.108	22630
863.24	22835
863.372	22466
863.504	22436
863.636	22424
863.768	22516
863.9	22607
864.032	22424
864.164	22348
864.296	22580
864.428	22653
864.559	22519
864.691	22573
864.823	22363
864.954	22557
865.086	22485
865.217	22356
865.349	22379
865.48	22470
865.612	22402
865.743	22436
865.875	22390
866.006	22432
866.137	22360
866.269	22474
866.4	22306
866.531	22337
866.662	22352
866.793	22348
866.924	22295
867.055	22341
867.186	22204
867.317	22306
867.448	22154
867.579	22234
867.71	22185
867.841	22166
867.972	22325
868.103	22325
868.233	22322
868.364	22192
868.495	22360
868.625	22546
868.756	22713
868.886	22424
869.017	22603
869.147	22538
869.278	22653
869.408	22641
869.539	22637
869.669	22554
869.799	22599
869.929	22793
870.06	22691
870.19	22843
870.32	22831
870.45	22915
870.58	22965
870.71	23151
870.84	23109
870.97	22869
871.1	22934
871.23	23071
871.36	23185
871.489	22961
871.619	23048
871.749	23079
871.879	23162
872.008	23265
872.138	23166
872.267	23280
872.397	22991
872.526	22995
872.656	22847
872.785	22976
872.915	23235
873.044	23170
873.173	23029
873.303	23204
873.432	23132
873.561	23250
873.69	23181
873.819	23166
873.948	23322
874.077	23155
874.206	23124
874.335	23242
874.464	23273
874.593	23364
874.722	23410
874.851	23341
874.979	23383
875.108	23326
875.237	23231
875.365	23128
875.494	23273
875.623	23448
875.751	23261
875.88	23368
876.008	23478
876.136	23592
876.265	23627
876.393	23878
876.521	23863
876.65	23866
876.778	23718
876.906	23737
877.034	23611
877.162	23729
877.29	23729
877.418	23600
877.546	23604
877.674	23809
877.802	23710
877.93	23547
878.058	23665
878.185	23551
878.313	23600
878.441	23771
878.568	23551
878.696	23684
878.824	23684
878.951	23748
879.079	23878
879.206	24030
879.333	23824
879.461	23764
879.588	23699
879.715	23794
879.842	23996
879.97	23824
880.097	23417
880.224	23368
880.351	23570
880.478	23512
880.605	23493
880.732	23634
880.859	23710
880.986	23478
881.112	23383
881.239	23455
881.366	23299
881.493	23265
881.619	23094
881.746	23109
881.872	23079
881.999	23029
882.125	22949
882.252	22953
882.378	22953
882.505	22942
882.631	22843
882.757	22736
882.883	22835
883.01	22778
883.136	22637
883.262	22523
883.388	22565
883.514	22698
883.64	22908
883.766	22694
883.892	22550
884.018	22531
884.143	22588
884.269	22721
884.395	22470
884.52	22238
884.646	22207
884.772	22352
884.897	22310
885.023	22295
885.148	22565
885.274	22565
885.399	22516
885.524	22363
885.65	22356
885.775	22382
885.9	22200
886.025	22462
886.15	22382
886.275	22310
886.4	22204
886.525	22318
886.65	22211
886.775	22352
886.9	22371
887.025	22561
887.149	22272
887.274	22200
887.399	22135
887.523	22025
887.648	22025
887.773	22044
887.897	22162
888.021	22093
888.146	21854
888.27	22234
888.395	22150
888.519	21987
888.643	22124
888.767	22211
888.891	21994
889.015	21915
889.139	21994
889.263	21934
889.387	22013
889.511	22086
889.635	21975
889.759	21892
889.883	21793
890.006	21846
890.13	21915
890.254	21831
890.377	21770
890.501	21747
890.624	21523
890.748	21686
890.871	21519
890.995	21462
891.118	21443
891.241	21450
891.364	21542
891.488	21530
891.611	21454
891.734	21530
891.857	21431
891.98	21534
892.103	21549
892.226	21405
892.349	21363
892.471	21165
892.594	21306
892.717	21439
892.839	21291
892.962	21447
893.085	21473
893.207	21275
893.33	21256
893.452	21237
893.575	21473
893.697	21351
893.819	21439
893.941	21580
894.064	21408
894.186	21222
894.308	21207
894.43	21454
894.552	21435
894.674	21329
894.796	21104
894.918	21287
895.04	21249
895.161	21325
895.283	21272
895.405	21237
895.526	21317
895.648	21401
895.769	21287
895.891	21317
896.012	21382
896.134	21397
896.255	21329
896.376	21222
896.498	21180
896.619	21344
896.74	21287
896.861	21256
896.982	21728
897.103	21709
897.224	21580
897.345	21557
897.466	21500
897.587	21458
897.708	21698
897.828	21469
897.949	21473
898.07	21291
898.19	21481
898.311	21580
898.431	21424
898.552	21420
898.672	21523
898.792	21618
898.913	21370
899.033	21367
899.153	21214
899.273	21222
899.393	21180
899.513	21272
899.633	21317
899.753	21287
899.873	21138
899.993	21195
900.113	21249
900.232	21096
900.352	21039
900.472	20975
900.591	20883
900.711	21081
900.83	20941
900.95	21077
901.069	21081
901.189	20872
901.308	20629
901.427	20514
901.546	20625
901.665	20431
901.784	20571
901.904	20404
902.023	20385
902.141	20119
902.26	20077
902.379	20206
902.498	20062
902.617	19982
902.735	20126
902.854	19970
902.973	20008
903.091	19757
903.21	19666
903.328	19639
903.446	19613
903.565	19487
903.683	19533
903.801	19354
903.919	19457
904.038	19453
904.156	19194
904.274	19339
904.392	19228
904.51	19285
904.627	19160
904.745	19327
904.863	19285
904.981	19080
905.098	18875
905.216	18897
905.334	19004
905.451	18905
905.569	18882
905.686	19008
905.803	18951
905.921	18696
906.038	18814
906.155	18787
906.272	18578
906.389	18490
906.506	18437
906.623	18422
906.74	18441
906.857	18452
906.974	18384
907.091	18460
907.208	18544
907.324	18422
907.441	18292
907.557	18228
907.674	18106
907.79	18136
907.907	18117
908.023	18190
908.139	18220
908.256	18216
908.372	18159
908.488	17843
908.604	17843
908.72	17874
908.836	17855
908.952	17794
909.068	17863
909.184	17889
909.3	17885
909.415	17836
909.531	17809
909.647	17707
909.762	17592
909.878	17444
909.993	17570
910.108	17573
910.224	17524
910.339	17535
910.454	17379
910.57	17368
910.685	17246
910.8	17539
910.915	17482
911.03	17299
911.145	17155
911.259	17151
911.374	17193
911.489	17056
911.604	17075
911.718	16900
911.833	16896
911.947	16759
912.062	16675
912.176	16930
912.291	16854
912.405	16862
912.519	17185
912.633	17037
912.748	16915
912.862	16843
912.976	16672
913.09	16538
913.204	16725
913.318	16675
913.431	16774
913.545	16736
913.659	16873
913.772	16558
913.886	16390
914	16451
914.113	16512
914.226	16580
914.34	16478
914.453	16413
914.566	16455
914.68	16333
914.793	16249
914.906	16143
915.019	16078
915.132	16025
915.245	15945
915.358	16040
915.47	16093
915.583	15835
915.696	16143
915.809	16234
915.921	16124
916.034	16044
916.146	15888
916.259	15949
916.371	15941
916.483	15937
916.595	15850
916.708	15892
916.82	15869
916.932	15972
917.044	15797
917.156	15785
917.268	15671
917.38	15732
917.491	15595
917.603	15564
917.715	15762
917.826	15739
917.938	15538
918.049	15530
918.161	15603
918.272	15751
918.384	15736
918.495	15542
918.606	15447
918.717	15325
918.828	15435
918.939	15397
919.05	15313
919.161	15401
919.272	15230
919.383	15245
919.494	15454
919.604	15477
919.715	15408
919.826	15283
919.936	15306
920.047	15382
920.157	15355
920.267	15561
920.378	15359
920.488	15294
920.598	15481
920.708	15561
920.818	15462
920.928	15473
921.038	15633
921.148	15534
921.258	15321
921.368	15028
921.477	14994
921.587	15047
921.697	14880
921.806	15013
921.916	14895
922.025	14857
922.134	14686
922.244	14735
922.353	14636
922.462	14545
922.571	14427
922.68	14434
922.789	14465
922.898	14450
923.007	14347
923.116	14320
923.224	14332
923.333	14263
923.442	14301
923.55	14138
923.659	14138
923.767	14183
923.876	14187
923.984	14103
924.092	14065
924.201	14088
924.309	14027
924.417	14001
924.525	13974
924.633	13967
924.741	14845
924.849	13837
924.956	13909
925.064	13753
925.172	13658
925.279	13655
925.387	13757
925.494	13822
925.602	13799
925.709	13685
925.816	13601
925.924	13643
926.031	13704
926.138	13670
926.245	13594
926.352	13559
926.459	13708
926.566	13772
926.673	13537
926.779	13430
926.886	13441
926.993	13263
927.099	13236
927.206	13179
927.312	13190
927.419	13358
927.525	13175
927.631	13259
927.737	13145
927.843	13141
927.95	12909
928.056	13015
928.162	13034
928.267	13114
928.373	13723
928.479	13110
928.585	12783
928.69	13027
928.796	12989
928.901	12920
929.007	12741
929.112	12840
929.218	12821
929.323	12867
929.428	12692
929.533	12932
929.638	12772
929.743	12715
929.848	12658
929.953	12791
930.058	12513
930.163	12414
930.267	12448
930.372	12665
930.477	12365
930.581	12604
930.685	12445
930.79	12300
930.894	12304
930.998	12285
931.103	12410
931.207	12034
931.311	12015
931.415	11927
931.519	11718
931.623	11623
