Data from test_V78500241_2211.txt Node
Date: Fri Mar 25 15:57:07 CST 2022
User: usil
Spectrometer: V785-0024
Trigger mode: 0
Integration Time (sec): 4.000000E-1
Scans to average: 1
Nonlinearity correction enabled: false
Boxcar width: 0
Storing dark spectrum: false
XAxis mode: Wavelengths
Number of Pixels in Spectrum: 1024
>>>>>Begin Spectral Data<<<<<
801.071	29166
801.214	29170
801.356	28904
801.499	28858
801.641	28835
801.783	28744
801.926	28733
802.068	28767
802.211	28694
802.353	28694
802.496	28523
802.638	28493
802.78	28436
802.923	28443
803.065	28375
803.208	28455
803.35	28424
803.492	28679
803.635	28557
803.777	28672
803.919	28713
804.061	28949
804.204	28729
804.346	28725
804.488	28824
804.63	28805
804.773	28752
804.915	28835
805.057	28938
805.199	28774
805.341	28831
805.483	28987
805.626	28957
805.768	28790
805.91	28980
806.052	28953
806.194	28771
806.336	29048
806.478	28896
806.62	28938
806.762	29170
806.904	29307
807.046	29512
807.188	29452
807.33	29395
807.472	29448
807.614	29265
807.756	29307
807.898	29364
808.04	29094
808.182	29280
808.324	29379
808.465	29421
808.607	29531
808.749	29684
808.891	29726
809.033	29703
809.174	29707
809.316	29634
809.458	29646
809.6	29627
809.741	29638
809.883	29923
810.025	29897
810.166	29954
810.308	29961
810.45	29908
810.591	30011
810.733	29646
810.875	29581
811.016	29531
811.158	29665
811.299	29710
811.441	29726
811.582	29954
811.724	29786
811.865	29444
812.007	29623
812.148	29707
812.29	29619
812.431	29802
812.573	29996
812.714	30270
812.855	30125
812.997	30365
813.138	30369
813.279	30327
813.421	30349
813.562	30186
813.703	30079
813.845	29999
813.986	29722
814.127	29524
814.268	29467
814.41	29455
814.551	29269
814.692	29478
814.833	29311
814.974	29417
815.115	29482
815.256	29311
815.397	29231
815.539	29364
815.68	29208
815.821	29189
815.962	29231
816.103	29208
816.244	29083
816.385	28991
816.526	29083
816.666	28774
816.807	28603
816.948	28733
817.089	28862
817.23	28637
817.371	28588
817.512	28641
817.653	28626
817.793	28710
817.934	28721
818.075	28752
818.216	28725
818.356	28592
818.497	28611
818.638	28531
818.778	28592
818.919	28325
819.06	28561
819.2	28592
819.341	28740
819.481	28759
819.622	28927
819.762	29056
819.903	29003
820.043	28869
820.184	28786
820.324	28949
820.465	28919
820.605	28820
820.746	28877
820.886	28577
821.026	28957
821.167	28717
821.307	28927
821.447	28706
821.588	28649
821.728	28592
821.868	28466
822.008	28230
822.149	28154
822.289	28268
822.429	27953
822.569	27770
822.709	27918
822.849	27922
822.99	27812
823.13	27762
823.27	27644
823.41	27500
823.55	27507
823.69	27534
823.83	27599
823.97	27610
824.11	27351
824.25	27279
824.389	27420
824.529	27492
824.669	27450
824.809	27591
824.949	27389
825.089	27424
825.228	27359
825.368	27241
825.508	27272
825.648	27363
825.787	27226
825.927	27348
826.067	27245
826.206	27275
826.346	27306
826.485	27329
826.625	27275
826.765	27439
826.904	27481
827.044	27081
827.183	27119
827.323	26960
827.462	26940
827.601	26971
827.741	27066
827.88	27093
828.02	26872
828.159	27070
828.298	27089
828.437	27009
828.577	27032
828.716	27036
828.855	26918
828.994	26765
829.134	26716
829.273	26834
829.412	26800
829.551	26621
829.69	26552
829.829	26705
829.968	26629
830.107	26811
830.246	26629
830.385	26682
830.524	26530
830.663	26568
830.802	26530
830.941	26457
831.08	26313
831.219	26370
831.357	26404
831.496	26507
831.635	26434
831.774	26168
831.913	26415
832.051	26062
832.19	26206
832.329	26168
832.467	25993
832.606	25833
832.744	25883
832.883	26008
833.022	26008
833.16	25989
833.299	25955
833.437	25921
833.576	25993
833.714	26039
833.852	26138
833.991	26130
834.129	26157
834.267	25989
834.406	26058
834.544	26119
834.682	26088
834.821	25989
834.959	26096
835.097	25978
835.235	26069
835.373	25955
835.511	25963
835.65	25966
835.788	25871
835.926	25845
836.064	25753
836.202	25765
836.34	25791
836.478	26054
836.615	25811
836.753	25849
836.891	26008
837.029	25909
837.167	25807
837.305	25708
837.443	25689
837.58	25658
837.718	25803
837.856	25708
837.993	25559
838.131	25651
838.269	25518
838.406	25575
838.544	25609
838.681	25350
838.819	25247
838.956	25122
839.094	25202
839.231	25137
839.369	25346
839.506	25559
839.643	25358
839.781	25244
839.918	24973
840.055	25088
840.193	25027
840.33	25126
840.467	25206
840.604	25034
840.742	25232
840.879	24992
841.016	24913
841.153	24875
841.29	25076
841.427	25069
841.564	25137
841.701	24989
841.838	25034
841.975	24958
842.112	24962
842.249	24905
842.385	24833
842.522	24932
842.659	24924
842.796	24772
842.933	24894
843.069	24711
843.206	24726
843.343	24897
843.479	24749
843.616	24620
843.752	24547
843.889	24631
844.025	24730
844.162	24494
844.298	24608
844.435	24631
844.571	24426
844.708	24578
844.844	24700
844.98	24707
845.117	24760
845.253	24513
845.389	24433
845.525	24448
845.661	24342
845.798	24258
845.934	24292
846.07	24155
846.206	24243
846.342	24334
846.478	24277
846.614	24018
846.75	23946
846.886	23901
847.022	24148
847.158	23977
847.294	23942
847.429	23950
847.565	23874
847.701	24224
847.837	23783
847.972	23687
848.108	23851
848.244	23805
848.379	23672
848.515	23573
848.65	23505
848.786	23531
848.921	23600
849.057	23710
849.192	23581
849.328	23733
849.463	23722
849.598	23486
849.734	23589
849.869	23376
850.004	23372
850.14	23459
850.275	23334
850.41	23261
850.545	23330
850.68	23227
850.815	23334
850.95	23315
851.085	23581
851.22	23425
851.355	23398
851.49	23170
851.625	23455
851.76	23353
851.895	23246
852.03	23239
852.165	23307
852.299	23425
852.434	23395
852.569	23368
852.703	23372
852.838	23379
852.973	23379
853.107	23570
853.242	23239
853.376	23212
853.511	23037
853.645	23014
853.78	23322
853.914	23220
854.048	23181
854.183	23162
854.317	23136
854.451	23372
854.585	23197
854.72	23071
854.854	23185
854.988	23155
855.122	23098
855.256	23174
855.39	23193
855.524	23170
855.658	23162
855.792	23197
855.926	23151
856.06	23178
856.194	23288
856.327	23159
856.461	23128
856.595	23060
856.729	23151
856.862	23372
856.996	23318
857.13	23322
857.263	23200
857.397	23246
857.53	23208
857.664	23220
857.797	23273
857.931	23284
858.064	23284
858.197	23216
858.331	23117
858.464	23174
858.597	22934
858.731	23067
858.864	23174
858.997	23121
859.13	23010
859.263	23216
859.396	23212
859.529	23239
859.662	23064
859.795	23121
859.928	23364
860.061	23273
860.194	23356
860.327	23216
860.46	23288
860.592	23261
860.725	23353
860.858	23448
860.99	23265
861.123	23216
861.256	23056
861.388	23170
861.521	23824
861.653	23064
861.786	22904
861.918	23094
862.05	23086
862.183	22976
862.315	23071
862.447	23124
862.58	23037
862.712	22828
862.844	22866
862.976	22809
863.108	22919
863.24	23315
863.372	22866
863.504	22896
863.636	22790
863.768	22755
863.9	22957
864.032	22854
864.164	22847
864.296	22793
864.428	22965
864.559	22790
864.691	22946
864.823	22835
864.954	22809
865.086	22736
865.217	22744
865.349	22691
865.48	22782
865.612	22733
865.743	22835
865.875	22786
866.006	22698
866.137	22755
866.269	22653
866.4	22759
866.531	22767
866.662	22626
866.793	22706
866.924	22679
867.055	22694
867.186	22603
867.317	22615
867.448	22577
867.579	22615
867.71	22569
867.841	22512
867.972	22668
868.103	22523
868.233	22599
868.364	22710
868.495	22740
868.625	23022
868.756	22850
868.886	22725
869.017	23003
869.147	22999
869.278	22968
869.408	22919
869.539	22980
869.669	22938
869.799	22866
869.929	22980
870.06	23018
870.19	23094
870.32	23189
870.45	23235
870.58	23284
870.71	23318
870.84	23368
870.97	23334
871.1	23402
871.23	23474
871.36	23524
871.489	23417
871.619	23535
871.749	23383
871.879	23562
872.008	23379
872.138	23566
872.267	23543
872.397	23406
872.526	23239
872.656	23414
872.785	23318
872.915	23429
873.044	23646
873.173	23634
873.303	23577
873.432	23596
873.561	23570
873.69	23516
873.819	23444
873.948	23512
874.077	23482
874.206	23410
874.335	23505
874.464	23554
874.593	23771
874.722	23729
874.851	23707
874.979	23802
875.108	23817
875.237	23668
875.365	23516
875.494	23748
875.623	23649
875.751	23752
875.88	23695
876.008	23790
876.136	23897
876.265	23999
876.393	24277
876.521	24205
876.65	24197
876.778	24133
876.906	24087
877.034	23969
877.162	24072
877.29	24076
877.418	24022
877.546	24140
877.674	24018
877.802	23950
877.93	23973
878.058	24068
878.185	24018
878.313	23855
878.441	24022
878.568	23832
878.696	23977
878.824	24224
878.951	24163
879.079	24144
879.206	24327
879.333	24190
879.461	24155
879.588	24011
879.715	24144
879.842	24247
879.97	24178
880.097	23908
880.224	23790
880.351	23874
880.478	23836
880.605	23866
880.732	23798
880.859	24060
880.986	23935
881.112	23847
881.239	23729
881.366	23535
881.493	23459
881.619	23395
881.746	23459
881.872	23478
881.999	23406
882.125	23265
882.252	23376
882.378	23239
882.505	23440
882.631	23212
882.757	23086
882.883	23132
883.01	23071
883.136	23102
883.262	22942
883.388	22984
883.514	23079
883.64	23105
883.766	22968
883.892	22771
884.018	22915
884.143	23003
884.269	23075
884.395	22790
884.52	22592
884.646	22740
884.772	22561
884.897	22687
885.023	22668
885.148	22683
885.274	22816
885.399	22881
885.524	22634
885.65	22710
885.775	22653
885.9	22622
886.025	22713
886.15	22805
886.275	22687
886.4	22622
886.525	22649
886.65	22542
886.775	22584
886.9	22831
887.025	22889
887.149	22702
887.274	22459
887.399	22367
887.523	22436
887.648	22268
887.773	22325
887.897	22493
888.021	22424
888.146	22310
888.27	22485
888.395	22535
888.519	22504
888.643	22481
888.767	22504
888.891	22356
889.015	22207
889.139	22322
889.263	22272
889.387	22394
889.511	22474
889.635	22424
889.759	22211
889.883	22215
890.006	22249
890.13	22249
890.254	22059
890.377	22211
890.501	22010
890.624	21918
890.748	22040
890.871	21747
890.995	21660
891.118	21686
891.241	21679
891.364	21800
891.488	21876
891.611	21819
891.734	21778
891.857	21812
891.98	21709
892.103	21838
892.226	21675
892.349	21629
892.471	21606
892.594	21644
892.717	21705
892.839	21675
892.962	21641
893.085	21606
893.207	21762
893.33	21622
893.452	21587
893.575	21713
893.697	21553
893.819	21831
893.941	21762
894.064	21778
894.186	21538
894.308	21572
894.43	21755
894.552	21861
894.674	21656
894.796	21538
894.918	21580
895.04	21633
895.161	21587
895.283	21576
895.405	21545
895.526	21614
895.648	21523
895.769	21622
895.891	21728
896.012	21690
896.134	21816
896.255	21770
896.376	21622
896.498	21644
896.619	21679
896.74	21568
896.861	21793
896.982	21865
897.103	22025
897.224	21759
897.345	21865
897.466	21606
897.587	21831
897.708	22116
897.828	21861
897.949	21747
898.07	21625
898.19	21720
898.311	22002
898.431	21701
898.552	21804
898.672	21884
898.792	21789
898.913	21732
899.033	21599
899.153	21667
899.273	21435
899.393	21416
899.513	21561
899.633	21576
899.753	21519
899.873	21367
899.993	21587
900.113	21477
900.232	21538
900.352	21405
900.472	21374
900.591	21325
900.711	21264
900.83	21329
900.95	21275
901.069	21405
901.189	21188
901.308	20902
901.427	20895
901.546	20887
901.665	20910
901.784	20804
901.904	20670
902.023	20552
902.141	20389
902.26	20408
902.379	20404
902.498	20313
902.617	20290
902.735	20290
902.854	20332
902.973	20259
903.091	20069
903.21	19997
903.328	19955
903.446	19868
903.565	19830
903.683	19852
903.801	19689
903.919	19731
904.038	19757
904.156	19495
904.274	19693
904.392	19487
904.51	19563
904.627	19502
904.745	19594
904.863	19571
904.981	19343
905.098	19198
905.216	19148
905.334	19247
905.451	19175
905.569	19080
905.686	19335
905.803	19251
905.921	18962
906.038	19065
906.155	18985
906.272	18951
906.389	18916
906.506	18677
906.623	18741
906.74	18639
906.857	18646
906.974	18620
907.091	18730
907.208	18833
907.324	18703
907.441	18639
907.557	18437
907.674	18399
907.79	18361
907.907	18437
908.023	18433
908.139	18494
908.256	18235
908.372	18232
908.488	18308
908.604	18232
908.72	18129
908.836	18266
908.952	18053
909.068	18148
909.184	18110
909.3	18015
909.415	18152
909.531	18133
909.647	17878
909.762	17817
909.878	17707
909.993	17798
910.108	17779
910.224	17813
910.339	17821
910.454	17729
910.57	17699
910.685	17558
910.8	17802
910.915	17657
911.03	17570
911.145	17497
911.259	17379
911.374	17493
911.489	17303
911.604	17280
911.718	17121
911.833	17216
911.947	17102
912.062	17025
912.176	17185
912.291	17200
912.405	17159
912.519	17273
912.633	17337
912.748	17113
912.862	17025
912.976	16900
913.09	16713
913.204	16816
913.318	16900
913.431	17033
913.545	17045
913.659	16995
913.772	16877
913.886	16797
914	16763
914.113	16763
914.226	16839
914.34	16755
914.453	16569
914.566	16736
914.68	16687
914.793	16618
914.906	16443
915.019	16337
915.132	16147
915.245	16303
915.358	16272
915.47	16348
915.583	16162
915.696	16272
915.809	16375
915.921	16360
916.034	16219
916.146	16086
916.259	16188
916.371	16139
916.483	16284
916.595	16124
916.708	16013
916.82	16021
916.932	16013
917.044	16071
917.156	15972
917.268	15918
917.38	15854
917.491	15892
917.603	15835
917.715	15968
917.826	16074
917.938	15793
918.049	15694
918.161	15808
918.272	15945
918.384	16017
918.495	15759
918.606	15701
918.717	15690
918.828	15686
918.939	15732
919.05	15545
919.161	15656
919.272	15363
919.383	15466
919.494	15595
919.604	15785
919.715	15538
919.826	15458
919.936	15534
920.047	15778
920.157	15633
920.267	15717
920.378	15557
920.488	15466
920.598	15804
920.708	15888
920.818	15789
920.928	15663
921.038	15895
921.148	15835
921.258	15504
921.368	15488
921.477	15325
921.587	15169
921.697	15241
921.806	15344
921.916	15195
922.025	15081
922.134	14876
922.244	14845
922.353	14975
922.462	14796
922.571	14720
922.68	14594
922.789	14552
922.898	14583
923.007	14415
923.116	14545
923.224	14579
923.333	14431
923.442	14415
923.55	14336
923.659	14370
923.767	14393
923.876	14301
923.984	14427
924.092	14237
924.201	14282
924.309	14225
924.417	14305
924.525	14111
924.633	14195
924.741	14937
924.849	14077
924.956	14062
925.064	13894
925.172	13845
925.279	13826
925.387	13955
925.494	13887
925.602	14077
925.709	13913
925.816	13864
925.924	13826
926.031	13947
926.138	13845
926.245	13856
926.352	13734
926.459	13818
926.566	13974
926.673	13746
926.779	13689
926.886	13651
926.993	13567
927.099	13400
927.206	13373
927.312	13316
927.419	13521
927.525	13377
927.631	13518
927.737	13221
927.843	13274
927.95	13107
928.056	13221
928.162	13251
928.267	13228
928.373	13947
928.479	13266
928.585	13065
928.69	13225
928.796	13202
928.901	13057
929.007	12840
929.112	13088
929.218	13069
929.323	12958
929.428	12962
929.533	13122
929.638	12871
929.743	12844
929.848	12878
929.953	12993
930.058	12787
930.163	12589
930.267	12616
930.372	12779
930.477	12650
930.581	12764
930.685	12601
930.79	12464
930.894	12467
930.998	12410
931.103	12528
931.207	12159
931.311	12186
931.415	12064
931.519	11866
931.623	11798
