Data from test_V78500241_1723.txt Node
Date: Fri Mar 25 15:53:44 CST 2022
User: usil
Spectrometer: V785-0024
Trigger mode: 0
Integration Time (sec): 4.000000E-1
Scans to average: 1
Nonlinearity correction enabled: false
Boxcar width: 0
Storing dark spectrum: false
XAxis mode: Wavelengths
Number of Pixels in Spectrum: 1024
>>>>>Begin Spectral Data<<<<<
801.071	28352
801.214	28272
801.356	28010
801.499	27903
801.641	27975
801.783	27880
801.926	27911
802.068	27838
802.211	27865
802.353	27732
802.496	27759
802.638	27686
802.78	27523
802.923	27572
803.065	27435
803.208	27523
803.35	27466
803.492	27736
803.635	27739
803.777	27637
803.919	27641
804.061	28112
804.204	27850
804.346	27747
804.488	27743
804.63	27648
804.773	27534
804.915	27842
805.057	28036
805.199	27736
805.341	27781
805.483	28021
805.626	27831
805.768	27819
805.91	27907
806.052	27991
806.194	27812
806.336	28063
806.478	27972
806.62	27926
806.762	28059
806.904	28204
807.046	28462
807.188	28337
807.33	28299
807.472	28470
807.614	28432
807.756	28474
807.898	28246
808.04	28192
808.182	27998
808.324	28363
808.465	28394
808.607	28421
808.749	28599
808.891	28664
809.033	28793
809.174	28733
809.316	28500
809.458	28504
809.6	28535
809.741	28691
809.883	28759
810.025	28934
810.166	28858
810.308	28942
810.45	28873
810.591	28748
810.733	28649
810.875	28519
811.016	28436
811.158	28447
811.299	28653
811.441	28759
811.582	28759
811.724	28713
811.865	28653
812.007	28538
812.148	28603
812.29	28618
812.431	28774
812.573	28881
812.714	29018
812.855	29159
812.997	29250
813.138	29406
813.279	29284
813.421	29200
813.562	29159
813.703	29041
813.845	28744
813.986	28489
814.127	28401
814.268	28375
814.41	28333
814.551	28211
814.692	28249
814.833	28234
814.974	28166
815.115	28348
815.256	28131
815.397	28223
815.539	28257
815.68	28021
815.821	27987
815.962	28143
816.103	28112
816.244	27937
816.385	28029
816.526	27854
816.666	27766
816.807	27542
816.948	27709
817.089	27701
817.23	27648
817.371	27618
817.512	27736
817.653	27599
817.793	27572
817.934	27644
818.075	27625
818.216	27641
818.356	27633
818.497	27553
818.638	27348
818.778	27302
818.919	27431
819.06	27439
819.2	27504
819.341	27641
819.481	27629
819.622	27812
819.762	27991
819.903	27793
820.043	27797
820.184	27812
820.324	27644
820.465	27793
820.605	27785
820.746	27709
820.886	27511
821.026	27751
821.167	27743
821.307	27743
821.447	27603
821.588	27542
821.728	27325
821.868	27249
822.008	27192
822.149	27214
822.289	27005
822.429	26861
822.569	26887
822.709	26842
822.849	26651
822.99	26613
823.13	26689
823.27	26632
823.41	26385
823.55	26358
823.69	26339
823.83	26374
823.97	26408
824.11	26252
824.25	26100
824.389	26256
824.529	26142
824.669	26309
824.809	26317
824.949	26381
825.089	26259
825.228	26305
825.368	26016
825.508	26126
825.648	26210
825.787	26183
825.927	26134
826.067	26195
826.206	26119
826.346	26024
826.485	26138
826.625	26062
826.765	26176
826.904	26096
827.044	25906
827.183	25769
827.323	25879
827.462	25746
827.601	25837
827.741	25742
827.88	25856
828.02	25731
828.159	25795
828.298	25841
828.437	25837
828.577	25734
828.716	25970
828.855	25791
828.994	25525
829.134	25422
829.273	25616
829.412	25552
829.551	25392
829.69	25548
829.829	25609
829.968	25670
830.107	25502
830.246	25567
830.385	25495
830.524	25407
830.663	25327
830.802	25247
830.941	25148
831.08	25160
831.219	25259
831.357	25293
831.496	25396
831.635	25099
831.774	25145
831.913	25023
832.051	24825
832.19	24909
832.329	24947
832.467	24935
832.606	24833
832.744	24791
832.883	24791
833.022	24882
833.16	24719
833.299	24817
833.437	24821
833.576	24821
833.714	24954
833.852	24943
833.991	24935
834.129	24973
834.267	24913
834.406	24825
834.544	24787
834.682	24764
834.821	24829
834.959	25046
835.097	24738
835.235	24844
835.373	24859
835.511	24875
835.65	24719
835.788	24722
835.926	24566
836.064	24471
836.202	24555
836.34	24574
836.478	24684
836.615	24620
836.753	24627
836.891	24776
837.029	24650
837.167	24616
837.305	24399
837.443	24521
837.58	24464
837.718	24593
837.856	24418
837.993	24475
838.131	24403
838.269	24281
838.406	24502
838.544	24281
838.681	24182
838.819	24087
838.956	23904
839.094	23927
839.231	24110
839.369	24178
839.506	24380
839.643	24125
839.781	23942
839.918	24018
840.055	24068
840.193	23901
840.33	23855
840.467	23950
840.604	23939
840.742	24155
840.879	23790
841.016	23889
841.153	23813
841.29	24060
841.427	23931
841.564	23942
841.701	23859
841.838	23992
841.975	23767
842.112	23847
842.249	23798
842.385	23703
842.522	23988
842.659	23756
842.796	23570
842.933	23680
843.069	23611
843.206	23661
843.343	23699
843.479	23596
843.616	23630
843.752	23406
843.889	23501
844.025	23573
844.162	23356
844.298	23573
844.435	23509
844.571	23265
844.708	23436
844.844	23623
844.98	23455
845.117	23528
845.253	23436
845.389	23334
845.525	23227
845.661	23341
845.798	23140
845.934	23159
846.07	23181
846.206	23235
846.342	23288
846.478	23124
846.614	22896
846.75	22755
846.886	22809
847.022	22946
847.158	22820
847.294	22847
847.429	23018
847.565	22896
847.701	23086
847.837	22622
847.972	22466
848.108	22679
848.244	22675
848.379	22565
848.515	22546
848.65	22451
848.786	22519
848.921	22565
849.057	22672
849.192	22470
849.328	22432
849.463	22371
849.598	22447
849.734	22352
849.869	22310
850.004	22318
850.14	22215
850.275	22116
850.41	22238
850.545	22177
850.68	22306
850.815	22265
850.95	22090
851.085	22348
851.22	22253
851.355	22299
851.49	22375
851.625	22325
851.76	22287
851.895	22101
852.03	22097
852.165	22246
852.299	22200
852.434	22371
852.569	22352
852.703	22223
852.838	22363
852.973	22344
853.107	22333
853.242	22177
853.376	22143
853.511	21941
853.645	21994
853.78	22124
853.914	22021
854.048	22093
854.183	22010
854.317	22109
854.451	22322
854.585	22090
854.72	22029
854.854	22112
854.988	22021
855.122	22048
855.256	21926
855.39	22139
855.524	22169
855.658	22147
855.792	22029
855.926	22109
856.06	22177
856.194	22116
856.327	21956
856.461	22044
856.595	21994
856.729	21956
856.862	22185
856.996	21991
857.13	22226
857.263	22204
857.397	22086
857.53	22006
857.664	22105
857.797	22086
857.931	22177
858.064	22162
858.197	22128
858.331	21994
858.464	22101
858.597	21804
858.731	21972
858.864	22002
858.997	21922
859.13	22044
859.263	22013
859.396	22109
859.529	22036
859.662	22032
859.795	21960
859.928	22090
860.061	22143
860.194	22207
860.327	22029
860.46	22139
860.592	22215
860.725	22242
860.858	22169
860.99	22150
861.123	21945
861.256	21884
861.388	22036
861.521	22744
861.653	22044
861.786	21876
861.918	21941
862.05	22010
862.183	21991
862.315	21873
862.447	22002
862.58	21953
862.712	21854
862.844	21591
862.976	21895
863.108	21793
863.24	22124
863.372	21797
863.504	21789
863.636	21667
863.768	21854
863.9	21701
864.032	21778
864.164	21724
864.296	21816
864.428	21835
864.559	21793
864.691	21724
864.823	21739
864.954	21793
865.086	21747
865.217	21682
865.349	21599
865.48	21568
865.612	21690
865.743	21816
865.875	21732
866.006	21583
866.137	21694
866.269	21591
866.4	21507
866.531	21591
866.662	21466
866.793	21542
866.924	21568
867.055	21583
867.186	21606
867.317	21466
867.448	21637
867.579	21580
867.71	21439
867.841	21401
867.972	21568
868.103	21713
868.233	21580
868.364	21648
868.495	21507
868.625	21743
868.756	21835
868.886	21804
869.017	21865
869.147	21797
869.278	21903
869.408	21835
869.539	21793
869.669	21941
869.799	21880
869.929	21991
870.06	21819
870.19	22158
870.32	22074
870.45	22265
870.58	22192
870.71	22322
870.84	22291
870.97	22162
871.1	22219
871.23	22314
871.36	22261
871.489	22352
871.619	22272
871.749	22386
871.879	22474
872.008	22489
872.138	22443
872.267	22432
872.397	22211
872.526	22196
872.656	22223
872.785	22310
872.915	22550
873.044	22489
873.173	22470
873.303	22470
873.432	22405
873.561	22523
873.69	22466
873.819	22485
873.948	22481
874.077	22367
874.206	22440
874.335	22409
874.464	22599
874.593	22569
874.722	22725
874.851	22698
874.979	22786
875.108	22748
875.237	22588
875.365	22645
875.494	22729
875.623	22759
875.751	22626
875.88	22679
876.008	22820
876.136	22755
876.265	23071
876.393	23254
876.521	23079
876.65	23208
876.778	23113
876.906	23048
877.034	22915
877.162	22995
877.29	23041
877.418	23060
877.546	23094
877.674	22972
877.802	23003
877.93	23079
878.058	22896
878.185	23140
878.313	22949
878.441	22938
878.568	22862
878.696	22835
878.824	23071
878.951	23132
879.079	23056
879.206	23258
879.333	23102
879.461	22908
879.588	23246
879.715	23060
879.842	23235
879.97	23124
880.097	22694
880.224	22782
880.351	22820
880.478	22835
880.605	22824
880.732	22759
880.859	22915
880.986	22725
881.112	22645
881.239	22557
881.366	22451
881.493	22500
881.619	22371
881.746	22333
881.872	22272
881.999	22409
882.125	22265
882.252	22352
882.378	22280
882.505	22417
882.631	22337
882.757	22128
882.883	22188
883.01	21968
883.136	21937
883.262	21937
883.388	21941
883.514	22029
883.64	22234
883.766	22051
883.892	21804
884.018	21846
884.143	22017
884.269	22116
884.395	21808
884.52	21785
884.646	21713
884.772	21591
884.897	21698
885.023	21743
885.148	21876
885.274	21823
885.399	21987
885.524	21747
885.65	21762
885.775	21709
885.9	21709
886.025	21876
886.15	21759
886.275	21663
886.4	21610
886.525	21717
886.65	21660
886.775	21542
886.9	21800
887.025	21774
887.149	21724
887.274	21443
887.399	21523
887.523	21447
887.648	21416
887.773	21382
887.897	21473
888.021	21473
888.146	21401
888.27	21500
888.395	21534
888.519	21424
888.643	21553
888.767	21561
888.891	21431
889.015	21279
889.139	21329
889.263	21211
889.387	21275
889.511	21443
889.635	21359
889.759	21336
889.883	21283
890.006	21214
890.13	21367
890.254	21207
890.377	21218
890.501	20971
890.624	21062
890.748	21085
890.871	20914
890.995	20682
891.118	20716
891.241	20910
891.364	20910
891.488	20956
891.611	20758
891.734	20929
891.857	20785
891.98	20804
892.103	20956
892.226	20925
892.349	20727
892.471	20670
892.594	20686
892.717	20758
892.839	20651
892.962	20693
893.085	20750
893.207	20701
893.33	20617
893.452	20556
893.575	20781
893.697	20636
893.819	20925
893.941	20902
894.064	20796
894.186	20598
894.308	20773
894.43	20845
894.552	20819
894.674	20785
894.796	20655
894.918	20629
895.04	20606
895.161	20735
895.283	20731
895.405	20712
895.526	20720
895.648	20724
895.769	20773
895.891	20686
896.012	20739
896.134	20670
896.255	20735
896.376	20705
896.498	20636
896.619	20746
896.74	20743
896.861	20765
896.982	21055
897.103	21142
897.224	20990
897.345	20883
897.466	20800
897.587	20872
897.708	21131
897.828	20944
897.949	20830
898.07	20613
898.19	20754
898.311	20963
898.431	20842
898.552	20762
898.672	20861
898.792	20880
898.913	20906
899.033	20800
899.153	20678
899.273	20644
899.393	20594
899.513	20640
899.633	20678
899.753	20716
899.873	20461
899.993	20724
900.113	20579
900.232	20640
900.352	20499
900.472	20564
900.591	20396
900.711	20446
900.83	20218
900.95	20522
901.069	20545
901.189	20263
901.308	20001
901.427	19989
901.546	19970
901.665	19989
901.784	20016
901.904	19871
902.023	19791
902.141	19670
902.26	19518
902.379	19616
902.498	19563
902.617	19415
902.735	19605
902.854	19407
902.973	19396
903.091	19270
903.21	19301
903.328	19084
903.446	19015
903.565	19065
903.683	19027
903.801	18821
903.919	18920
904.038	18894
904.156	18745
904.274	18856
904.392	18681
904.51	18753
904.627	18783
904.745	18776
904.863	18646
904.981	18528
905.098	18369
905.216	18441
905.334	18315
905.451	18426
905.569	18407
905.686	18441
905.803	18311
905.921	18152
906.038	18235
906.155	18098
906.272	18129
906.389	18053
906.506	17904
906.623	17965
906.74	17870
906.857	17802
906.974	17786
907.091	17863
907.208	18034
907.324	17828
907.441	17779
907.557	17672
907.674	17661
907.79	17516
907.907	17543
908.023	17642
908.139	17566
908.256	17512
908.372	17520
908.488	17509
908.604	17326
908.72	17383
908.836	17414
908.952	17296
909.068	17436
909.184	17501
909.3	17261
909.415	17337
909.531	17391
909.647	17132
909.762	17090
909.878	17170
909.993	16991
910.108	17003
910.224	17052
910.339	16949
910.454	16843
910.57	16729
910.685	16763
910.8	17045
910.915	17052
911.03	16843
911.145	16675
911.259	16558
911.374	16664
911.489	16535
911.604	16516
911.718	16402
911.833	16421
911.947	16246
912.062	16287
912.176	16363
912.291	16493
912.405	16436
912.519	16519
912.633	16462
912.748	16341
912.862	16382
912.976	16192
913.09	16101
913.204	16177
913.318	16139
913.431	16280
913.545	16249
913.659	16207
913.772	16120
913.886	15960
914	15972
914.113	16093
914.226	15975
914.34	16063
914.453	15838
914.566	16063
914.68	16017
914.793	15922
914.906	15538
915.019	15625
915.132	15572
915.245	15606
915.358	15534
915.47	15580
915.583	15576
915.696	15606
915.809	15614
915.921	15682
916.034	15561
916.146	15511
916.259	15458
916.371	15439
916.483	15511
916.595	15469
916.708	15420
916.82	15367
916.932	15260
917.044	15325
917.156	15382
917.268	15199
917.38	15252
917.491	15199
917.603	15230
917.715	15321
917.826	15252
917.938	15024
918.049	15077
918.161	15119
918.272	15279
918.384	15279
918.495	15100
918.606	15005
918.717	15001
918.828	14994
918.939	14960
919.05	14986
919.161	14994
919.272	14804
919.383	14887
919.494	14975
919.604	15165
919.715	14845
919.826	14887
919.936	14918
920.047	14979
920.157	14956
920.267	15192
920.378	14826
920.488	14868
920.598	15180
920.708	15157
920.818	15043
920.928	15020
921.038	15127
921.148	15157
921.258	14944
921.368	14663
921.477	14678
921.587	14594
921.697	14480
921.806	14606
921.916	14465
922.025	14320
922.134	14248
922.244	14199
922.353	14301
922.462	14180
922.571	14092
922.68	13993
922.789	13936
922.898	13974
923.007	13902
923.116	13928
923.224	13868
923.333	13887
923.442	13719
923.55	13677
923.659	13795
923.767	13856
923.876	13674
923.984	13693
924.092	13636
924.201	13655
924.309	13753
924.417	13704
924.525	13521
924.633	13594
924.741	14355
924.849	13343
924.956	13426
925.064	13304
925.172	13217
925.279	13190
925.387	13403
925.494	13304
925.602	13480
925.709	13274
925.816	13141
925.924	13206
926.031	13335
926.138	13168
926.245	13213
926.352	13122
926.459	13266
926.566	13297
926.673	13103
926.779	13057
926.886	12989
926.993	12954
927.099	12875
927.206	12776
927.312	12821
927.419	12916
927.525	12916
927.631	12939
927.737	12669
927.843	12692
927.95	12673
928.056	12719
928.162	12734
928.267	12692
928.373	13316
928.479	12840
928.585	12456
928.69	12570
928.796	12734
928.901	12479
929.007	12330
929.112	12547
929.218	12403
929.323	12429
929.428	12376
929.533	12627
929.638	12350
929.743	12308
929.848	12357
929.953	12308
930.058	12235
930.163	12102
930.267	12136
930.372	12136
930.477	11984
930.581	12289
930.685	12057
930.79	12049
930.894	12034
930.998	11901
931.103	12095
931.207	11604
931.311	11554
931.415	11539
931.519	11349
931.623	11273
