Data from test_V78500241_237.txt Node
Date: Fri Mar 25 15:43:26 CST 2022
User: usil
Spectrometer: V785-0024
Trigger mode: 0
Integration Time (sec): 4.000000E-1
Scans to average: 1
Nonlinearity correction enabled: false
Boxcar width: 0
Storing dark spectrum: false
XAxis mode: Wavelengths
Number of Pixels in Spectrum: 1024
>>>>>Begin Spectral Data<<<<<
801.071	29790
801.214	29764
801.356	29391
801.499	29395
801.641	29273
801.783	29345
801.926	29395
802.068	29223
802.211	29261
802.353	29254
802.496	29048
802.638	28797
802.78	29079
802.923	29037
803.065	28843
803.208	28930
803.35	28946
803.492	29094
803.635	29212
803.777	28995
803.919	29181
804.061	29402
804.204	28991
804.346	28942
804.488	28923
804.63	28976
804.773	28942
804.915	29022
805.057	29296
805.199	29052
805.341	29174
805.483	29151
805.626	29071
805.768	29136
805.91	29307
806.052	29250
806.194	29185
806.336	29433
806.478	29250
806.62	29151
806.762	29395
806.904	29417
807.046	29726
807.188	29600
807.33	29710
807.472	29714
807.614	29608
807.756	29665
807.898	29501
808.04	29326
808.182	29334
808.324	29372
808.465	29410
808.607	29604
808.749	29722
808.891	29824
809.033	29920
809.174	29832
809.316	29764
809.458	29767
809.6	29657
809.741	29870
809.883	29923
810.025	30117
810.166	30087
810.308	30110
810.45	30091
810.591	29927
810.733	29950
810.875	29802
811.016	29638
811.158	29687
811.299	29851
811.441	30155
811.582	29969
811.724	29760
811.865	29600
812.007	29710
812.148	29878
812.29	29870
812.431	29935
812.573	30053
812.714	30190
812.855	30254
812.997	30399
813.138	30327
813.279	30437
813.421	30365
813.562	30186
813.703	30136
813.845	30053
813.986	29726
814.127	29547
814.268	29459
814.41	29459
814.551	29440
814.692	29486
814.833	29273
814.974	29353
815.115	29341
815.256	29261
815.397	29429
815.539	29254
815.68	29197
815.821	29155
815.962	29223
816.103	29258
816.244	28991
816.385	29025
816.526	28927
816.666	28809
816.807	28588
816.948	28592
817.089	28805
817.23	28744
817.371	28565
817.512	28577
817.653	28538
817.793	28603
817.934	28725
818.075	28729
818.216	28554
818.356	28531
818.497	28489
818.638	28341
818.778	28371
818.919	28424
819.06	28440
819.2	28607
819.341	28588
819.481	28607
819.622	28710
819.762	28866
819.903	28797
820.043	28736
820.184	28729
820.324	28596
820.465	28869
820.605	28710
820.746	28710
820.886	28618
821.026	28656
821.167	28561
821.307	28778
821.447	28459
821.588	28337
821.728	28344
821.868	28204
822.008	28013
822.149	28097
822.289	27998
822.429	27728
822.569	27713
822.709	27709
822.849	27496
822.99	27450
823.13	27386
823.27	27496
823.41	27329
823.55	27268
823.69	27389
823.83	27249
823.97	27230
824.11	27051
824.25	27062
824.389	27154
824.529	27135
824.669	27055
824.809	27199
824.949	27230
825.089	27306
825.228	27272
825.368	26872
825.508	26895
825.648	26963
825.787	26982
825.927	26940
826.067	26910
826.206	26910
826.346	27020
826.485	26944
826.625	26925
826.765	26929
826.904	26902
827.044	26758
827.183	26689
827.323	26549
827.462	26697
827.601	26545
827.741	26663
827.88	26716
828.02	26480
828.159	26670
828.298	26571
828.437	26735
828.577	26499
828.716	26731
828.855	26518
828.994	26237
829.134	26381
829.273	26419
829.412	26343
829.551	26172
829.69	26309
829.829	26240
829.968	26358
830.107	26328
830.246	26290
830.385	26084
830.524	26130
830.663	26176
830.802	25963
830.941	25814
831.08	25883
831.219	26024
831.357	25818
831.496	25963
831.635	25944
831.774	25780
831.913	25677
832.051	25723
832.19	25552
832.329	25575
832.467	25369
832.606	25628
832.744	25400
832.883	25419
833.022	25445
833.16	25567
833.299	25510
833.437	25476
833.576	25544
833.714	25449
833.852	25567
833.991	25476
834.129	25514
834.267	25586
834.406	25525
834.544	25464
834.682	25377
834.821	25479
834.959	25537
835.097	25483
835.235	25597
835.373	25381
835.511	25335
835.65	25270
835.788	25259
835.926	25228
836.064	25118
836.202	25065
836.34	25217
836.478	25240
836.615	25327
836.753	25240
836.891	25327
837.029	25438
837.167	25301
837.305	25114
837.443	25240
837.58	25129
837.718	25259
837.856	25103
837.993	25110
838.131	25137
838.269	24897
838.406	25004
838.544	24905
838.681	24692
838.819	24642
838.956	24582
839.094	24661
839.231	24509
839.369	24616
839.506	24932
839.643	24783
839.781	24566
839.918	24338
840.055	24631
840.193	24399
840.33	24563
840.467	24357
840.604	24445
840.742	24856
840.879	24304
841.016	24300
841.153	24300
841.29	24551
841.427	24403
841.564	24426
841.701	24422
841.838	24350
841.975	24308
842.112	24330
842.249	24258
842.385	24152
842.522	24323
842.659	24213
842.796	24117
842.933	24178
843.069	24049
843.206	24095
843.343	24148
843.479	24064
843.616	23965
843.752	23908
843.889	23885
844.025	23984
844.162	23699
844.298	23912
844.435	23836
844.571	23684
844.708	23741
844.844	23904
844.98	23870
845.117	24018
845.253	23703
845.389	23615
845.525	23813
845.661	23748
845.798	23520
845.934	23585
846.07	23547
846.206	23524
846.342	23623
846.478	23520
846.614	23356
846.75	23204
846.886	23204
847.022	23265
847.158	23299
847.294	23277
847.429	23296
847.565	23254
847.701	23478
847.837	22980
847.972	23052
848.108	22930
848.244	23212
848.379	22911
848.515	22831
848.65	22877
848.786	22801
848.921	22847
849.057	22984
849.192	22968
849.328	22847
849.463	22824
849.598	22733
849.734	22835
849.869	22557
850.004	22557
850.14	22577
850.275	22538
850.41	22451
850.545	22421
850.68	22527
850.815	22622
850.95	22481
851.085	22698
851.22	22565
851.355	22443
851.49	22649
851.625	22470
851.76	22485
851.895	22546
852.03	22538
852.165	22508
852.299	22489
852.434	22687
852.569	22561
852.703	22546
852.838	22580
852.973	22717
853.107	22713
853.242	22497
853.376	22299
853.511	22276
853.645	22276
853.78	22424
853.914	22344
854.048	22299
854.183	22394
854.317	22284
854.451	22550
854.585	22211
854.72	22265
854.854	22455
854.988	22242
855.122	22246
855.256	22059
855.39	22276
855.524	22295
855.658	22276
855.792	22261
855.926	22436
856.06	22333
856.194	22428
856.327	22223
856.461	22382
856.595	22246
856.729	22219
856.862	22436
856.996	22318
857.13	22329
857.263	22329
857.397	22455
857.53	22375
857.664	22325
857.797	22367
857.931	22356
858.064	22299
858.197	22497
858.331	22265
858.464	22173
858.597	22242
858.731	22200
858.864	22329
858.997	22185
859.13	22131
859.263	22287
859.396	22409
859.529	22322
859.662	22265
859.795	22272
859.928	22226
860.061	22402
860.194	22531
860.327	22360
860.46	22207
860.592	22485
860.725	22493
860.858	22493
860.99	22234
861.123	22162
861.256	22192
861.388	22215
861.521	22930
861.653	22204
861.786	21960
861.918	22166
862.05	22246
862.183	22234
862.315	22318
862.447	22348
862.58	22367
862.712	22036
862.844	21930
862.976	22207
863.108	22082
863.24	22470
863.372	21941
863.504	21991
863.636	22078
863.768	22044
863.9	21964
864.032	21850
864.164	21907
864.296	22124
864.428	22090
864.559	22044
864.691	22101
864.823	21998
864.954	21876
865.086	21930
865.217	21994
865.349	21823
865.48	21994
865.612	21903
865.743	21979
865.875	21899
866.006	21736
866.137	21865
866.269	21953
866.4	21895
866.531	21800
866.662	21698
866.793	21728
866.924	21854
867.055	21899
867.186	21755
867.317	21724
867.448	21633
867.579	21766
867.71	21675
867.841	21739
867.972	21762
868.103	21747
868.233	21903
868.364	21819
868.495	21865
868.625	22010
868.756	22185
868.886	21850
869.017	21907
869.147	22166
869.278	22150
869.408	22116
869.539	22067
869.669	22124
869.799	22097
869.929	22135
870.06	22124
870.19	22398
870.32	22352
870.45	22379
870.58	22398
870.71	22523
870.84	22687
870.97	22375
871.1	22375
871.23	22436
871.36	22668
871.489	22481
871.619	22622
871.749	22573
871.879	22637
872.008	22748
872.138	22516
872.267	22607
872.397	22561
872.526	22428
872.656	22478
872.785	22242
872.915	22622
873.044	22672
873.173	22611
873.303	22847
873.432	22653
873.561	22698
873.69	22660
873.819	22649
873.948	22588
874.077	22778
874.206	22607
874.335	22550
874.464	22656
874.593	22763
874.722	22839
874.851	22892
874.979	22927
875.108	22923
875.237	22850
875.365	22816
875.494	22816
875.623	22889
875.751	22767
875.88	22889
876.008	22995
876.136	23064
876.265	23235
876.393	23436
876.521	23356
876.65	23372
876.778	23189
876.906	23170
877.034	23200
877.162	23307
877.29	23288
877.418	23261
877.546	23273
877.674	23280
877.802	23246
877.93	23246
878.058	23083
878.185	23140
878.313	23136
878.441	23223
878.568	23098
878.696	23140
878.824	23250
878.951	23212
879.079	23452
879.206	23273
879.333	23421
879.461	23056
879.588	23269
879.715	23299
879.842	23444
879.97	23212
880.097	23098
880.224	22972
880.351	22949
880.478	22976
880.605	22919
880.732	22938
880.859	23254
880.986	23102
881.112	22991
881.239	22919
881.366	22698
881.493	22596
881.619	22557
881.746	22596
881.872	22569
881.999	22531
882.125	22485
882.252	22607
882.378	22687
882.505	22588
882.631	22440
882.757	22333
882.883	22405
883.01	22238
883.136	22291
883.262	22169
883.388	22200
883.514	22249
883.64	22249
883.766	22128
883.892	21998
884.018	22051
884.143	22242
884.269	22238
884.395	21968
884.52	21823
884.646	21953
884.772	21850
884.897	21880
885.023	21922
885.148	21972
885.274	21953
885.399	21956
885.524	21953
885.65	21907
885.775	21960
885.9	21838
886.025	21907
886.15	22048
886.275	21903
886.4	21793
886.525	21850
886.65	21892
886.775	21835
886.9	22017
887.025	22010
887.149	21876
887.274	21686
887.399	21679
887.523	21728
887.648	21572
887.773	21511
887.897	21823
888.021	21701
888.146	21530
888.27	21728
888.395	21679
888.519	21709
888.643	21682
888.767	21713
888.891	21443
889.015	21450
889.139	21523
889.263	21386
889.387	21553
889.511	21553
889.635	21488
889.759	21462
889.883	21473
890.006	21351
890.13	21454
890.254	21401
890.377	21241
890.501	21211
890.624	21157
890.748	21237
890.871	21051
890.995	20952
891.118	20906
891.241	21104
891.364	20994
891.488	21017
891.611	21112
891.734	21005
891.857	20982
891.98	20880
892.103	21089
892.226	20952
892.349	20887
892.471	20815
892.594	20876
892.717	20891
892.839	20823
892.962	20906
893.085	20811
893.207	20811
893.33	20686
893.452	20716
893.575	20952
893.697	20895
893.819	20952
893.941	21055
894.064	20967
894.186	20651
894.308	20815
894.43	20971
894.552	20891
894.674	20941
894.796	20800
894.918	20857
895.04	20842
895.161	20990
895.283	20914
895.405	20792
895.526	20826
895.648	20788
895.769	20933
895.891	20872
896.012	20975
896.134	20842
896.255	20853
896.376	20876
896.498	20960
896.619	20960
896.74	20944
896.861	20963
896.982	21077
897.103	21272
897.224	21222
897.345	21112
897.466	21005
897.587	21074
897.708	21146
897.828	21211
897.949	21017
898.07	20910
898.19	20971
898.311	21268
898.431	20975
898.552	21017
898.672	21085
898.792	21058
898.913	21043
899.033	20838
899.153	20800
899.273	20659
899.393	20792
899.513	20823
899.633	20640
899.753	20724
899.873	20739
899.993	20754
900.113	20636
900.232	20629
900.352	20674
900.472	20636
900.591	20511
900.711	20526
900.83	20385
900.95	20648
901.069	20625
901.189	20366
901.308	20248
901.427	20077
901.546	20180
901.665	19970
901.784	20115
901.904	19959
902.023	19928
902.141	19609
902.26	19689
902.379	19693
902.498	19651
902.617	19525
902.735	19597
902.854	19635
902.973	19441
903.091	19259
903.21	19198
903.328	19187
903.446	19145
903.565	19076
903.683	19015
903.801	18920
903.919	19023
904.038	18951
904.156	18894
904.274	18875
904.392	18848
904.51	18673
904.627	18916
904.745	18859
904.863	18852
904.981	18486
905.098	18376
905.216	18509
905.334	18475
905.451	18471
905.569	18517
905.686	18570
905.803	18445
905.921	18209
906.038	18289
906.155	18228
906.272	18053
906.389	18159
906.506	18003
906.623	17954
906.74	18026
906.857	17813
906.974	17828
907.091	18022
907.208	18095
907.324	17977
907.441	17908
907.557	17726
907.674	17771
907.79	17600
907.907	17585
908.023	17718
908.139	17566
908.256	17562
908.372	17505
908.488	17558
908.604	17417
908.72	17379
908.836	17425
908.952	17360
909.068	17376
909.184	17414
909.3	17425
909.415	17398
909.531	17372
909.647	17090
909.762	17140
909.878	17083
909.993	17067
910.108	17006
910.224	16972
910.339	16927
910.454	16915
910.57	16835
910.685	16786
910.8	17006
910.915	17041
911.03	16812
911.145	16660
911.259	16565
911.374	16538
911.489	16630
911.604	16512
911.718	16402
911.833	16421
911.947	16166
912.062	16196
912.176	16253
912.291	16428
912.405	16382
912.519	16554
912.633	16565
912.748	16306
912.862	16265
912.976	16135
913.09	15998
913.204	16162
913.318	16181
913.431	16284
913.545	16071
913.659	16204
913.772	16120
913.886	15854
914	16044
914.113	15953
914.226	15945
914.34	15964
914.453	15861
914.566	15869
914.68	15865
914.793	15747
914.906	15584
915.019	15526
915.132	15462
915.245	15515
915.358	15504
915.47	15500
915.583	15492
915.696	15496
915.809	15618
915.921	15709
916.034	15435
916.146	15473
916.259	15351
916.371	15591
916.483	15485
916.595	15374
916.708	15420
916.82	15313
916.932	15344
917.044	15412
917.156	15298
917.268	15161
917.38	15119
917.491	15123
917.603	15150
917.715	15348
917.826	15264
917.938	15009
918.049	15024
918.161	15154
918.272	15203
918.384	15237
918.495	14990
918.606	14906
918.717	14899
918.828	14838
918.939	14952
919.05	14792
919.161	14941
919.272	14769
919.383	14659
919.494	14883
919.604	15024
919.715	14910
919.826	14819
919.936	14834
920.047	14910
920.157	14788
920.267	14975
920.378	14883
920.488	14769
920.598	14937
920.708	15142
920.818	14868
920.928	14963
921.038	15127
921.148	14986
921.258	14705
921.368	14632
921.477	14511
921.587	14556
921.697	14419
921.806	14480
921.916	14408
922.025	14206
922.134	14111
922.244	14191
922.353	14214
922.462	14084
922.571	14031
922.68	13807
922.789	13849
922.898	13791
923.007	13700
923.116	13879
923.224	13814
923.333	13807
923.442	13712
923.55	13674
923.659	13590
923.767	13784
923.876	13594
923.984	13677
924.092	13495
924.201	13647
924.309	13582
924.417	13525
924.525	13407
924.633	13502
924.741	14294
924.849	13304
924.956	13430
925.064	13297
925.172	13183
925.279	13190
925.387	13278
925.494	13160
925.602	13415
925.709	13228
925.816	13129
925.924	13194
926.031	13251
926.138	13187
926.245	13194
926.352	13050
926.459	13152
926.566	13293
926.673	13133
926.779	12951
926.886	12897
926.993	12772
927.099	12749
927.206	12722
927.312	12665
927.419	12772
927.525	12711
927.631	12791
927.737	12627
927.843	12597
927.95	12494
928.056	12616
928.162	12559
928.267	12650
928.373	13247
928.479	12696
928.585	12422
928.69	12623
928.796	12601
928.901	12445
929.007	12216
929.112	12426
929.218	12391
929.323	12285
929.428	12285
929.533	12433
929.638	12277
929.743	12262
929.848	12235
929.953	12216
930.058	12091
930.163	12026
930.267	12072
930.372	12133
930.477	11942
930.581	12216
930.685	12045
930.79	11821
930.894	11832
930.998	11718
931.103	11935
931.207	11615
931.311	11543
931.415	11421
931.519	11193
931.623	11155
