Data from test_V78500241_2640.txt Node
Date: Fri Mar 25 16:00:05 CST 2022
User: usil
Spectrometer: V785-0024
Trigger mode: 0
Integration Time (sec): 4.000000E-1
Scans to average: 1
Nonlinearity correction enabled: false
Boxcar width: 0
Storing dark spectrum: false
XAxis mode: Wavelengths
Number of Pixels in Spectrum: 1024
>>>>>Begin Spectral Data<<<<<
801.071	28805
801.214	28812
801.356	28645
801.499	28455
801.641	28333
801.783	28344
801.926	28455
802.068	28352
802.211	28211
802.353	28234
802.496	28116
802.638	28029
802.78	28070
802.923	27960
803.065	27983
803.208	27968
803.35	28166
803.492	28196
803.635	28287
803.777	28181
803.919	28421
804.061	28603
804.204	28322
804.346	28295
804.488	28356
804.63	28272
804.773	28177
804.915	28356
805.057	28580
805.199	28318
805.341	28474
805.483	28417
805.626	28466
805.768	28462
805.91	28573
806.052	28554
806.194	28447
806.336	28592
806.478	28630
806.62	28546
806.762	28748
806.904	28812
807.046	29132
807.188	28980
807.33	28858
807.472	28930
807.614	28869
807.756	28942
807.898	28698
808.04	28626
808.182	28660
808.324	28805
808.465	28923
808.607	29090
808.749	29159
808.891	29223
809.033	29360
809.174	29303
809.316	29121
809.458	29136
809.6	29044
809.741	29349
809.883	29250
810.025	29391
810.166	29433
810.308	29410
810.45	29318
810.591	29364
810.733	29200
810.875	29022
811.016	29079
811.158	29041
811.299	29307
811.441	29277
811.582	29444
811.724	29060
811.865	29140
812.007	29098
812.148	29170
812.29	29280
812.431	29334
812.573	29558
812.714	29535
812.855	29600
812.997	29779
813.138	29897
813.279	29866
813.421	29824
813.562	29695
813.703	29528
813.845	29296
813.986	29075
814.127	29094
814.268	28930
814.41	28961
814.551	28831
814.692	29018
814.833	28721
814.974	28831
815.115	28908
815.256	28736
815.397	28675
815.539	28649
815.68	28596
815.821	28763
815.962	28653
816.103	28729
816.244	28634
816.385	28504
816.526	28546
816.666	28325
816.807	28059
816.948	28204
817.089	28238
817.23	28139
817.371	28287
817.512	28154
817.653	28215
817.793	28173
817.934	28185
818.075	28253
818.216	28196
818.356	28226
818.497	28097
818.638	28032
818.778	28010
818.919	27914
819.06	27903
819.2	28177
819.341	28234
819.481	28067
819.622	28284
819.762	28535
819.903	28440
820.043	28386
820.184	28360
820.324	28295
820.465	28310
820.605	28409
820.746	28204
820.886	28306
821.026	28230
821.167	28409
821.307	28238
821.447	28257
821.588	28128
821.728	28044
821.868	27781
822.008	27755
822.149	27690
822.289	27720
822.429	27439
822.569	27526
822.709	27378
822.849	27192
822.99	27268
823.13	27150
823.27	27252
823.41	27009
823.55	26956
823.69	26891
823.83	26990
823.97	26925
824.11	26804
824.25	26750
824.389	26899
824.529	26788
824.669	26819
824.809	26982
824.949	26883
825.089	26880
825.228	27100
825.368	26819
825.508	26579
825.648	26758
825.787	26811
825.927	26689
826.067	26777
826.206	26689
826.346	26655
826.485	26739
826.625	26815
826.765	26849
826.904	26712
827.044	26571
827.183	26503
827.323	26336
827.462	26457
827.601	26541
827.741	26377
827.88	26522
828.02	26446
828.159	26442
828.298	26385
828.437	26370
828.577	26427
828.716	26457
828.855	26343
828.994	26081
829.134	26073
829.273	26240
829.412	26016
829.551	26092
829.69	26084
829.829	26020
829.968	26084
830.107	26161
830.246	26084
830.385	26001
830.524	26012
830.663	25887
830.802	25883
830.941	25780
831.08	25803
831.219	25780
831.357	25814
831.496	25978
831.635	25639
831.774	25723
831.913	25586
832.051	25578
832.19	25445
832.329	25609
832.467	25354
832.606	25350
832.744	25438
832.883	25362
833.022	25198
833.16	25358
833.299	25529
833.437	25510
833.576	25487
833.714	25445
833.852	25426
833.991	25540
834.129	25468
834.267	25479
834.406	25540
834.544	25453
834.682	25468
834.821	25358
834.959	25727
835.097	25331
835.235	25438
835.373	25628
835.511	25499
835.65	25301
835.788	25266
835.926	25304
836.064	25110
836.202	25244
836.34	25388
836.478	25388
836.615	25209
836.753	25327
836.891	25400
837.029	25221
837.167	25175
837.305	25232
837.443	25213
837.58	25099
837.718	25175
837.856	25084
837.993	25004
838.131	25225
838.269	24939
838.406	24977
838.544	24935
838.681	24962
838.819	24646
838.956	24582
839.094	24639
839.231	24601
839.369	24875
839.506	24954
839.643	24719
839.781	24719
839.918	24475
840.055	24555
840.193	24494
840.33	24502
840.467	24486
840.604	24490
840.742	24654
840.879	24323
841.016	24350
841.153	24270
841.29	24528
841.427	24418
841.564	24574
841.701	24479
841.838	24437
841.975	24330
842.112	24403
842.249	24117
842.385	24224
842.522	24601
842.659	24327
842.796	24216
842.933	24334
843.069	24277
843.206	24296
843.343	24232
843.479	24159
843.616	24235
843.752	23965
843.889	23980
844.025	24095
844.162	24072
844.298	24091
844.435	24007
844.571	23920
844.708	24083
844.844	24270
844.98	24102
845.117	24034
845.253	23973
845.389	23824
845.525	23790
845.661	23870
845.798	23760
845.934	23737
846.07	23840
846.206	23802
846.342	23870
846.478	23851
846.614	23589
846.75	23436
846.886	23334
847.022	23562
847.158	23482
847.294	23334
847.429	23585
847.565	23543
847.701	23619
847.837	23174
847.972	23189
848.108	23212
848.244	23151
848.379	23102
848.515	23048
848.65	22934
848.786	22965
848.921	22999
849.057	23140
849.192	23025
849.328	23037
849.463	23197
849.598	23037
849.734	23048
849.869	22995
850.004	22862
850.14	22828
850.275	22980
850.41	22752
850.545	22820
850.68	22809
850.815	22843
850.95	22805
851.085	23037
851.22	22862
851.355	22942
851.49	22843
851.625	22831
851.76	22816
851.895	22710
852.03	22771
852.165	22839
852.299	22908
852.434	22934
852.569	22786
852.703	22729
852.838	22839
852.973	22942
853.107	22949
853.242	22820
853.376	22535
853.511	22531
853.645	22702
853.78	22782
853.914	22687
854.048	22656
854.183	22710
854.317	22831
854.451	22877
854.585	22584
854.72	22687
854.854	22744
854.988	22691
855.122	22641
855.256	22557
855.39	22691
855.524	22812
855.658	22599
855.792	22660
855.926	22584
856.06	22630
856.194	22698
856.327	22713
856.461	22641
856.595	22679
856.729	22557
856.862	22793
856.996	22656
857.13	22710
857.263	22755
857.397	22694
857.53	22694
857.664	22786
857.797	22774
857.931	22790
858.064	22717
858.197	22767
858.331	22649
858.464	22641
858.597	22561
858.731	22497
858.864	22641
858.997	22675
859.13	22622
859.263	22755
859.396	22748
859.529	22664
859.662	22599
859.795	22634
859.928	22736
860.061	22816
860.194	22778
860.327	22713
860.46	22717
860.592	22831
860.725	22877
860.858	22740
860.99	22812
861.123	22649
861.256	22554
861.388	22683
861.521	23414
861.653	22516
861.786	22451
861.918	22443
862.05	22523
862.183	22481
862.315	22710
862.447	22672
862.58	22637
862.712	22451
862.844	22424
862.976	22489
863.108	22417
863.24	22694
863.372	22306
863.504	22249
863.636	22333
863.768	22367
863.9	22284
864.032	22276
864.164	22497
864.296	22451
864.428	22516
864.559	22493
864.691	22493
864.823	22379
864.954	22249
865.086	22287
865.217	22276
865.349	22215
865.48	22211
865.612	22318
865.743	22382
865.875	22314
866.006	22181
866.137	22226
866.269	22128
866.4	22329
866.531	22116
866.662	22097
866.793	22223
866.924	22238
867.055	22055
867.186	22253
867.317	22173
867.448	22143
867.579	22059
867.71	22150
867.841	22166
867.972	22158
868.103	22040
868.233	22185
868.364	22265
868.495	22207
868.625	22447
868.756	22481
868.886	22207
869.017	22474
869.147	22409
869.278	22538
869.408	22497
869.539	22394
869.669	22516
869.799	22360
869.929	22500
870.06	22462
870.19	22729
870.32	22725
870.45	22752
870.58	22953
870.71	22934
870.84	22957
870.97	22691
871.1	22820
871.23	22980
871.36	23056
871.489	22763
871.619	22923
871.749	22938
871.879	23189
872.008	23220
872.138	23048
872.267	23094
872.397	22946
872.526	22866
872.656	22839
872.785	22873
872.915	22980
873.044	23056
873.173	23010
873.303	23033
873.432	23124
873.561	23102
873.69	23044
873.819	23037
873.948	23117
874.077	23098
874.206	23022
874.335	22968
874.464	23121
874.593	23307
874.722	23113
874.851	23398
874.979	23197
875.108	23189
875.237	23273
875.365	23174
875.494	23197
875.623	23265
875.751	23193
875.88	23242
876.008	23364
876.136	23490
876.265	23642
876.393	23699
876.521	23756
876.65	23699
876.778	23687
876.906	23558
877.034	23661
877.162	23562
877.29	23486
877.418	23619
877.546	23604
877.674	23627
877.802	23535
877.93	23554
878.058	23554
878.185	23535
878.313	23657
878.441	23524
878.568	23524
878.696	23482
878.824	23634
878.951	23661
879.079	23722
879.206	23805
879.333	23680
879.461	23524
879.588	23699
879.715	23695
879.842	23813
879.97	23516
880.097	23425
880.224	23440
880.351	23402
880.478	23387
880.605	23360
880.732	23356
880.859	23535
880.986	23391
881.112	23440
881.239	23341
881.366	23220
881.493	22995
881.619	22889
881.746	23022
881.872	22919
881.999	22923
882.125	22927
882.252	22949
882.378	22911
882.505	22987
882.631	22869
882.757	22767
882.883	22649
883.01	22660
883.136	22611
883.262	22630
883.388	22523
883.514	22580
883.64	22698
883.766	22519
883.892	22360
884.018	22470
884.143	22577
884.269	22542
884.395	22310
884.52	22310
884.646	22291
884.772	22131
884.897	22188
885.023	22181
885.148	22455
885.274	22325
885.399	22337
885.524	22291
885.65	22295
885.775	22253
885.9	22196
886.025	22398
886.15	22306
886.275	22253
886.4	22105
886.525	22177
886.65	22200
886.775	22154
886.9	22352
887.025	22360
887.149	22257
887.274	21991
887.399	22006
887.523	21968
887.648	21934
887.773	21823
887.897	22036
888.021	22116
888.146	21975
888.27	22147
888.395	22150
888.519	22051
888.643	21953
888.767	22006
888.891	21808
889.015	21827
889.139	21922
889.263	21663
889.387	21888
889.511	21994
889.635	21945
889.759	21880
889.883	21759
890.006	21785
890.13	21876
890.254	21663
890.377	21717
890.501	21530
890.624	21473
890.748	21530
890.871	21515
890.995	21420
891.118	21310
891.241	21374
891.364	21260
891.488	21382
891.611	21325
891.734	21355
891.857	21389
891.98	21329
892.103	21408
892.226	21367
892.349	21405
892.471	21089
892.594	21329
892.717	21424
892.839	21161
892.962	21207
893.085	21310
893.207	21192
893.33	21176
893.452	21043
893.575	21294
893.697	21203
893.819	21370
893.941	21496
894.064	21317
894.186	21211
894.308	21100
894.43	21218
894.552	21393
894.674	21279
894.796	21150
894.918	21207
895.04	21077
895.161	21340
895.283	21218
895.405	21214
895.526	21268
895.648	21291
895.769	21195
895.891	21272
896.012	21405
896.134	21146
896.255	21306
896.376	21241
896.498	21192
896.619	21279
896.74	21199
896.861	21275
896.982	21485
897.103	21701
897.224	21393
897.345	21321
897.466	21405
897.587	21355
897.708	21492
897.828	21447
897.949	21393
898.07	21195
898.19	21313
898.311	21545
898.431	21313
898.552	21363
898.672	21401
898.792	21393
898.913	21462
899.033	21302
899.153	21230
899.273	21116
899.393	21077
899.513	21298
899.633	21047
899.753	21138
899.873	21100
899.993	21108
900.113	21005
900.232	20971
900.352	20986
900.472	20899
900.591	20861
900.711	20902
900.83	20975
900.95	20998
901.069	20998
901.189	20655
901.308	20526
901.427	20560
901.546	20450
901.665	20457
901.784	20385
901.904	20324
902.023	20187
902.141	19955
902.26	20103
902.379	20081
902.498	20016
902.617	19902
902.735	20024
902.854	19849
902.973	19928
903.091	19620
903.21	19590
903.328	19594
903.446	19453
903.565	19491
903.683	19396
903.801	19320
903.919	19373
904.038	19308
904.156	19194
904.274	19274
904.392	19217
904.51	19107
904.627	19194
904.745	19270
904.863	19145
904.981	18985
905.098	18829
905.216	18730
905.334	18875
905.451	18966
905.569	18806
905.686	18905
905.803	18863
905.921	18593
906.038	18677
906.155	18650
906.272	18551
906.389	18601
906.506	18464
906.623	18350
906.74	18319
906.857	18190
906.974	18361
907.091	18422
907.208	18342
907.324	18376
907.441	18311
907.557	18171
907.674	18041
907.79	17992
907.907	18030
908.023	18026
908.139	18026
908.256	17996
908.372	17999
908.488	17973
908.604	17874
908.72	17741
908.836	17722
908.952	17741
909.068	17790
909.184	17859
909.3	17733
909.415	17737
909.531	17779
909.647	17615
909.762	17376
909.878	17585
909.993	17398
910.108	17459
910.224	17383
910.339	17455
910.454	17398
910.57	17239
910.685	17200
910.8	17452
910.915	17395
911.03	17277
911.145	17094
911.259	17071
911.374	17155
911.489	16965
911.604	16885
911.718	16790
911.833	16976
911.947	16691
912.062	16660
912.176	16759
912.291	16862
912.405	16869
912.519	16873
912.633	16915
912.748	16866
912.862	16793
912.976	16573
913.09	16569
913.204	16649
913.318	16626
913.431	16679
913.545	16717
913.659	16641
913.772	16508
913.886	16500
914	16375
914.113	16447
914.226	16504
914.34	16405
914.453	16280
914.566	16356
914.68	16310
914.793	16185
914.906	16063
915.019	15903
915.132	15903
915.245	15968
915.358	16025
915.47	16036
915.583	15930
915.696	16055
915.809	16078
915.921	16013
916.034	15766
916.146	15717
916.259	15846
916.371	15949
916.483	15915
916.595	15838
916.708	15698
916.82	15823
916.932	15785
917.044	15724
917.156	15698
917.268	15515
917.38	15610
917.491	15572
917.603	15656
917.715	15656
917.826	15709
917.938	15606
918.049	15405
918.161	15450
918.272	15739
918.384	15652
918.495	15447
918.606	15416
918.717	15226
918.828	15450
918.939	15351
919.05	15382
919.161	15256
919.272	15108
919.383	15150
919.494	15310
919.604	15545
919.715	15275
919.826	15207
919.936	15245
920.047	15344
920.157	15279
920.267	15515
920.378	15252
920.488	15237
920.598	15458
920.708	15504
920.818	15401
920.928	15332
921.038	15549
921.148	15431
921.258	15275
921.368	15138
921.477	15028
921.587	14979
921.697	14781
921.806	15009
921.916	14868
922.025	14636
922.134	14583
922.244	14602
922.353	14724
922.462	14503
922.571	14415
922.68	14336
922.789	14309
922.898	14393
923.007	14309
923.116	14301
923.224	14324
923.333	14153
923.442	14100
923.55	14024
923.659	14077
923.767	14195
923.876	14077
923.984	14145
924.092	13993
924.201	13997
924.309	13982
924.417	13932
924.525	13944
924.633	13940
924.741	14868
924.849	13765
924.956	13936
925.064	13776
925.172	13559
925.279	13655
925.387	13670
925.494	13708
925.602	13803
925.709	13727
925.816	13552
925.924	13670
926.031	13643
926.138	13472
926.245	13586
926.352	13441
926.459	13582
926.566	13639
926.673	13525
926.779	13358
926.886	13407
926.993	13251
927.099	13236
927.206	13190
927.312	13095
927.419	13217
927.525	13160
927.631	13110
927.737	13107
927.843	12932
927.95	12859
928.056	13012
928.162	12993
928.267	13004
928.373	13605
928.479	12970
928.585	12916
928.69	12962
928.796	12966
928.901	12825
929.007	12753
929.112	12928
929.218	12791
929.323	12677
929.428	12688
929.533	12829
929.638	12559
929.743	12627
929.848	12646
929.953	12616
930.058	12506
930.163	12395
930.267	12399
930.372	12399
930.477	12296
930.581	12608
930.685	12315
930.79	12273
930.894	12289
930.998	12228
931.103	12357
931.207	12022
931.311	11912
931.415	11851
931.519	11703
931.623	11554
