Data from test_V78500241_1094.txt Node
Date: Fri Mar 25 15:49:22 CST 2022
User: usil
Spectrometer: V785-0024
Trigger mode: 0
Integration Time (sec): 4.000000E-1
Scans to average: 1
Nonlinearity correction enabled: false
Boxcar width: 0
Storing dark spectrum: false
XAxis mode: Wavelengths
Number of Pixels in Spectrum: 1024
>>>>>Begin Spectral Data<<<<<
801.071	28367
801.214	28443
801.356	28154
801.499	28116
801.641	27972
801.783	28013
801.926	28093
802.068	27975
802.211	27751
802.353	27774
802.496	27827
802.638	27633
802.78	27587
802.923	27583
803.065	27481
803.208	27667
803.35	27682
803.492	27838
803.635	27842
803.777	27595
803.919	27960
804.061	28196
804.204	27861
804.346	27854
804.488	27960
804.63	27857
804.773	27785
804.915	27880
805.057	28029
805.199	27873
805.341	28010
805.483	28025
805.626	28074
805.768	27994
805.91	28093
806.052	28059
806.194	27937
806.336	28375
806.478	28101
806.62	28040
806.762	28200
806.904	28284
807.046	28466
807.188	28531
807.33	28542
807.472	28557
807.614	28310
807.756	28478
807.898	28363
808.04	28504
808.182	28405
808.324	28382
808.465	28432
808.607	28470
808.749	28778
808.891	28843
809.033	28953
809.174	28812
809.316	28672
809.458	28622
809.6	28763
809.741	28748
809.883	28934
810.025	29014
810.166	29033
810.308	29079
810.45	28965
810.591	28923
810.733	28698
810.875	28736
811.016	28561
811.158	28523
811.299	28835
811.441	28847
811.582	28888
811.724	28911
811.865	28607
812.007	28630
812.148	28725
812.29	28771
812.431	28942
812.573	29064
812.714	29166
812.855	29197
812.997	29379
813.138	29756
813.279	29406
813.421	29185
813.562	29166
813.703	29086
813.845	28850
813.986	28786
814.127	28630
814.268	28504
814.41	28440
814.551	28516
814.692	28500
814.833	28409
814.974	28497
815.115	28527
815.256	28249
815.397	28436
815.539	28291
815.68	28215
815.821	28147
815.962	28299
816.103	28253
816.244	28219
816.385	28021
816.526	27888
816.666	27964
816.807	27705
816.948	27884
817.089	27876
817.23	27785
817.371	27816
817.512	27823
817.653	27717
817.793	27660
817.934	27720
818.075	27888
818.216	27759
818.356	27797
818.497	27633
818.638	27545
818.778	27530
818.919	27614
819.06	27557
819.2	27667
819.341	27759
819.481	27835
819.622	27911
819.762	28128
819.903	27869
820.043	28025
820.184	28010
820.324	27854
820.465	27888
820.605	27884
820.746	27823
820.886	27873
821.026	27770
821.167	27876
821.307	28002
821.447	27739
821.588	27606
821.728	27564
821.868	27443
822.008	27351
822.149	27302
822.289	27233
822.429	27024
822.569	27001
822.709	26842
822.849	26842
822.99	26792
823.13	26689
823.27	26716
823.41	26613
823.55	26590
823.69	26564
823.83	26625
823.97	26659
824.11	26374
824.25	26370
824.389	26446
824.529	26492
824.669	26476
824.809	26537
824.949	26632
825.089	26514
825.228	26404
825.368	26362
825.508	26317
825.648	26305
825.787	26301
825.927	26423
826.067	26328
826.206	26271
826.346	26400
826.485	26453
826.625	26062
826.765	26385
826.904	26355
827.044	26119
827.183	26058
827.323	26081
827.462	26119
827.601	25940
827.741	26115
827.88	26088
828.02	25902
828.159	26103
828.298	26073
828.437	26043
828.577	26043
828.716	26020
828.855	26012
828.994	25651
829.134	25700
829.273	25742
829.412	25628
829.551	25689
829.69	25753
829.829	25753
829.968	25818
830.107	25864
830.246	25750
830.385	25620
830.524	25674
830.663	25571
830.802	25457
830.941	25316
831.08	25331
831.219	25377
831.357	25415
831.496	25563
831.635	25403
831.774	25228
831.913	25137
832.051	25110
832.19	25084
832.329	25228
832.467	24951
832.606	24905
832.744	25000
832.883	25046
833.022	24886
833.16	24981
833.299	24958
833.437	25065
833.576	25091
833.714	25072
833.852	25141
833.991	25160
834.129	25053
834.267	25168
834.406	25008
834.544	24985
834.682	24970
834.821	25012
834.959	25251
835.097	24924
835.235	25042
835.373	24958
835.511	25031
835.65	24810
835.788	24939
835.926	24760
836.064	24639
836.202	24825
836.34	24871
836.478	24905
836.615	24970
836.753	24829
836.891	24878
837.029	24738
837.167	24852
837.305	24681
837.443	24848
837.58	24757
837.718	24837
837.856	24661
837.993	24631
838.131	24582
838.269	24574
838.406	24722
838.544	24525
838.681	24327
838.819	24334
838.956	24213
839.094	24098
839.231	24266
839.369	24502
839.506	24418
839.643	24429
839.781	24239
839.918	24121
840.055	24209
840.193	24106
840.33	24091
840.467	24060
840.604	24174
840.742	24429
840.879	24095
841.016	24091
841.153	23950
841.29	24285
841.427	24087
841.564	24148
841.701	24091
841.838	23996
841.975	23969
842.112	23908
842.249	23901
842.385	23805
842.522	24133
842.659	23855
842.796	23935
842.933	23961
843.069	23756
843.206	23756
843.343	23954
843.479	23882
843.616	23745
843.752	23623
843.889	23684
844.025	23726
844.162	23566
844.298	23722
844.435	23585
844.571	23520
844.708	23668
844.844	23878
844.98	23684
845.117	23649
845.253	23573
845.389	23497
845.525	23512
845.661	23360
845.798	23292
845.934	23433
846.07	23341
846.206	23402
846.342	23535
846.478	23318
846.614	23128
846.75	22980
846.886	23048
847.022	23155
847.158	23075
847.294	23109
847.429	23044
847.565	23098
847.701	23436
847.837	22752
847.972	22828
848.108	22965
848.244	22828
848.379	22755
848.515	22683
848.65	22672
848.786	22622
848.921	22694
849.057	22816
849.192	22679
849.328	22713
849.463	22694
849.598	22683
849.734	22607
849.869	22538
850.004	22455
850.14	22367
850.275	22337
850.41	22447
850.545	22268
850.68	22379
850.815	22375
850.95	22421
851.085	22660
851.22	22497
851.355	22489
851.49	22382
851.625	22341
851.76	22348
851.895	22348
852.03	22234
852.165	22382
852.299	22443
852.434	22424
852.569	22417
852.703	22432
852.838	22474
852.973	22538
853.107	22386
853.242	22379
853.376	22325
853.511	22128
853.645	22223
853.78	22413
853.914	22287
854.048	22158
854.183	22344
854.317	22185
854.451	22318
854.585	22147
854.72	22284
854.854	22246
854.988	22185
855.122	22242
855.256	22036
855.39	22272
855.524	22276
855.658	22204
855.792	22352
855.926	22249
856.06	22276
856.194	22306
856.327	22310
856.461	22147
856.595	22196
856.729	22162
856.862	22386
856.996	22272
857.13	22234
857.263	22440
857.397	22257
857.53	22181
857.664	22272
857.797	22295
857.931	22341
858.064	22242
858.197	22322
858.331	22303
858.464	22284
858.597	22150
858.731	22234
858.864	22185
858.997	22116
859.13	22242
859.263	22181
859.396	22390
859.529	22272
859.662	22280
859.795	22200
859.928	22287
860.061	22405
860.194	22500
860.327	22249
860.46	22253
860.592	22318
860.725	22485
860.858	22367
860.99	22265
861.123	22223
861.256	22158
861.388	22169
861.521	22915
861.653	22051
861.786	21945
861.918	22067
862.05	22051
862.183	22169
862.315	22162
862.447	22200
862.58	22116
862.712	21869
862.844	21846
862.976	22013
863.108	21983
863.24	22379
863.372	21884
863.504	21873
863.636	21911
863.768	21907
863.9	21869
864.032	21949
864.164	21903
864.296	21899
864.428	22109
864.559	21911
864.691	21964
864.823	21876
864.954	21835
865.086	21869
865.217	21960
865.349	21778
865.48	21880
865.612	21835
865.743	21983
865.875	21724
866.006	21808
866.137	21770
866.269	21819
866.4	21838
866.531	21838
866.662	21743
866.793	21838
866.924	21732
867.055	21869
867.186	21804
867.317	21713
867.448	21736
867.579	21732
867.71	21694
867.841	21701
867.972	21751
868.103	21717
868.233	21865
868.364	21797
868.495	21747
868.625	21991
868.756	22021
868.886	22002
869.017	21941
869.147	22010
869.278	22131
869.408	21934
869.539	21895
869.669	21926
869.799	21956
869.929	22093
870.06	22017
870.19	22276
870.32	22314
870.45	22329
870.58	22402
870.71	22485
870.84	22413
870.97	22447
871.1	22360
871.23	22451
871.36	22546
871.489	22569
871.619	22550
871.749	22626
871.879	22569
872.008	22675
872.138	22554
872.267	22561
872.397	22512
872.526	22371
872.656	22390
872.785	22443
872.915	22675
873.044	22618
873.173	22664
873.303	22584
873.432	22607
873.561	22618
873.69	22752
873.819	22630
873.948	22672
874.077	22535
874.206	22561
874.335	22656
874.464	22843
874.593	22854
874.722	22706
874.851	22858
874.979	22812
875.108	22812
875.237	22706
875.365	22653
875.494	22790
875.623	22908
875.751	22771
875.88	22869
876.008	22873
876.136	22980
876.265	23197
876.393	23307
876.521	23235
876.65	23318
876.778	23181
876.906	23079
877.034	23121
877.162	23265
877.29	23022
877.418	23174
877.546	23174
877.674	23079
877.802	23064
877.93	23098
878.058	23223
878.185	23060
878.313	23113
878.441	23220
878.568	22991
878.696	23022
878.824	23159
878.951	23151
879.079	23372
879.206	23425
879.333	23216
879.461	23113
879.588	23235
879.715	23326
879.842	23372
879.97	23216
880.097	22889
880.224	22949
880.351	22908
880.478	22911
880.605	22965
880.732	22961
880.859	23166
880.986	22953
881.112	22915
881.239	22869
881.366	22672
881.493	22516
881.619	22664
881.746	22519
881.872	22561
881.999	22512
882.125	22440
882.252	22569
882.378	22531
882.505	22599
882.631	22337
882.757	22238
882.883	22329
883.01	22242
883.136	22246
883.262	22116
883.388	22006
883.514	22352
883.64	22192
883.766	22036
883.892	21915
884.018	21994
884.143	22139
884.269	22093
884.395	21945
884.52	21751
884.646	21838
884.772	21819
884.897	21736
885.023	21819
885.148	21968
885.274	22055
885.399	21918
885.524	21861
885.65	21915
885.775	21911
885.9	21770
886.025	21892
886.15	21972
886.275	21694
886.4	21835
886.525	21736
886.65	21709
886.775	21686
886.9	21876
887.025	22063
887.149	21724
887.274	21705
887.399	21633
887.523	21637
887.648	21469
887.773	21515
887.897	21675
888.021	21694
888.146	21534
888.27	21622
888.395	21614
888.519	21637
888.643	21587
888.767	21660
888.891	21504
889.015	21405
889.139	21553
889.263	21408
889.387	21507
889.511	21507
889.635	21515
889.759	21310
889.883	21340
890.006	21317
890.13	21485
890.254	21218
890.377	21359
890.501	21169
890.624	21165
890.748	21161
890.871	20971
890.995	20880
891.118	20979
891.241	20929
891.364	21047
891.488	21039
891.611	21024
891.734	20990
891.857	21055
891.98	20887
892.103	20876
892.226	20929
892.349	20933
892.471	20754
892.594	20857
892.717	20921
892.839	20781
892.962	20842
893.085	21036
893.207	20872
893.33	20788
893.452	20697
893.575	20883
893.697	20819
893.819	20937
893.941	21116
894.064	20975
894.186	20941
894.308	20689
894.43	20876
894.552	20941
894.674	20979
894.796	20659
894.918	20804
895.04	20701
895.161	20838
895.283	20887
895.405	20842
895.526	20876
895.648	20807
895.769	20792
895.891	20807
896.012	20804
896.134	20880
896.255	20765
896.376	20773
896.498	20834
896.619	20906
896.74	20918
896.861	20815
896.982	21127
897.103	21325
897.224	21062
897.345	21135
897.466	20975
897.587	21043
897.708	21112
897.828	21093
897.949	21017
898.07	20785
898.19	21047
898.311	20986
898.431	20960
898.552	21081
898.672	21131
898.792	21119
898.913	21009
899.033	20864
899.153	20823
899.273	20648
899.393	20705
899.513	20864
899.633	20727
899.753	20777
899.873	20743
899.993	20678
900.113	20503
900.232	20632
900.352	20663
900.472	20617
900.591	20568
900.711	20537
900.83	20560
900.95	20670
901.069	20682
901.189	20469
901.308	20256
901.427	20199
901.546	20153
901.665	20115
901.784	20161
901.904	19913
902.023	19875
902.141	19651
902.26	19590
902.379	19723
902.498	19616
902.617	19525
902.735	19746
902.854	19624
902.973	19460
903.091	19282
903.21	19316
903.328	19263
903.446	19206
903.565	19179
903.683	19042
903.801	18951
903.919	19042
904.038	18882
904.156	18833
904.274	18863
904.392	18821
904.51	18852
904.627	18810
904.745	18840
904.863	18814
904.981	18608
905.098	18578
905.216	18471
905.334	18669
905.451	18452
905.569	18475
905.686	18532
905.803	18589
905.921	18121
906.038	18448
906.155	18426
906.272	18174
906.389	18209
906.506	18041
906.623	17954
906.74	17863
906.857	17996
906.974	17950
907.091	18076
907.208	18186
907.324	18034
907.441	17874
907.557	17653
907.674	17756
907.79	17714
907.907	17771
908.023	17714
908.139	17668
908.256	17695
908.372	17630
908.488	17608
908.604	17558
908.72	17398
908.836	17444
908.952	17376
909.068	17455
909.184	17604
909.3	17436
909.415	17490
909.531	17414
909.647	17231
909.762	17200
909.878	17178
909.993	17071
910.108	17090
910.224	17121
910.339	17083
910.454	16980
910.57	16984
910.685	16774
910.8	17064
910.915	17037
911.03	16831
911.145	16767
911.259	16698
911.374	16706
911.489	16634
911.604	16523
911.718	16402
911.833	16508
911.947	16485
912.062	16440
912.176	16459
912.291	16527
912.405	16512
912.519	16622
912.633	16691
912.748	16462
912.862	16424
912.976	16268
913.09	16173
913.204	16337
913.318	16207
913.431	16405
913.545	16398
913.659	16413
913.772	16188
913.886	16120
914	16074
914.113	16181
914.226	16234
914.34	16173
914.453	15876
914.566	16120
914.68	15907
914.793	15888
914.906	15736
915.019	15732
915.132	15614
915.245	15682
915.358	15739
915.47	15698
915.583	15743
915.696	15599
915.809	15781
915.921	15861
916.034	15606
916.146	15526
916.259	15511
916.371	15587
916.483	15625
916.595	15420
916.708	15447
916.82	15469
916.932	15450
917.044	15439
917.156	15408
917.268	15313
917.38	15207
917.491	15279
917.603	15355
917.715	15397
917.826	15458
917.938	15176
918.049	15184
918.161	15252
918.272	15420
918.384	15302
918.495	15332
918.606	15089
918.717	14971
918.828	15112
918.939	15013
919.05	15081
919.161	14967
919.272	14826
919.383	14895
919.494	15039
919.604	15169
919.715	15020
919.826	14971
919.936	14990
920.047	15058
920.157	15017
920.267	15241
920.378	14998
920.488	15077
920.598	15089
920.708	15283
920.818	15047
920.928	15112
921.038	15233
921.148	15157
921.258	14986
921.368	14796
921.477	14773
921.587	14682
921.697	14617
921.806	14754
921.916	14613
922.025	14450
922.134	14454
922.244	14278
922.353	14412
922.462	14138
922.571	14138
922.68	14096
922.789	13963
922.898	14005
923.007	13955
923.116	14027
923.224	13982
923.333	13917
923.442	13890
923.55	13814
923.659	13841
923.767	13967
923.876	13708
923.984	13811
924.092	13765
924.201	13803
924.309	13693
924.417	13727
924.525	13605
924.633	13624
924.741	14495
924.849	13438
924.956	13552
925.064	13438
925.172	13362
925.279	13396
925.387	13339
925.494	13419
925.602	13548
925.709	13514
925.816	13312
925.924	13369
926.031	13407
926.138	13331
926.245	13266
926.352	13240
926.459	13392
926.566	13365
926.673	13251
926.779	13206
926.886	13156
926.993	12977
927.099	12882
927.206	12795
927.312	12897
927.419	13019
927.525	12897
927.631	13004
927.737	12920
927.843	12806
927.95	12646
928.056	12722
928.162	12760
928.267	12745
928.373	13377
928.479	12802
928.585	12574
928.69	12650
928.796	12738
928.901	12631
929.007	12467
929.112	12700
929.218	12601
929.323	12536
929.428	12483
929.533	12578
929.638	12467
929.743	12414
929.848	12429
929.953	12437
930.058	12327
930.163	12148
930.267	12213
930.372	12330
930.477	12117
930.581	12483
930.685	12178
930.79	11996
930.894	12125
930.998	11927
931.103	12102
931.207	11832
931.311	11657
931.415	11642
931.519	11463
931.623	11376
