Data from test_V78500241_3077.txt Node
Date: Fri Mar 25 16:03:06 CST 2022
User: usil
Spectrometer: V785-0024
Trigger mode: 0
Integration Time (sec): 4.000000E-1
Scans to average: 1
Nonlinearity correction enabled: false
Boxcar width: 0
Storing dark spectrum: false
XAxis mode: Wavelengths
Number of Pixels in Spectrum: 1024
>>>>>Begin Spectral Data<<<<<
801.071	28740
801.214	28702
801.356	28580
801.499	28337
801.641	28413
801.783	28265
801.926	28257
802.068	28238
802.211	28169
802.353	28242
802.496	28055
802.638	27945
802.78	27895
802.923	28036
803.065	27918
803.208	28063
803.35	28074
803.492	28185
803.635	28070
803.777	28238
803.919	28234
804.061	28554
804.204	28219
804.346	28086
804.488	28265
804.63	28337
804.773	28109
804.915	28367
805.057	28401
805.199	28371
805.341	28379
805.483	28466
805.626	28531
805.768	28447
805.91	28424
806.052	28546
806.194	28375
806.336	28546
806.478	28470
806.62	28367
806.762	28493
806.904	28759
807.046	28980
807.188	28835
807.33	28930
807.472	28957
807.614	28790
807.756	28866
807.898	28828
808.04	28790
808.182	28733
808.324	28736
808.465	28812
808.607	28767
808.749	29124
808.891	29223
809.033	29174
809.174	29231
809.316	29083
809.458	29181
809.6	29083
809.741	29223
809.883	29254
810.025	29391
810.166	29360
810.308	29577
810.45	29512
810.591	29372
810.733	29231
810.875	29105
811.016	28995
811.158	29048
811.299	29204
811.441	29417
811.582	29193
811.724	29159
811.865	29109
812.007	29155
812.148	29197
812.29	29151
812.431	29170
812.573	29387
812.714	29558
812.855	29619
812.997	29714
813.138	29931
813.279	29680
813.421	29741
813.562	29596
813.703	29478
813.845	29299
813.986	29060
814.127	29006
814.268	28869
814.41	28930
814.551	28869
814.692	28961
814.833	28847
814.974	28923
815.115	28839
815.256	28668
815.397	28744
815.539	28664
815.68	28675
815.821	28763
815.962	28531
816.103	28702
816.244	28504
816.385	28478
816.526	28489
816.666	28287
816.807	28188
816.948	28253
817.089	28207
817.23	28280
817.371	28173
817.512	28204
817.653	28211
817.793	28101
817.934	28169
818.075	28032
818.216	28051
818.356	27972
818.497	28112
818.638	27808
818.778	27850
818.919	27895
819.06	27903
819.2	27941
819.341	28044
819.481	28097
819.622	28310
819.762	28588
819.903	28394
820.043	28394
820.184	28139
820.324	28276
820.465	28249
820.605	28223
820.746	28287
820.886	28215
821.026	28314
821.167	28314
821.307	28215
821.447	28207
821.588	28063
821.728	27934
821.868	27770
822.008	27682
822.149	27603
822.289	27755
822.429	27329
822.569	27317
822.709	27214
822.849	27184
822.99	27123
823.13	27150
823.27	27028
823.41	27009
823.55	26921
823.69	27112
823.83	26906
823.97	27020
824.11	26587
824.25	26842
824.389	26804
824.529	26895
824.669	26796
824.809	26933
824.949	26960
825.089	26918
825.228	26842
825.368	26545
825.508	26712
825.648	26777
825.787	26777
825.927	26804
826.067	26606
826.206	26792
826.346	26781
826.485	26826
826.625	26708
826.765	26773
826.904	26750
827.044	26343
827.183	26503
827.323	26488
827.462	26564
827.601	26511
827.741	26362
827.88	26522
828.02	26191
828.159	26351
828.298	26469
828.437	26507
828.577	26434
828.716	26446
828.855	26263
828.994	26107
829.134	26126
829.273	26130
829.412	26088
829.551	26073
829.69	26050
829.829	26130
829.968	26149
830.107	26142
830.246	26119
830.385	25947
830.524	25936
830.663	26012
830.802	25883
830.941	25731
831.08	25639
831.219	25761
831.357	25704
831.496	25849
831.635	25864
831.774	25616
831.913	25510
832.051	25464
832.19	25499
832.329	25403
832.467	25331
832.606	25343
832.744	25266
832.883	25362
833.022	25335
833.16	25377
833.299	25540
833.437	25434
833.576	25411
833.714	25411
833.852	25487
833.991	25441
834.129	25457
834.267	25400
834.406	25422
834.544	25460
834.682	25468
834.821	25487
834.959	25563
835.097	25449
835.235	25510
835.373	25403
835.511	25308
835.65	25362
835.788	25369
835.926	25107
836.064	25069
836.202	25065
836.34	25228
836.478	25453
836.615	25308
836.753	25259
836.891	25293
837.029	25373
837.167	25133
837.305	25057
837.443	25057
837.58	25103
837.718	25050
837.856	25069
837.993	24970
838.131	25084
838.269	24939
838.406	24954
838.544	24916
838.681	24730
838.819	24620
838.956	24669
839.094	24429
839.231	24544
839.369	24658
839.506	24871
839.643	24692
839.781	24536
839.918	24494
840.055	24467
840.193	24513
840.33	24429
840.467	24505
840.604	24490
840.742	24707
840.879	24334
841.016	24220
841.153	24407
841.29	24525
841.427	24441
841.564	24384
841.701	24376
841.838	24418
841.975	24224
842.112	24490
842.249	24346
842.385	24228
842.522	24517
842.659	24281
842.796	24216
842.933	24235
843.069	24285
843.206	24190
843.343	24372
843.479	24159
843.616	24087
843.752	23912
843.889	23897
844.025	24190
844.162	23893
844.298	24110
844.435	24053
844.571	23908
844.708	23950
844.844	24197
844.98	24174
845.117	24060
845.253	23958
845.389	23790
845.525	23790
845.661	23874
845.798	23752
845.934	23874
846.07	23562
846.206	23680
846.342	23745
846.478	23695
846.614	23577
846.75	23288
846.886	23406
847.022	23433
847.158	23395
847.294	23436
847.429	23455
847.565	23387
847.701	23611
847.837	23109
847.972	23151
848.108	23250
848.244	23159
848.379	23075
848.515	22984
848.65	22972
848.786	23044
848.921	22923
849.057	23056
849.192	23113
849.328	23064
849.463	22980
849.598	22953
849.734	22942
849.869	22869
850.004	22847
850.14	22843
850.275	22801
850.41	22805
850.545	22580
850.68	22774
850.815	22774
850.95	22713
851.085	22927
851.22	22896
851.355	22850
851.49	22767
851.625	22729
851.76	22797
851.895	22641
852.03	22736
852.165	22797
852.299	22831
852.434	22847
852.569	22759
852.703	22877
852.838	22877
852.973	22816
853.107	22896
853.242	22706
853.376	22649
853.511	22497
853.645	22580
853.78	22584
853.914	22588
854.048	22569
854.183	22675
854.317	22557
854.451	22771
854.585	22691
854.72	22584
854.854	22713
854.988	22538
855.122	22672
855.256	22440
855.39	22489
855.524	22733
855.658	22713
855.792	22641
855.926	22687
856.06	22713
856.194	22656
856.327	22675
856.461	22634
856.595	22538
856.729	22634
856.862	22793
856.996	22721
857.13	22752
857.263	22748
857.397	22691
857.53	22497
857.664	22721
857.797	22679
857.931	22752
858.064	22607
858.197	22618
858.331	22675
858.464	22546
858.597	22569
858.731	22603
858.864	22474
858.997	22618
859.13	22497
859.263	22573
859.396	22599
859.529	22531
859.662	22618
859.795	22622
859.928	22668
860.061	22847
860.194	22801
860.327	22664
860.46	22626
860.592	22752
860.725	22828
860.858	22793
860.99	22630
861.123	22580
861.256	22523
861.388	22580
861.521	23296
861.653	22409
861.786	22459
861.918	22512
862.05	22493
862.183	22519
862.315	22508
862.447	22615
862.58	22561
862.712	22234
862.844	22348
862.976	22386
863.108	22443
863.24	22820
863.372	22211
863.504	22276
863.636	22352
863.768	22295
863.9	22432
864.032	22234
864.164	22200
864.296	22314
864.428	22405
864.559	22466
864.691	22459
864.823	22185
864.954	22318
865.086	22421
865.217	22192
865.349	22166
865.48	22124
865.612	22219
865.743	22398
865.875	22249
866.006	22147
866.137	22219
866.269	22131
866.4	22090
866.531	22230
866.662	22131
866.793	22109
866.924	22116
867.055	22006
867.186	22131
867.317	22120
867.448	22112
867.579	22097
867.71	21903
867.841	22192
867.972	22067
868.103	22116
868.233	22082
868.364	22196
868.495	22284
868.625	22291
868.756	22394
868.886	22284
869.017	22284
869.147	22363
869.278	22504
869.408	22398
869.539	22382
869.669	22424
869.799	22363
869.929	22577
870.06	22542
870.19	22710
870.32	22599
870.45	22721
870.58	22702
870.71	22824
870.84	22919
870.97	22668
871.1	22824
871.23	23041
871.36	22946
871.489	22797
871.619	22835
871.749	22961
871.879	23094
872.008	23022
872.138	22957
872.267	23014
872.397	22881
872.526	22736
872.656	22831
872.785	22790
872.915	22915
873.044	23083
873.173	23098
873.303	23003
873.432	22976
873.561	23147
873.69	23010
873.819	22957
873.948	23075
874.077	23067
874.206	22957
874.335	23136
874.464	23090
874.593	23265
874.722	23170
874.851	23121
874.979	23189
875.108	23250
875.237	23178
875.365	22991
875.494	23128
875.623	23162
875.751	23185
875.88	23261
876.008	23311
876.136	23444
876.265	23798
876.393	23737
876.521	23718
876.65	23619
876.778	23543
876.906	23505
877.034	23486
877.162	23512
877.29	23505
877.418	23665
877.546	23482
877.674	23554
877.802	23570
877.93	23592
878.058	23608
878.185	23497
878.313	23528
878.441	23486
878.568	23299
878.696	23429
878.824	23627
878.951	23642
879.079	23802
879.206	23859
879.333	23653
879.461	23524
879.588	23642
879.715	23798
879.842	23779
879.97	23585
880.097	23364
880.224	23345
880.351	23452
880.478	23448
880.605	23307
880.732	23353
880.859	23490
880.986	23318
881.112	23364
881.239	23208
881.366	23033
881.493	22934
881.619	22930
881.746	22881
881.872	22858
881.999	22824
882.125	22793
882.252	22946
882.378	22759
882.505	23037
882.631	22767
882.757	22569
882.883	22660
883.01	22569
883.136	22443
883.262	22634
883.388	22538
883.514	22561
883.64	22626
883.766	22451
883.892	22489
884.018	22402
884.143	22424
884.269	22531
884.395	22295
884.52	22257
884.646	22211
884.772	22082
884.897	22078
885.023	22348
885.148	22272
885.274	22405
885.399	22325
885.524	22074
885.65	22211
885.775	22287
885.9	22166
886.025	22325
886.15	22181
886.275	22124
886.4	22116
886.525	22219
886.65	22116
886.775	22124
886.9	22268
887.025	22405
887.149	22124
887.274	22055
887.399	22029
887.523	21972
887.648	21869
887.773	21956
887.897	22188
888.021	22032
888.146	21895
888.27	22006
888.395	21964
888.519	21956
888.643	21991
888.767	22051
888.891	21869
889.015	21797
889.139	21739
889.263	21857
889.387	21854
889.511	21937
889.635	21838
889.759	21694
889.883	21648
890.006	21823
890.13	21842
890.254	21644
890.377	21660
890.501	21583
890.624	21416
890.748	21473
890.871	21405
890.995	21336
891.118	21188
891.241	21344
891.364	21298
891.488	21291
891.611	21294
891.734	21344
891.857	21424
891.98	21386
892.103	21405
892.226	21249
892.349	21279
892.471	21157
892.594	21142
892.717	21252
892.839	21192
892.962	21222
893.085	21351
893.207	21207
893.33	21116
893.452	21108
893.575	21298
893.697	21074
893.819	21264
893.941	21420
894.064	21329
894.186	21287
894.308	21127
894.43	21199
894.552	21310
894.674	21272
894.796	21062
894.918	21230
895.04	21047
895.161	21313
895.283	21135
895.405	21100
895.526	21169
895.648	21237
895.769	21173
895.891	21287
896.012	21192
896.134	21272
896.255	21119
896.376	21039
896.498	21169
896.619	21237
896.74	21062
896.861	21180
896.982	21549
897.103	21682
897.224	21405
897.345	21378
897.466	21336
897.587	21298
897.708	21420
897.828	21466
897.949	21306
898.07	21112
898.19	21310
898.311	21469
898.431	21283
898.552	21370
898.672	21412
898.792	21412
898.913	21351
899.033	21199
899.153	21192
899.273	21005
899.393	21028
899.513	21142
899.633	21077
899.753	21024
899.873	21135
899.993	21066
900.113	20963
900.232	21116
900.352	21020
900.472	20941
900.591	20902
900.711	20891
900.83	20910
900.95	21005
901.069	20967
901.189	20701
901.308	20537
901.427	20415
901.546	20423
901.665	20469
901.784	20454
901.904	20298
902.023	20237
902.141	19928
902.26	19944
902.379	20073
902.498	19883
902.617	19947
902.735	20046
902.854	20027
902.973	19765
903.091	19632
903.21	19586
903.328	19601
903.446	19658
903.565	19392
903.683	19449
903.801	19396
903.919	19343
904.038	19369
904.156	19133
904.274	19190
904.392	19080
904.51	19107
904.627	18993
904.745	19114
904.863	19282
904.981	18932
905.098	18787
905.216	18871
905.334	18939
905.451	18814
905.569	18791
905.686	18734
905.803	18821
905.921	18650
906.038	18696
906.155	18688
906.272	18433
906.389	18661
906.506	18285
906.623	18292
906.74	18338
906.857	18178
906.974	18270
907.091	18452
907.208	18471
907.324	18403
907.441	18266
907.557	18174
907.674	17904
907.79	18053
907.907	17961
908.023	18140
908.139	18034
908.256	17931
908.372	17866
908.488	17992
908.604	17779
908.72	17695
908.836	17775
908.952	17714
909.068	17798
909.184	17863
909.3	17786
909.415	17805
909.531	17707
909.647	17627
909.762	17414
909.878	17395
909.993	17402
910.108	17414
910.224	17406
910.339	17379
910.454	17326
910.57	17299
910.685	17151
910.8	17425
910.915	17345
911.03	17330
911.145	16972
911.259	17102
911.374	16942
911.489	17006
911.604	16896
911.718	16786
911.833	16736
911.947	16721
912.062	16660
912.176	16892
912.291	16805
912.405	16748
912.519	16835
912.633	16896
912.748	16729
912.862	16820
912.976	16558
913.09	16561
913.204	16637
913.318	16523
913.431	16649
913.545	16641
913.659	16733
913.772	16459
913.886	16417
914	16314
914.113	16470
914.226	16421
914.34	16352
914.453	16268
914.566	16299
914.68	16204
914.793	16101
914.906	16029
915.019	15934
915.132	15911
915.245	15857
915.358	15972
915.47	15960
915.583	15873
915.696	15956
915.809	16032
915.921	16036
916.034	15846
916.146	15854
916.259	15812
916.371	15937
916.483	15819
916.595	15759
916.708	15762
916.82	15724
916.932	15736
917.044	15652
917.156	15648
917.268	15511
917.38	15542
917.491	15576
917.603	15614
917.715	15591
917.826	15545
917.938	15534
918.049	15317
918.161	15485
918.272	15679
918.384	15580
918.495	15523
918.606	15370
918.717	15211
918.828	15329
918.939	15321
919.05	15226
919.161	15245
919.272	15138
919.383	15104
919.494	15321
919.604	15477
919.715	15306
919.826	15211
919.936	15192
920.047	15329
920.157	15241
920.267	15511
920.378	15325
920.488	15241
920.598	15504
920.708	15614
920.818	15443
920.928	15310
921.038	15595
921.148	15450
921.258	15218
921.368	15214
921.477	15093
921.587	15024
921.697	14864
921.806	15062
921.916	14800
922.025	14758
922.134	14617
922.244	14617
922.353	14724
922.462	14503
922.571	14507
922.68	14256
922.789	14404
922.898	14309
923.007	14263
923.116	14278
923.224	14271
923.333	14290
923.442	14123
923.55	14183
923.659	14119
923.767	14218
923.876	14039
923.984	14149
924.092	14065
924.201	14096
924.309	13982
924.417	14062
924.525	13883
924.633	13890
924.741	14731
924.849	13715
924.956	13890
925.064	13715
925.172	13628
925.279	13655
925.387	13708
925.494	13636
925.602	13833
925.709	13666
925.816	13594
925.924	13651
926.031	13723
926.138	13552
926.245	13647
926.352	13510
926.459	13689
926.566	13689
926.673	13544
926.779	13449
926.886	13320
926.993	13270
927.099	13069
927.206	13171
927.312	13183
927.419	13213
927.525	13236
927.631	13259
927.737	13133
927.843	13072
927.95	12993
928.056	13057
928.162	13053
928.267	13122
928.373	13643
928.479	13012
928.585	12772
928.69	13019
928.796	13015
928.901	12886
929.007	12719
929.112	12939
929.218	12829
929.323	12806
929.428	12597
929.533	12738
929.638	12734
929.743	12741
929.848	12791
929.953	12677
930.058	12536
930.163	12384
930.267	12304
930.372	12532
930.477	12376
930.581	12631
930.685	12429
930.79	12266
930.894	12357
930.998	12186
931.103	12334
931.207	11980
931.311	11916
931.415	11832
931.519	11634
931.623	11604
