Data from test_V78500241_2648.txt Node
Date: Fri Mar 25 16:00:08 CST 2022
User: usil
Spectrometer: V785-0024
Trigger mode: 0
Integration Time (sec): 4.000000E-1
Scans to average: 1
Nonlinearity correction enabled: false
Boxcar width: 0
Storing dark spectrum: false
XAxis mode: Wavelengths
Number of Pixels in Spectrum: 1024
>>>>>Begin Spectral Data<<<<<
801.071	28371
801.214	28344
801.356	28173
801.499	28185
801.641	28105
801.783	27975
801.926	28124
802.068	28010
802.211	28032
802.353	27880
802.496	27766
802.638	27538
802.78	27751
802.923	27530
803.065	27534
803.208	27667
803.35	27713
803.492	27751
803.635	27903
803.777	27747
803.919	27854
804.061	28185
804.204	27953
804.346	27808
804.488	27785
804.63	28048
804.773	27869
804.915	27914
805.057	27987
805.199	27930
805.341	27895
805.483	28029
805.626	28124
805.768	27869
805.91	27983
806.052	28036
806.194	27941
806.336	28230
806.478	27922
806.62	28166
806.762	28234
806.904	28341
807.046	28546
807.188	28401
807.33	28603
807.472	28626
807.614	28440
807.756	28371
807.898	28401
808.04	28401
808.182	28348
808.324	28386
808.465	28386
808.607	28603
808.749	28721
808.891	28820
809.033	28923
809.174	28820
809.316	28653
809.458	28687
809.6	28675
809.741	28805
809.883	28713
810.025	29022
810.166	28961
810.308	29056
810.45	29022
810.591	28839
810.733	28721
810.875	28710
811.016	28656
811.158	28618
811.299	28786
811.441	28888
811.582	28824
811.724	28740
811.865	28717
812.007	28721
812.148	28797
812.29	28641
812.431	28873
812.573	29109
812.714	29094
812.855	29261
812.997	29330
813.138	29512
813.279	29280
813.421	29280
813.562	29269
813.703	28949
813.845	28972
813.986	28733
814.127	28588
814.268	28379
814.41	28554
814.551	28409
814.692	28596
814.833	28284
814.974	28382
815.115	28352
815.256	28409
815.397	28306
815.539	28181
815.68	28246
815.821	28367
815.962	28379
816.103	28177
816.244	28147
816.385	28063
816.526	28048
816.666	27854
816.807	27694
816.948	27804
817.089	27865
817.23	27739
817.371	27694
817.512	27743
817.653	27709
817.793	27557
817.934	27797
818.075	27755
818.216	27774
818.356	27690
818.497	27549
818.638	27492
818.778	27443
818.919	27496
819.06	27523
819.2	27641
819.341	27679
819.481	27652
819.622	27838
819.762	28070
819.903	27972
820.043	28055
820.184	27926
820.324	27968
820.465	27949
820.605	27968
820.746	27869
820.886	27739
821.026	27869
821.167	27857
821.307	27838
821.447	27667
821.588	27732
821.728	27675
821.868	27469
822.008	27378
822.149	27157
822.289	27211
822.429	27032
822.569	26967
822.709	26872
822.849	26598
822.99	26522
823.13	26686
823.27	26636
823.41	26613
823.55	26385
823.69	26511
823.83	26488
823.97	26571
824.11	26389
824.25	26317
824.389	26271
824.529	26495
824.669	26389
824.809	26503
824.949	26396
825.089	26575
825.228	26446
825.368	26286
825.508	26336
825.648	26218
825.787	26206
825.927	26317
826.067	26339
826.206	26221
826.346	26305
826.485	26298
826.625	26290
826.765	26339
826.904	26271
827.044	26035
827.183	25940
827.323	26050
827.462	26122
827.601	25925
827.741	26027
827.88	26069
828.02	25852
828.159	25879
828.298	25966
828.437	26176
828.577	25890
828.716	26012
828.855	25864
828.994	25723
829.134	25822
829.273	25750
829.412	25609
829.551	25651
829.69	25651
829.829	25674
829.968	25795
830.107	25742
830.246	25616
830.385	25628
830.524	25616
830.663	25491
830.802	25278
830.941	25301
831.08	25346
831.219	25301
831.357	25457
831.496	25476
831.635	25339
831.774	25202
831.913	25141
832.051	25217
832.19	25061
832.329	25133
832.467	25034
832.606	24905
832.744	24951
832.883	24909
833.022	24882
833.16	25023
833.299	24909
833.437	24920
833.576	25015
833.714	24966
833.852	25145
833.991	25107
834.129	25118
834.267	25008
834.406	24989
834.544	25133
834.682	25046
834.821	25015
834.959	25244
835.097	24973
835.235	25080
835.373	25023
835.511	24962
835.65	24958
835.788	24882
835.926	24722
836.064	24707
836.202	24684
836.34	24954
836.478	24859
836.615	24859
836.753	24802
836.891	24848
837.029	24783
837.167	24810
837.305	24753
837.443	24661
837.58	24681
837.718	24730
837.856	24753
837.993	24696
838.131	24650
838.269	24380
838.406	24601
838.544	24479
838.681	24247
838.819	24315
838.956	24117
839.094	24148
839.231	24182
839.369	24285
839.506	24437
839.643	24426
839.781	24159
839.918	24026
840.055	24152
840.193	24197
840.33	24079
840.467	24049
840.604	24159
840.742	24330
840.879	23843
841.016	23920
841.153	23874
841.29	23992
841.427	23882
841.564	23996
841.701	24194
841.838	23904
841.975	23847
842.112	23866
842.249	23969
842.385	23779
842.522	24171
842.659	23973
842.796	23745
842.933	23798
843.069	23767
843.206	23760
843.343	23783
843.479	23847
843.616	23813
843.752	23566
843.889	23745
844.025	23707
844.162	23646
844.298	23547
844.435	23680
844.571	23615
844.708	23570
844.844	23798
844.98	23745
845.117	23703
845.253	23459
845.389	23425
845.525	23417
845.661	23474
845.798	23303
845.934	23429
846.07	23216
846.206	23417
846.342	23486
846.478	23303
846.614	23075
846.75	23010
846.886	23056
847.022	23037
847.158	23151
847.294	23033
847.429	23083
847.565	23083
847.701	23296
847.837	22793
847.972	22630
848.108	22892
848.244	22691
848.379	22634
848.515	22538
848.65	22599
848.786	22481
848.921	22675
849.057	22683
849.192	22736
849.328	22755
849.463	22557
849.598	22603
849.734	22512
849.869	22569
850.004	22356
850.14	22348
850.275	22379
850.41	22333
850.545	22337
850.68	22455
850.815	22462
850.95	22451
851.085	22493
851.22	22459
851.355	22348
851.49	22421
851.625	22413
851.76	22341
851.895	22299
852.03	22333
852.165	22512
852.299	22348
852.434	22432
852.569	22394
852.703	22474
852.838	22451
852.973	22577
853.107	22592
853.242	22303
853.376	22211
853.511	22063
853.645	22055
853.78	22306
853.914	22219
854.048	22295
854.183	22211
854.317	22185
854.451	22329
854.585	22234
854.72	22299
854.854	22276
854.988	22169
855.122	22242
855.256	22074
855.39	22306
855.524	22310
855.658	22249
855.792	22200
855.926	22242
856.06	22318
856.194	22223
856.327	22169
856.461	22234
856.595	22284
856.729	22169
856.862	22257
856.996	22158
857.13	22360
857.263	22268
857.397	22272
857.53	22124
857.664	22124
857.797	22181
857.931	22405
858.064	22207
858.197	22272
858.331	22230
858.464	22131
858.597	22154
858.731	22192
858.864	22306
858.997	22097
859.13	22147
859.263	22276
859.396	22284
859.529	22234
859.662	22116
859.795	22177
859.928	22249
860.061	22299
860.194	22481
860.327	22215
860.46	22284
860.592	22352
860.725	22344
860.858	22314
860.99	22257
861.123	22162
861.256	22128
861.388	22192
861.521	22987
861.653	22078
861.786	22051
861.918	21979
862.05	22120
862.183	22185
862.315	22204
862.447	22211
862.58	22112
862.712	21949
862.844	21888
862.976	22082
863.108	21945
863.24	22352
863.372	21865
863.504	21964
863.636	22032
863.768	21915
863.9	22021
864.032	21865
864.164	21850
864.296	22063
864.428	21926
864.559	22109
864.691	21994
864.823	21979
864.954	21846
865.086	22051
865.217	21823
865.349	21743
865.48	21759
865.612	21835
865.743	21903
865.875	21823
866.006	21728
866.137	21854
866.269	21732
866.4	21850
866.531	21679
866.662	21622
866.793	21785
866.924	21686
867.055	21797
867.186	21743
867.317	21736
867.448	21728
867.579	21717
867.71	21637
867.841	21614
867.972	21736
868.103	21800
868.233	21838
868.364	21880
868.495	21694
868.625	21937
868.756	22063
868.886	21975
869.017	21987
869.147	22105
869.278	22048
869.408	22059
869.539	21934
869.669	22025
869.799	22051
869.929	22181
870.06	22078
870.19	22352
870.32	22249
870.45	22284
870.58	22390
870.71	22519
870.84	22500
870.97	22284
871.1	22432
871.23	22550
871.36	22493
871.489	22478
871.619	22455
871.749	22577
871.879	22622
872.008	22588
872.138	22565
872.267	22546
872.397	22481
872.526	22409
872.656	22417
872.785	22455
872.915	22596
873.044	22672
873.173	22557
873.303	22698
873.432	22717
873.561	22649
873.69	22542
873.819	22584
873.948	22653
874.077	22554
874.206	22573
874.335	22542
874.464	22725
874.593	22877
874.722	22736
874.851	22873
874.979	22801
875.108	22892
875.237	22820
875.365	22702
875.494	22729
875.623	22968
875.751	22877
875.88	22953
876.008	22957
876.136	22938
876.265	23109
876.393	23296
876.521	23349
876.65	23235
876.778	23216
876.906	23071
877.034	23193
877.162	23368
877.29	23090
877.418	23284
877.546	23136
877.674	23117
877.802	23025
877.93	23109
878.058	23132
878.185	23041
878.313	23136
878.441	23094
878.568	22972
878.696	22984
878.824	23170
878.951	23220
879.079	23273
879.206	23497
879.333	23391
879.461	23166
879.588	23216
879.715	23318
879.842	23414
879.97	23280
880.097	22965
880.224	22953
880.351	22976
880.478	23025
880.605	22949
880.732	22919
880.859	23220
880.986	23136
881.112	22991
881.239	22930
881.366	22771
881.493	22607
881.619	22493
881.746	22596
881.872	22687
881.999	22497
882.125	22447
882.252	22656
882.378	22523
882.505	22675
882.631	22417
882.757	22306
882.883	22337
883.01	22329
883.136	22207
883.262	22158
883.388	22101
883.514	22329
883.64	22196
883.766	22086
883.892	21956
884.018	22044
884.143	22120
884.269	22238
884.395	22029
884.52	21846
884.646	21953
884.772	21759
884.897	21682
885.023	21861
885.148	21960
885.274	22017
885.399	22063
885.524	21835
885.65	21899
885.775	21728
885.9	21827
886.025	21907
886.15	21903
886.275	21759
886.4	21762
886.525	21732
886.65	21705
886.775	21747
886.9	21945
887.025	22082
887.149	21816
887.274	21637
887.399	21576
887.523	21580
887.648	21599
887.773	21545
887.897	21633
888.021	21580
888.146	21526
888.27	21739
888.395	21652
888.519	21713
888.643	21770
888.767	21644
888.891	21424
889.015	21454
889.139	21374
889.263	21458
889.387	21553
889.511	21660
889.635	21435
889.759	21450
889.883	21359
890.006	21397
890.13	21492
890.254	21298
890.377	21260
890.501	21207
890.624	21070
890.748	21131
890.871	20986
890.995	21017
891.118	20891
891.241	21070
891.364	20998
891.488	21135
891.611	21104
891.734	21020
891.857	20895
891.98	20975
892.103	21119
892.226	21013
892.349	20941
892.471	20701
892.594	20883
892.717	20834
892.839	20914
892.962	20853
893.085	20769
893.207	20899
893.33	20754
893.452	20731
893.575	20876
893.697	20788
893.819	21020
893.941	21055
894.064	21001
894.186	20735
894.308	20663
894.43	20872
894.552	21017
894.674	20902
894.796	20861
894.918	20861
895.04	20792
895.161	20769
895.283	20895
895.405	20815
895.526	20933
895.648	20880
895.769	20963
895.891	20910
896.012	20861
896.134	20933
896.255	20872
896.376	20712
896.498	20849
896.619	20853
896.74	20845
896.861	20910
896.982	21211
897.103	21222
897.224	21123
897.345	21096
897.466	20963
897.587	21142
897.708	21207
897.828	20982
897.949	20902
898.07	20834
898.19	20963
898.311	21131
898.431	20899
898.552	21066
898.672	21036
898.792	21123
898.913	21005
899.033	20979
899.153	20720
899.273	20648
899.393	20845
899.513	20876
899.633	20765
899.753	20727
899.873	20712
899.993	20788
900.113	20845
900.232	20773
900.352	20727
900.472	20640
900.591	20518
900.711	20511
900.83	20480
900.95	20693
901.069	20533
901.189	20446
901.308	20145
901.427	20081
901.546	20145
901.665	20191
901.784	20218
901.904	19970
902.023	19894
902.141	19712
902.26	19681
902.379	19761
902.498	19601
902.617	19582
902.735	19594
902.854	19609
902.973	19468
903.091	19339
903.21	19324
903.328	19148
903.446	19289
903.565	19057
903.683	19145
903.801	18852
903.919	18977
904.038	19046
904.156	18745
904.274	18916
904.392	18890
904.51	18833
904.627	18821
904.745	18787
904.863	18821
904.981	18722
905.098	18502
905.216	18528
905.334	18578
905.451	18589
905.569	18456
905.686	18502
905.803	18483
905.921	18353
906.038	18357
906.155	18327
906.272	18266
906.389	18144
906.506	18038
906.623	18087
906.74	18011
906.857	17931
906.974	18019
907.091	18083
907.208	18247
907.324	18007
907.441	18019
907.557	17775
907.674	17764
907.79	17726
907.907	17687
908.023	17703
908.139	17691
908.256	17710
908.372	17627
908.488	17573
908.604	17608
908.72	17402
908.836	17528
908.952	17486
909.068	17463
909.184	17547
909.3	17463
909.415	17474
909.531	17421
909.647	17128
909.762	17140
909.878	17170
909.993	17220
910.108	17098
910.224	17124
910.339	17041
910.454	16965
910.57	16942
910.685	16972
910.8	17105
910.915	17124
911.03	16984
911.145	16744
911.259	16733
911.374	16805
911.489	16710
911.604	16622
911.718	16535
911.833	16584
911.947	16333
912.062	16371
912.176	16497
912.291	16565
912.405	16554
912.519	16744
912.633	16668
912.748	16512
912.862	16314
912.976	16382
913.09	16253
913.204	16276
913.318	16329
913.431	16318
913.545	16371
913.659	16303
913.772	16215
913.886	16173
914	16021
914.113	16131
914.226	16246
914.34	16105
914.453	16029
914.566	16154
914.68	16082
914.793	15979
914.906	15873
915.019	15785
915.132	15618
915.245	15690
915.358	15804
915.47	15747
915.583	15747
915.696	15682
915.809	15720
915.921	15827
916.034	15576
916.146	15545
916.259	15561
916.371	15667
916.483	15622
916.595	15477
916.708	15542
916.82	15447
916.932	15428
917.044	15458
917.156	15458
917.268	15431
917.38	15386
917.491	15321
917.603	15302
917.715	15344
917.826	15412
917.938	15256
918.049	15100
918.161	15275
918.272	15367
918.384	15367
918.495	15249
918.606	15272
918.717	15093
918.828	15093
918.939	15017
919.05	14948
919.161	15112
919.272	14735
919.383	14861
919.494	15104
919.604	15241
919.715	15017
919.826	14967
919.936	15005
920.047	15020
920.157	14967
920.267	15184
920.378	15017
920.488	14933
920.598	15180
920.708	15279
920.818	15131
920.928	15150
921.038	15298
921.148	15222
921.258	14937
921.368	14849
921.477	14788
921.587	14765
921.697	14617
921.806	14773
921.916	14530
922.025	14393
922.134	14419
922.244	14347
922.353	14396
922.462	14324
922.571	14123
922.68	14058
922.789	13955
922.898	13959
923.007	14031
923.116	14016
923.224	13963
923.333	14005
923.442	14008
923.55	13894
923.659	13811
923.767	13951
923.876	13742
923.984	13955
924.092	13666
924.201	13879
924.309	13632
924.417	13750
924.525	13670
924.633	13651
924.741	14606
924.849	13438
924.956	13601
925.064	13487
925.172	13457
925.279	13422
925.387	13457
925.494	13312
925.602	13578
925.709	13396
925.816	13285
925.924	13476
926.031	13415
926.138	13407
926.245	13502
926.352	13255
926.459	13445
926.566	13320
926.673	13194
926.779	13187
926.886	13152
926.993	12943
927.099	12951
927.206	12897
927.312	12951
927.419	12962
927.525	12913
927.631	13004
927.737	12875
927.843	12844
927.95	12730
928.056	12665
928.162	12916
928.267	12734
928.373	13407
928.479	12886
928.585	12612
928.69	12604
928.796	12715
928.901	12662
929.007	12467
929.112	12593
929.218	12490
929.323	12483
929.428	12532
929.533	12612
929.638	12467
929.743	12456
929.848	12456
929.953	12391
930.058	12372
930.163	12239
930.267	12171
930.372	12243
930.477	12136
930.581	12395
930.685	12136
930.79	12045
930.894	12117
930.998	12015
931.103	12167
931.207	11760
931.311	11714
931.415	11600
931.519	11440
931.623	11395
