Data from test_V78500241_3114.txt Node
Date: Fri Mar 25 16:03:22 CST 2022
User: usil
Spectrometer: V785-0024
Trigger mode: 0
Integration Time (sec): 4.000000E-1
Scans to average: 1
Nonlinearity correction enabled: false
Boxcar width: 0
Storing dark spectrum: false
XAxis mode: Wavelengths
Number of Pixels in Spectrum: 1024
>>>>>Begin Spectral Data<<<<<
801.071	28599
801.214	28710
801.356	28318
801.499	28493
801.641	28207
801.783	28287
801.926	28242
802.068	28234
802.211	28223
802.353	28124
802.496	27953
802.638	28013
802.78	27972
802.923	27675
803.065	27724
803.208	27911
803.35	27918
803.492	28044
803.635	28139
803.777	28013
803.919	28143
804.061	28451
804.204	28029
804.346	28188
804.488	28082
804.63	28211
804.773	28021
804.915	28261
805.057	28363
805.199	28112
805.341	28265
805.483	28291
805.626	28352
805.768	28246
805.91	28500
806.052	28371
806.194	28207
806.336	28550
806.478	28474
806.62	28333
806.762	28478
806.904	28550
807.046	28809
807.188	28774
807.33	28774
807.472	28824
807.614	28664
807.756	28778
807.898	28820
808.04	28428
808.182	28622
808.324	28713
808.465	28656
808.607	28843
808.749	29018
808.891	29216
809.033	29140
809.174	29117
809.316	29033
809.458	29025
809.6	29025
809.741	28976
809.883	29239
810.025	29471
810.166	29349
810.308	29387
810.45	29372
810.591	29159
810.733	28972
810.875	29098
811.016	29098
811.158	29037
811.299	29235
811.441	29303
811.582	29117
811.724	29067
811.865	29147
812.007	28885
812.148	29044
812.29	29223
812.431	29299
812.573	29467
812.714	29589
812.855	29490
812.997	29661
813.138	29684
813.279	29737
813.421	29581
813.562	29566
813.703	29383
813.845	29208
813.986	28961
814.127	28740
814.268	28729
814.41	28839
814.551	28706
814.692	28759
814.833	28706
814.974	28656
815.115	28717
815.256	28668
815.397	28740
815.539	28607
815.68	28546
815.821	28508
815.962	28790
816.103	28508
816.244	28421
816.385	28497
816.526	28356
816.666	28116
816.807	28112
816.948	28120
817.089	28112
817.23	28147
817.371	27968
817.512	28021
817.653	28090
817.793	27960
817.934	27972
818.075	27926
818.216	28143
818.356	28078
818.497	27960
818.638	27835
818.778	27914
818.919	27743
819.06	28010
819.2	27964
819.341	28032
819.481	28036
819.622	28246
819.762	28447
819.903	28306
820.043	28344
820.184	28284
820.324	28139
820.465	28295
820.605	28147
820.746	28204
820.886	28070
821.026	28181
821.167	28093
821.307	28150
821.447	28211
821.588	28006
821.728	27892
821.868	27709
822.008	27648
822.149	27515
822.289	27526
822.429	27317
822.569	27317
822.709	27245
822.849	27116
822.99	27081
823.13	26967
823.27	27005
823.41	26834
823.55	26731
823.69	26925
823.83	27001
823.97	26902
824.11	26613
824.25	26716
824.389	26689
824.529	26708
824.669	26659
824.809	26785
824.949	26765
825.089	26944
825.228	26731
825.368	26598
825.508	26545
825.648	26545
825.787	26594
825.927	26613
826.067	26613
826.206	26549
826.346	26674
826.485	26625
826.625	26438
826.765	26533
826.904	26545
827.044	26248
827.183	26446
827.323	26408
827.462	26298
827.601	26400
827.741	26233
827.88	26400
828.02	26290
828.159	26275
828.298	26240
828.437	26415
828.577	26343
828.716	26320
828.855	26157
828.994	25940
829.134	26111
829.273	26077
829.412	26024
829.551	25982
829.69	25970
829.829	26157
829.968	26043
830.107	26024
830.246	26084
830.385	25963
830.524	25902
830.663	25841
830.802	25852
830.941	25708
831.08	25533
831.219	25670
831.357	25609
831.496	25719
831.635	25597
831.774	25518
831.913	25411
832.051	25403
832.19	25487
832.329	25365
832.467	25304
832.606	25194
832.744	25274
832.883	25187
833.022	25126
833.16	25247
833.299	25251
833.437	25388
833.576	25335
833.714	25270
833.852	25392
833.991	25582
834.129	25327
834.267	25339
834.406	25278
834.544	25362
834.682	25213
834.821	25331
834.959	25426
835.097	25221
835.235	25346
835.373	25297
835.511	25263
835.65	25152
835.788	25160
835.926	25023
836.064	25012
836.202	25023
836.34	25053
836.478	25190
836.615	25107
836.753	25175
836.891	25171
837.029	25168
837.167	25110
837.305	25072
837.443	24966
837.58	24924
837.718	24985
837.856	25008
837.993	24867
838.131	24962
838.269	24825
838.406	24939
838.544	24894
838.681	24722
838.819	24696
838.956	24483
839.094	24471
839.231	24441
839.369	24612
839.506	24760
839.643	24631
839.781	24589
839.918	24403
840.055	24532
840.193	24334
840.33	24350
840.467	24334
840.604	24353
840.742	24578
840.879	24125
841.016	24304
841.153	24323
841.29	24494
841.427	24289
841.564	24365
841.701	24239
841.838	24239
841.975	24304
842.112	24174
842.249	24117
842.385	24091
842.522	24338
842.659	24243
842.796	24102
842.933	24155
843.069	24038
843.206	23961
843.343	24213
843.479	24041
843.616	24091
843.752	24011
843.889	23840
844.025	24007
844.162	23840
844.298	24041
844.435	23809
844.571	23783
844.708	23996
844.844	24030
844.98	23961
845.117	24003
845.253	23843
845.389	23646
845.525	23733
845.661	23779
845.798	23661
845.934	23638
846.07	23554
846.206	23592
846.342	23707
846.478	23493
846.614	23254
846.75	23372
846.886	23318
847.022	23341
847.158	23307
847.294	23356
847.429	23280
847.565	23433
847.701	23547
847.837	23132
847.972	22961
848.108	23231
848.244	23155
848.379	22930
848.515	22946
848.65	22984
848.786	22949
848.921	22805
849.057	23048
849.192	22987
849.328	22987
849.463	22733
849.598	22858
849.734	22786
849.869	22843
850.004	22672
850.14	22592
850.275	22721
850.41	22694
850.545	22634
850.68	22626
850.815	22710
850.95	22702
851.085	22900
851.22	22801
851.355	22687
851.49	22755
851.625	22675
851.76	22744
851.895	22588
852.03	22641
852.165	22584
852.299	22782
852.434	22729
852.569	22752
852.703	22664
852.838	22771
852.973	22824
853.107	22801
853.242	22664
853.376	22504
853.511	22382
853.645	22421
853.78	22599
853.914	22546
854.048	22455
854.183	22447
854.317	22481
854.451	22786
854.585	22531
854.72	22603
854.854	22607
854.988	22565
855.122	22519
855.256	22398
855.39	22546
855.524	22512
855.658	22440
855.792	22512
855.926	22531
856.06	22580
856.194	22573
856.327	22523
856.461	22428
856.595	22375
856.729	22462
856.862	22500
856.996	22497
857.13	22573
857.263	22611
857.397	22538
857.53	22478
857.664	22504
857.797	22538
857.931	22672
858.064	22573
858.197	22531
858.331	22409
858.464	22390
858.597	22303
858.731	22466
858.864	22470
858.997	22409
859.13	22481
859.263	22386
859.396	22649
859.529	22436
859.662	22519
859.795	22508
859.928	22493
860.061	22778
860.194	22713
860.327	22596
860.46	22580
860.592	22569
860.725	22611
860.858	22641
860.99	22599
861.123	22455
861.256	22535
861.388	22557
861.521	23067
861.653	22333
861.786	22329
861.918	22318
862.05	22333
862.183	22462
862.315	22413
862.447	22455
862.58	22519
862.712	22169
862.844	22128
862.976	22360
863.108	22253
863.24	22565
863.372	22188
863.504	22246
863.636	22067
863.768	22333
863.9	22242
864.032	22044
864.164	22200
864.296	22169
864.428	22303
864.559	22299
864.691	22344
864.823	22188
864.954	22192
865.086	22112
865.217	22124
865.349	22036
865.48	22070
865.612	22188
865.743	22215
865.875	22139
866.006	22032
866.137	22090
866.269	22002
866.4	22055
866.531	22017
866.662	21880
866.793	21994
866.924	22029
867.055	22067
867.186	21983
867.317	22150
867.448	21861
867.579	21922
867.71	22029
867.841	22010
867.972	21972
868.103	22044
868.233	21941
868.364	22116
868.495	22128
868.625	22314
868.756	22291
868.886	22150
869.017	22287
869.147	22280
869.278	22436
869.408	22287
869.539	22124
869.669	22325
869.799	22280
869.929	22318
870.06	22432
870.19	22660
870.32	22573
870.45	22516
870.58	22683
870.71	22759
870.84	22771
870.97	22641
871.1	22584
871.23	22892
871.36	22866
871.489	22710
871.619	22858
871.749	22801
871.879	22809
872.008	22889
872.138	22843
872.267	22858
872.397	22668
872.526	22637
872.656	22721
872.785	22729
872.915	22889
873.044	22824
873.173	23029
873.303	22915
873.432	23033
873.561	22987
873.69	22934
873.819	22809
873.948	22972
874.077	22927
874.206	22843
874.335	22850
874.464	22991
874.593	23102
874.722	23003
874.851	23025
874.979	23071
875.108	23258
875.237	23044
875.365	22900
875.494	23094
875.623	23094
875.751	23025
875.88	23071
876.008	23261
876.136	23269
876.265	23505
876.393	23604
876.521	23600
876.65	23672
876.778	23429
876.906	23509
877.034	23444
877.162	23429
877.29	23364
877.418	23436
877.546	23448
877.674	23318
877.802	23429
877.93	23440
878.058	23322
878.185	23299
878.313	23353
878.441	23398
878.568	23223
878.696	23379
878.824	23535
878.951	23634
879.079	23551
879.206	23714
879.333	23554
879.461	23471
879.588	23486
879.715	23592
879.842	23722
879.97	23615
880.097	23330
880.224	23170
880.351	23353
880.478	23200
880.605	23216
880.732	23143
880.859	23573
880.986	23235
881.112	23261
881.239	23113
881.366	23052
881.493	23056
881.619	22850
881.746	22908
881.872	22816
881.999	22683
882.125	22596
882.252	22805
882.378	22828
882.505	22896
882.631	22675
882.757	22424
882.883	22592
883.01	22512
883.136	22367
883.262	22352
883.388	22356
883.514	22394
883.64	22592
883.766	22379
883.892	22204
884.018	22185
884.143	22508
884.269	22447
884.395	22131
884.52	22139
884.646	22207
884.772	22154
884.897	22036
885.023	22177
885.148	22211
885.274	22158
885.399	22188
885.524	22086
885.65	22226
885.775	22139
885.9	22101
886.025	22200
886.15	22238
886.275	22086
886.4	22112
886.525	22086
886.65	22059
886.775	21998
886.9	22238
887.025	22185
887.149	21994
887.274	22006
887.399	21835
887.523	21899
887.648	21823
887.773	21842
887.897	21869
888.021	21865
888.146	21800
888.27	21934
888.395	21854
888.519	21850
888.643	22048
888.767	21854
888.891	21720
889.015	21686
889.139	21587
889.263	21660
889.387	21778
889.511	21915
889.635	21956
889.759	21572
889.883	21667
890.006	21713
890.13	21804
890.254	21618
890.377	21572
890.501	21408
890.624	21329
890.748	21431
890.871	21344
890.995	21226
891.118	21279
891.241	21218
891.364	21188
891.488	21355
891.611	21256
891.734	21180
891.857	21268
891.98	21203
892.103	21317
892.226	21195
892.349	21142
892.471	21051
892.594	21100
892.717	21093
892.839	21192
892.962	21112
893.085	21260
893.207	21138
893.33	21055
893.452	20910
893.575	21119
893.697	21123
893.819	21291
893.941	21283
894.064	21272
894.186	20971
894.308	20994
894.43	21108
894.552	21195
894.674	21066
894.796	21051
894.918	21096
895.04	21104
895.161	21096
895.283	21089
895.405	20982
895.526	21039
895.648	21058
895.769	21135
895.891	21096
896.012	21138
896.134	21062
896.255	21108
896.376	21039
896.498	21070
896.619	21104
896.74	21036
896.861	21150
896.982	21340
897.103	21431
897.224	21408
897.345	21408
897.466	21317
897.587	21355
897.708	21382
897.828	21313
897.949	21226
898.07	21131
898.19	21199
898.311	21222
898.431	21123
898.552	21211
898.672	21351
898.792	21382
898.913	21363
899.033	21211
899.153	21074
899.273	20986
899.393	21100
899.513	20986
899.633	21005
899.753	21165
899.873	21024
899.993	21058
900.113	20925
900.232	20994
900.352	20906
900.472	20796
900.591	20682
900.711	20868
900.83	20781
900.95	20857
901.069	20914
901.189	20674
901.308	20351
901.427	20336
901.546	20358
901.665	20320
901.784	20282
901.904	20149
902.023	20073
902.141	19993
902.26	19932
902.379	20012
902.498	19879
902.617	19906
902.735	19909
902.854	19841
902.973	19727
903.091	19586
903.21	19472
903.328	19453
903.446	19373
903.565	19369
903.683	19289
903.801	19141
903.919	19282
904.038	19331
904.156	19126
904.274	19160
904.392	19076
904.51	19053
904.627	19027
904.745	19148
904.863	19091
904.981	18833
905.098	18833
905.216	18665
905.334	18798
905.451	18749
905.569	18707
905.686	18703
905.803	18688
905.921	18563
906.038	18589
906.155	18521
906.272	18399
906.389	18429
906.506	18186
906.623	18273
906.74	18235
906.857	18140
906.974	18213
907.091	18258
907.208	18429
907.324	18296
907.441	18178
907.557	17958
907.674	17980
907.79	17973
907.907	17977
908.023	17977
908.139	17969
908.256	17980
908.372	17874
908.488	17802
908.604	17676
908.72	17547
908.836	17684
908.952	17684
909.068	17668
909.184	17771
909.3	17623
909.415	17764
909.531	17535
909.647	17478
909.762	17474
909.878	17398
909.993	17459
910.108	17345
910.224	17345
910.339	17341
910.454	17212
910.57	17132
910.685	17113
910.8	17368
910.915	17315
911.03	17189
911.145	17109
911.259	16927
911.374	17083
911.489	16900
911.604	16816
911.718	16653
911.833	16744
911.947	16630
912.062	16558
912.176	16809
912.291	16698
912.405	16748
912.519	16965
912.633	16942
912.748	16767
912.862	16626
912.976	16447
913.09	16386
913.204	16554
913.318	16508
913.431	16588
913.545	16634
913.659	16535
913.772	16432
913.886	16379
914	16276
914.113	16447
914.226	16474
914.34	16318
914.453	16154
914.566	16337
914.68	16253
914.793	16215
914.906	15964
915.019	15857
915.132	15850
915.245	15857
915.358	15915
915.47	15907
915.583	15819
915.696	15873
915.809	15972
915.921	15895
916.034	15797
916.146	15717
916.259	15762
916.371	15838
916.483	15869
916.595	15755
916.708	15732
916.82	15717
916.932	15610
917.044	15694
917.156	15595
917.268	15454
917.38	15466
917.491	15466
917.603	15568
917.715	15564
917.826	15633
917.938	15397
918.049	15367
918.161	15401
918.272	15694
918.384	15519
918.495	15317
918.606	15329
918.717	15211
918.828	15294
918.939	15355
919.05	15146
919.161	15332
919.272	14929
919.383	15093
919.494	15298
919.604	15378
919.715	15291
919.826	15131
919.936	15199
920.047	15294
920.157	15241
920.267	15443
920.378	15283
920.488	15192
920.598	15355
920.708	15428
920.818	15355
920.928	15351
921.038	15504
921.148	15397
921.258	15146
921.368	15028
921.477	14952
921.587	15017
921.697	14792
921.806	14941
921.916	14800
922.025	14701
922.134	14610
922.244	14537
922.353	14549
922.462	14423
922.571	14465
922.68	14313
922.789	14240
922.898	14290
923.007	14176
923.116	14271
923.224	14191
923.333	14210
923.442	14046
923.55	14088
923.659	14123
923.767	14157
923.876	13993
923.984	14073
924.092	13906
924.201	13887
924.309	13906
924.417	13944
924.525	13757
924.633	13864
924.741	14674
924.849	13715
924.956	13769
925.064	13689
925.172	13476
925.279	13632
925.387	13628
925.494	13670
925.602	13753
925.709	13666
925.816	13518
925.924	13544
926.031	13632
926.138	13491
926.245	13582
926.352	13441
926.459	13590
926.566	13559
926.673	13384
926.779	13343
926.886	13282
926.993	13152
927.099	13137
927.206	13088
927.312	13122
927.419	13179
927.525	13137
927.631	13110
927.737	13046
927.843	13038
927.95	12821
928.056	13004
928.162	12970
928.267	13008
928.373	13613
928.479	13137
928.585	12722
928.69	12916
928.796	12947
928.901	12768
929.007	12696
929.112	12768
929.218	12741
929.323	12642
929.428	12650
929.533	12779
929.638	12521
929.743	12570
929.848	12669
929.953	12642
930.058	12483
930.163	12300
930.267	12327
930.372	12448
930.477	12243
930.581	12445
930.685	12384
930.79	12254
930.894	12308
930.998	12152
931.103	12315
931.207	11923
931.311	11859
931.415	11790
931.519	11532
931.623	11554
