Data from test_V78500241_2512.txt Node
Date: Fri Mar 25 15:59:12 CST 2022
User: usil
Spectrometer: V785-0024
Trigger mode: 0
Integration Time (sec): 4.000000E-1
Scans to average: 1
Nonlinearity correction enabled: false
Boxcar width: 0
Storing dark spectrum: false
XAxis mode: Wavelengths
Number of Pixels in Spectrum: 1024
>>>>>Begin Spectral Data<<<<<
801.071	28786
801.214	28881
801.356	28561
801.499	28542
801.641	28333
801.783	28360
801.926	28489
802.068	28337
802.211	28204
802.353	28223
802.496	28219
802.638	28147
802.78	28086
802.923	27930
803.065	27987
803.208	28002
803.35	28017
803.492	28246
803.635	28196
803.777	28158
803.919	28242
804.061	28596
804.204	28280
804.346	28291
804.488	28318
804.63	28310
804.773	28287
804.915	28318
805.057	28409
805.199	28333
805.341	28455
805.483	28573
805.626	28470
805.768	28272
805.91	28497
806.052	28428
806.194	28459
806.336	28592
806.478	28451
806.62	28523
806.762	28519
806.904	28873
807.046	28938
807.188	28927
807.33	28923
807.472	29113
807.614	28835
807.756	29041
807.898	28816
808.04	28702
808.182	28660
808.324	28702
808.465	28748
808.607	29018
808.749	29132
808.891	29239
809.033	29292
809.174	29216
809.316	29124
809.458	29258
809.6	29162
809.741	29258
809.883	29318
810.025	29448
810.166	29471
810.308	29581
810.45	29478
810.591	29448
810.733	29216
810.875	29151
811.016	29067
811.158	29143
811.299	29284
811.441	29307
811.582	29318
811.724	29079
811.865	29083
812.007	29254
812.148	29372
812.29	29315
812.431	29364
812.573	29581
812.714	29707
812.855	29687
812.997	29748
813.138	29882
813.279	29710
813.421	29745
813.562	29623
813.703	29531
813.845	29364
813.986	29117
814.127	29090
814.268	28782
814.41	28930
814.551	28919
814.692	28953
814.833	28725
814.974	28999
815.115	28892
815.256	28805
815.397	28828
815.539	28740
815.68	28740
815.821	28759
815.962	28729
816.103	28736
816.244	28542
816.385	28481
816.526	28325
816.666	28303
816.807	28029
816.948	28299
817.089	28337
817.23	28386
817.371	28128
817.512	28139
817.653	28192
817.793	28177
817.934	28135
818.075	28204
818.216	28196
818.356	28265
818.497	28207
818.638	28006
818.778	28013
818.919	27873
819.06	28063
819.2	28040
819.341	28242
819.481	28204
819.622	28398
819.762	28455
819.903	28485
820.043	28481
820.184	28337
820.324	28310
820.465	28401
820.605	28394
820.746	28360
820.886	28128
821.026	28333
821.167	28226
821.307	28497
821.447	28341
821.588	28185
821.728	28040
821.868	27934
822.008	27781
822.149	27610
822.289	27667
822.429	27435
822.569	27393
822.709	27351
822.849	27260
822.99	27184
823.13	27062
823.27	27066
823.41	27173
823.55	26971
823.69	27077
823.83	27013
823.97	26921
824.11	26868
824.25	26769
824.389	26868
824.529	26872
824.669	26929
824.809	26864
824.949	26819
825.089	26925
825.228	26971
825.368	26655
825.508	26674
825.648	26788
825.787	26876
825.927	26769
826.067	26678
826.206	26701
826.346	26868
826.485	26727
826.625	26724
826.765	26800
826.904	26735
827.044	26587
827.183	26404
827.323	26495
827.462	26564
827.601	26564
827.741	26442
827.88	26431
828.02	26358
828.159	26533
828.298	26575
828.437	26450
828.577	26541
828.716	26488
828.855	26374
828.994	26221
829.134	26164
829.273	26161
829.412	26202
829.551	25997
829.69	26005
829.829	26168
829.968	26298
830.107	26092
830.246	26157
830.385	26069
830.524	25947
830.663	26020
830.802	25856
830.941	25902
831.08	25803
831.219	25818
831.357	25894
831.496	25951
831.635	25647
831.774	25689
831.913	25483
832.051	25422
832.19	25601
832.329	25537
832.467	25369
832.606	25445
832.744	25331
832.883	25472
833.022	25453
833.16	25510
833.299	25346
833.437	25453
833.576	25479
833.714	25426
833.852	25434
833.991	25403
834.129	25453
834.267	25449
834.406	25529
834.544	25586
834.682	25472
834.821	25434
834.959	25597
835.097	25415
835.235	25510
835.373	25476
835.511	25506
835.65	25339
835.788	25396
835.926	25164
836.064	25095
836.202	25095
836.34	25244
836.478	25316
836.615	25251
836.753	25209
836.891	25358
837.029	25312
837.167	25209
837.305	25304
837.443	25190
837.58	25156
837.718	25168
837.856	25236
837.993	25156
838.131	25129
838.269	24958
838.406	24939
838.544	24856
838.681	24821
838.819	24840
838.956	24547
839.094	24547
839.231	24673
839.369	24875
839.506	24928
839.643	24814
839.781	24593
839.918	24483
840.055	24540
840.193	24528
840.33	24608
840.467	24555
840.604	24589
840.742	24692
840.879	24285
841.016	24319
841.153	24372
841.29	24642
841.427	24338
841.564	24460
841.701	24578
841.838	24433
841.975	24372
842.112	24281
842.249	24254
842.385	24243
842.522	24433
842.659	24311
842.796	24220
842.933	24216
843.069	24289
843.206	24186
843.343	24346
843.479	24365
843.616	24296
843.752	24011
843.889	24091
844.025	24049
844.162	23935
844.298	24194
844.435	24026
844.571	24034
844.708	23946
844.844	24251
844.98	24152
845.117	24216
845.253	24057
845.389	23863
845.525	23882
845.661	23741
845.798	23783
845.934	23840
846.07	23828
846.206	23707
846.342	23923
846.478	23741
846.614	23608
846.75	23402
846.886	23471
847.022	23554
847.158	23573
847.294	23554
847.429	23589
847.565	23429
847.701	23710
847.837	23159
847.972	22991
848.108	23299
848.244	23315
848.379	23048
848.515	22968
848.65	23079
848.786	23117
848.921	23064
849.057	23212
849.192	23155
849.328	23071
849.463	22976
849.598	22991
849.734	22892
849.869	22995
850.004	22812
850.14	22877
850.275	22900
850.41	22896
850.545	22820
850.68	22889
850.815	22850
850.95	22801
851.085	22972
851.22	22869
851.355	22828
851.49	22740
851.625	22858
851.76	22873
851.895	22816
852.03	22778
852.165	22881
852.299	22862
852.434	22889
852.569	22949
852.703	22801
852.838	22877
852.973	22949
853.107	22919
853.242	22691
853.376	22637
853.511	22523
853.645	22615
853.78	22900
853.914	22645
854.048	22656
854.183	22641
854.317	22649
854.451	22793
854.585	22702
854.72	22668
854.854	22729
854.988	22637
855.122	22653
855.256	22500
855.39	22675
855.524	22759
855.658	22691
855.792	22664
855.926	22630
856.06	22717
856.194	22717
856.327	22618
856.461	22634
856.595	22637
856.729	22527
856.862	22733
856.996	22713
857.13	22672
857.263	22672
857.397	22694
857.53	22641
857.664	22752
857.797	22626
857.931	22778
858.064	22603
858.197	22850
858.331	22584
858.464	22645
858.597	22550
858.731	22782
858.864	22588
858.997	22523
859.13	22656
859.263	22656
859.396	22733
859.529	22649
859.662	22672
859.795	22596
859.928	22717
860.061	22725
860.194	22752
860.327	22645
860.46	22630
860.592	22774
860.725	22790
860.858	22740
860.99	22626
861.123	22573
861.256	22588
861.388	22626
861.521	23433
861.653	22531
861.786	22390
861.918	22451
862.05	22474
862.183	22588
862.315	22687
862.447	22630
862.58	22561
862.712	22379
862.844	22474
862.976	22474
863.108	22360
863.24	22816
863.372	22299
863.504	22322
863.636	22318
863.768	22325
863.9	22356
864.032	22291
864.164	22314
864.296	22299
864.428	22443
864.559	22424
864.691	22459
864.823	22249
864.954	22303
865.086	22310
865.217	22265
865.349	22272
865.48	22325
865.612	22284
865.743	22333
865.875	22314
866.006	22204
866.137	22082
866.269	22109
866.4	22200
866.531	22090
866.662	22086
866.793	22181
866.924	22158
867.055	22284
867.186	22215
867.317	22116
867.448	22006
867.579	22101
867.71	22063
867.841	22169
867.972	22207
868.103	22192
868.233	22109
868.364	22143
868.495	22291
868.625	22325
868.756	22508
868.886	22310
869.017	22238
869.147	22470
869.278	22508
869.408	22413
869.539	22367
869.669	22417
869.799	22436
869.929	22512
870.06	22474
870.19	22725
870.32	22733
870.45	22694
870.58	22805
870.71	22885
870.84	22911
870.97	22774
871.1	22740
871.23	22953
871.36	23014
871.489	22877
871.619	22881
871.749	22995
871.879	23037
872.008	23113
872.138	23014
872.267	23033
872.397	22934
872.526	22725
872.656	22805
872.785	22889
872.915	22942
873.044	23098
873.173	23086
873.303	23159
873.432	23094
873.561	23181
873.69	23056
873.819	23075
873.948	23041
874.077	23022
874.206	22949
874.335	22961
874.464	23197
874.593	23189
874.722	23162
874.851	23311
874.979	23250
875.108	23318
875.237	23239
875.365	23079
875.494	23254
875.623	23376
875.751	23193
875.88	23296
876.008	23372
876.136	23452
876.265	23570
876.393	23813
876.521	23653
876.65	23843
876.778	23710
876.906	23600
877.034	23490
877.162	23493
877.29	23364
877.418	23543
877.546	23752
877.674	23535
877.802	23539
877.93	23543
878.058	23497
878.185	23452
878.313	23577
878.441	23524
878.568	23444
878.696	23516
878.824	23665
878.951	23817
879.079	23638
879.206	23775
879.333	23878
879.461	23623
879.588	23809
879.715	23775
879.842	23733
879.97	23718
880.097	23421
880.224	23269
880.351	23433
880.478	23383
880.605	23410
880.732	23372
880.859	23615
880.986	23448
881.112	23444
881.239	23269
881.366	23056
881.493	23056
881.619	22953
881.746	23044
881.872	22934
881.999	23010
882.125	22866
882.252	22961
882.378	23003
882.505	23098
882.631	22771
882.757	22668
882.883	22725
883.01	22679
883.136	22569
883.262	22538
883.388	22538
883.514	22599
883.64	22664
883.766	22573
883.892	22409
884.018	22382
884.143	22752
884.269	22683
884.395	22360
884.52	22226
884.646	22371
884.772	22249
884.897	22120
885.023	22310
885.148	22341
885.274	22314
885.399	22306
885.524	22230
885.65	22306
885.775	22215
885.9	22185
886.025	22337
886.15	22360
886.275	22238
886.4	22291
886.525	22226
886.65	22162
886.775	22211
886.9	22226
887.025	22409
887.149	22284
887.274	22120
887.399	22143
887.523	21941
887.648	21991
887.773	21816
887.897	22158
888.021	22101
888.146	21907
888.27	22097
888.395	21979
888.519	22067
888.643	22010
888.767	22105
888.891	21941
889.015	21800
889.139	21800
889.263	21804
889.387	21895
889.511	21907
889.635	21880
889.759	21800
889.883	21743
890.006	21842
890.13	21956
890.254	21732
890.377	21694
890.501	21549
890.624	21606
890.748	21561
890.871	21336
890.995	21313
891.118	21291
891.241	21291
891.364	21469
891.488	21439
891.611	21374
891.734	21332
891.857	21504
891.98	21363
892.103	21298
892.226	21370
892.349	21332
892.471	21142
892.594	21268
892.717	21249
892.839	21245
892.962	21272
893.085	21195
893.207	21241
893.33	21138
893.452	21043
893.575	21249
893.697	21275
893.819	21256
893.941	21412
894.064	21374
894.186	21222
894.308	21142
894.43	21268
894.552	21488
894.674	21268
894.796	21173
894.918	21176
895.04	21077
895.161	21332
895.283	21233
895.405	21112
895.526	21142
895.648	21207
895.769	21180
895.891	21252
896.012	21393
896.134	21188
896.255	21283
896.376	21207
896.498	21096
896.619	21146
896.74	21096
896.861	21188
896.982	21473
897.103	21705
897.224	21542
897.345	21416
897.466	21424
897.587	21412
897.708	21485
897.828	21469
897.949	21412
898.07	21192
898.19	21272
898.311	21507
898.431	21310
898.552	21439
898.672	21401
898.792	21420
898.913	21382
899.033	21325
899.153	21264
899.273	20979
899.393	21161
899.513	21131
899.633	21058
899.753	21150
899.873	21055
899.993	21161
900.113	21138
900.232	21108
900.352	21047
900.472	20925
900.591	20906
900.711	20914
900.83	20861
900.95	20990
901.069	21058
901.189	20720
901.308	20488
901.427	20454
901.546	20549
901.665	20461
901.784	20324
901.904	20358
902.023	20233
902.141	20084
902.26	20073
902.379	20005
902.498	19947
902.617	20012
902.735	20016
902.854	19864
902.973	19833
903.091	19677
903.21	19578
903.328	19571
903.446	19693
903.565	19358
903.683	19384
903.801	19365
903.919	19438
904.038	19415
904.156	19236
904.274	19183
904.392	19175
904.51	19259
904.627	19244
904.745	19194
904.863	19080
904.981	18966
905.098	18859
905.216	18852
905.334	18916
905.451	18829
905.569	18817
905.686	18833
905.803	18776
905.921	18620
906.038	18719
906.155	18627
906.272	18521
906.389	18559
906.506	18372
906.623	18369
906.74	18410
906.857	18296
906.974	18216
907.091	18426
907.208	18460
907.324	18350
907.441	18403
907.557	18155
907.674	18060
907.79	17969
907.907	18007
908.023	18144
908.139	18007
908.256	18079
908.372	18133
908.488	17935
908.604	17817
908.72	17748
908.836	17786
908.952	17672
909.068	17798
909.184	17912
909.3	17783
909.415	17783
909.531	17851
909.647	17440
909.762	17467
909.878	17417
909.993	17471
910.108	17452
910.224	17429
910.339	17467
910.454	17303
910.57	17147
910.685	17307
910.8	17406
910.915	17353
911.03	17258
911.145	17151
911.259	17037
911.374	16987
911.489	17071
911.604	16908
911.718	16942
911.833	16908
911.947	16672
912.062	16679
912.176	16843
912.291	16691
912.405	16889
912.519	16968
912.633	16938
912.748	16759
912.862	16767
912.976	16668
913.09	16535
913.204	16611
913.318	16694
913.431	16698
913.545	16649
913.659	16759
913.772	16546
913.886	16386
914	16447
914.113	16508
914.226	16451
914.34	16409
914.453	16325
914.566	16447
914.68	16265
914.793	16356
914.906	16074
915.019	15937
915.132	15812
915.245	15983
915.358	15994
915.47	15934
915.583	15937
915.696	16013
915.809	16120
915.921	16078
916.034	15861
916.146	15793
916.259	15873
916.371	15907
916.483	15949
916.595	15762
916.708	15781
916.82	15861
916.932	15717
917.044	15663
917.156	15720
917.268	15549
917.38	15519
917.491	15557
917.603	15568
917.715	15701
917.826	15705
917.938	15644
918.049	15469
918.161	15511
918.272	15705
918.384	15671
918.495	15538
918.606	15386
918.717	15207
918.828	15382
918.939	15389
919.05	15207
919.161	15214
919.272	15108
919.383	15272
919.494	15332
919.604	15477
919.715	15336
919.826	15306
919.936	15283
920.047	15336
920.157	15245
920.267	15473
920.378	15226
920.488	15287
920.598	15401
920.708	15492
920.818	15466
920.928	15469
921.038	15500
921.148	15549
921.258	15169
921.368	15138
921.477	14960
921.587	15001
921.697	14777
921.806	15017
921.916	14838
922.025	14716
922.134	14590
922.244	14587
922.353	14663
922.462	14480
922.571	14404
922.68	14377
922.789	14301
922.898	14301
923.007	14320
923.116	14298
923.224	14244
923.333	14157
923.442	14092
923.55	14077
923.659	14123
923.767	14183
923.876	14043
923.984	14130
924.092	14058
924.201	13986
924.309	14058
924.417	13989
924.525	13902
924.633	13906
924.741	14636
924.849	13712
924.956	13803
925.064	13681
925.172	13620
925.279	13590
925.387	13594
925.494	13597
925.602	13822
925.709	13662
925.816	13525
925.924	13525
926.031	13708
926.138	13582
926.245	13647
926.352	13476
926.459	13597
926.566	13578
926.673	13594
926.779	13381
926.886	13362
926.993	13209
927.099	13263
927.206	13133
927.312	13103
927.419	13297
927.525	13145
927.631	13255
927.737	13076
927.843	12958
927.95	12890
928.056	12871
928.162	13053
928.267	13000
928.373	13712
928.479	13046
928.585	12829
928.69	13038
928.796	12977
928.901	12852
929.007	12719
929.112	12840
929.218	12764
929.323	12757
929.428	12791
929.533	12821
929.638	12574
929.743	12627
929.848	12681
929.953	12688
930.058	12525
930.163	12365
930.267	12433
930.372	12540
930.477	12342
930.581	12521
930.685	12410
930.79	12277
930.894	12285
930.998	12178
931.103	12350
931.207	11923
931.311	11935
931.415	11832
931.519	11611
931.623	11589
