Data from test_V78500241_3636.txt Node
Date: Fri Mar 25 16:06:59 CST 2022
User: usil
Spectrometer: V785-0024
Trigger mode: 0
Integration Time (sec): 4.000000E-1
Scans to average: 1
Nonlinearity correction enabled: false
Boxcar width: 0
Storing dark spectrum: false
XAxis mode: Wavelengths
Number of Pixels in Spectrum: 1024
>>>>>Begin Spectral Data<<<<<
801.071	27332
801.214	27348
801.356	27089
801.499	27119
801.641	26895
801.783	26906
801.926	26914
802.068	26792
802.211	26868
802.353	26800
802.496	26609
802.638	26594
802.78	26511
802.923	26473
803.065	26362
803.208	26492
803.35	26484
803.492	26644
803.635	26754
803.777	26609
803.919	26617
804.061	27077
804.204	26686
804.346	26693
804.488	26537
804.63	26716
804.773	26644
804.915	26739
805.057	26815
805.199	26594
805.341	26773
805.483	26807
805.626	26887
805.768	26667
805.91	26743
806.052	26739
806.194	26674
806.336	26883
806.478	26880
806.62	26845
806.762	26956
806.904	27074
807.046	27275
807.188	27355
807.33	27283
807.472	27260
807.614	27199
807.756	27116
807.898	27039
808.04	27017
808.182	27127
808.324	27146
808.465	27173
808.607	27336
808.749	27332
808.891	27496
809.033	27641
809.174	27450
809.316	27603
809.458	27454
809.6	27298
809.741	27515
809.883	27572
810.025	27751
810.166	27732
810.308	27739
810.45	27675
810.591	27625
810.733	27519
810.875	27481
811.016	27485
811.158	27405
811.299	27523
811.441	27504
811.582	27431
811.724	27439
811.865	27412
812.007	27397
812.148	27408
812.29	27481
812.431	27610
812.573	27884
812.714	27838
812.855	27854
812.997	27964
813.138	28120
813.279	28036
813.421	28021
813.562	27804
813.703	27739
813.845	27629
813.986	27427
814.127	27233
814.268	27055
814.41	27085
814.551	27157
814.692	27131
814.833	26979
814.974	27017
815.115	27013
815.256	26998
815.397	27070
815.539	26853
815.68	26864
815.821	26880
815.962	26975
816.103	26811
816.244	26914
816.385	26659
816.526	26644
816.666	26541
816.807	26351
816.948	26457
817.089	26453
817.23	26412
817.371	26450
817.512	26298
817.653	26332
817.793	26282
817.934	26453
818.075	26324
818.216	26408
818.356	26358
818.497	26267
818.638	26126
818.778	26107
818.919	26142
819.06	26229
819.2	26168
819.341	26286
819.481	26374
819.622	26461
819.762	26648
819.903	26571
820.043	26541
820.184	26480
820.324	26412
820.465	26549
820.605	26598
820.746	26450
820.886	26286
821.026	26453
821.167	26495
821.307	26431
821.447	26408
821.588	26240
821.728	26145
821.868	26115
822.008	25799
822.149	25712
822.289	25731
822.429	25635
822.569	25491
822.709	25628
822.849	25320
822.99	25232
823.13	25293
823.27	25110
823.41	25091
823.55	25069
823.69	25076
823.83	25122
823.97	25156
824.11	25031
824.25	24924
824.389	25019
824.529	25050
824.669	24943
824.809	25069
824.949	25008
825.089	25008
825.228	25057
825.368	24726
825.508	24757
825.648	24688
825.787	24810
825.927	24890
826.067	24821
826.206	24833
826.346	25019
826.485	24901
826.625	24776
826.765	24935
826.904	24867
827.044	24494
827.183	24623
827.323	24570
827.462	24555
827.601	24673
827.741	24452
827.88	24582
828.02	24361
828.159	24445
828.298	24597
828.437	24559
828.577	24563
828.716	24601
828.855	24357
828.994	24300
829.134	24235
829.273	24330
829.412	24098
829.551	24205
829.69	24258
829.829	24292
829.968	24388
830.107	24323
830.246	24251
830.385	24194
830.524	24057
830.663	23984
830.802	24018
830.941	23783
831.08	23817
831.219	23965
831.357	23813
831.496	24106
831.635	23722
831.774	23794
831.913	23726
832.051	23668
832.19	23634
832.329	23589
832.467	23543
832.606	23524
832.744	23410
832.883	23604
833.022	23486
833.16	23505
833.299	23474
833.437	23528
833.576	23691
833.714	23649
833.852	23570
833.991	23577
834.129	23596
834.267	23642
834.406	23539
834.544	23638
834.682	23627
834.821	23501
834.959	23942
835.097	23516
835.235	23547
835.373	23524
835.511	23512
835.65	23436
835.788	23334
835.926	23356
836.064	23189
836.202	23239
836.34	23452
836.478	23448
836.615	23212
836.753	23391
836.891	23414
837.029	23497
837.167	23303
837.305	23391
837.443	23353
837.58	23242
837.718	23356
837.856	23315
837.993	23174
838.131	23250
838.269	23113
838.406	23189
838.544	23048
838.681	22869
838.819	22881
838.956	22797
839.094	22774
839.231	22763
839.369	22824
839.506	22987
839.643	22980
839.781	22782
839.918	22672
840.055	22691
840.193	22675
840.33	22672
840.467	22710
840.604	22649
840.742	22938
840.879	22577
841.016	22626
841.153	22546
841.29	22843
841.427	22698
841.564	22618
841.701	22504
841.838	22569
841.975	22481
842.112	22596
842.249	22481
842.385	22417
842.522	22535
842.659	22459
842.796	22276
842.933	22493
843.069	22310
843.206	22325
843.343	22451
843.479	22421
843.616	22421
843.752	22181
843.889	22139
844.025	22295
844.162	22181
844.298	22303
844.435	22150
844.571	22093
844.708	22143
844.844	22246
844.98	22375
845.117	22322
845.253	22131
845.389	22002
845.525	22070
845.661	22135
845.798	21937
845.934	22036
846.07	21968
846.206	21968
846.342	22063
846.478	21850
846.614	21739
846.75	21564
846.886	21580
847.022	21789
847.158	21705
847.294	21660
847.429	21732
847.565	21561
847.701	21865
847.837	21374
847.972	21485
848.108	21485
848.244	21393
848.379	21260
848.515	21283
848.65	21173
848.786	21188
848.921	21310
849.057	21344
849.192	21344
849.328	21214
849.463	21256
849.598	21256
849.734	21245
849.869	21032
850.004	20994
850.14	21116
850.275	21013
850.41	20933
850.545	20887
850.68	21001
850.815	21123
850.95	21017
851.085	21207
851.22	21112
851.355	20998
851.49	21013
851.625	20937
851.76	20998
851.895	20891
852.03	20914
852.165	20975
852.299	20921
852.434	21055
852.569	21070
852.703	21119
852.838	21089
852.973	21085
853.107	21077
853.242	20998
853.376	20853
853.511	20811
853.645	20788
853.78	20952
853.914	20883
854.048	20750
854.183	20963
854.317	20853
854.451	21013
854.585	20842
854.72	20804
854.854	20918
854.988	20883
855.122	20880
855.256	20682
855.39	20857
855.524	20899
855.658	20823
855.792	20815
855.926	20918
856.06	20956
856.194	20967
856.327	20750
856.461	20891
856.595	20876
856.729	20864
856.862	20929
856.996	20864
857.13	20876
857.263	20834
857.397	20883
857.53	20830
857.664	20773
857.797	20960
857.931	20906
858.064	20899
858.197	20785
858.331	20830
858.464	20880
858.597	20674
858.731	20792
858.864	20773
858.997	20746
859.13	20868
859.263	20853
859.396	20933
859.529	20750
859.662	20800
859.795	20834
859.928	20781
860.061	20998
860.194	21028
860.327	20929
860.46	20872
860.592	20982
860.725	21051
860.858	20979
860.99	20834
861.123	20811
861.256	20689
861.388	20868
861.521	21576
861.653	20754
861.786	20621
861.918	20644
862.05	20629
862.183	20750
862.315	20868
862.447	20861
862.58	20765
862.712	20556
862.844	20598
862.976	20659
863.108	20663
863.24	21024
863.372	20446
863.504	20476
863.636	20640
863.768	20590
863.9	20750
864.032	20492
864.164	20511
864.296	20514
864.428	20750
864.559	20598
864.691	20564
864.823	20609
864.954	20495
865.086	20602
865.217	20404
865.349	20419
865.48	20438
865.612	20469
865.743	20629
865.875	20450
866.006	20431
866.137	20465
866.269	20461
866.4	20298
866.531	20374
866.662	20374
866.793	20393
866.924	20541
867.055	20442
867.186	20484
867.317	20385
867.448	20275
867.579	20313
867.71	20324
867.841	20286
867.972	20511
868.103	20389
868.233	20374
868.364	20431
868.495	20530
868.625	20560
868.756	20773
868.886	20606
869.017	20594
869.147	20667
869.278	20823
869.408	20602
869.539	20609
869.669	20762
869.799	20708
869.929	20899
870.06	20701
870.19	20891
870.32	20891
870.45	21184
870.58	21051
870.71	21112
870.84	21089
870.97	21070
871.1	21119
871.23	21268
871.36	21157
871.489	21161
871.619	21192
871.749	21226
871.879	21245
872.008	21397
872.138	21249
872.267	21348
872.397	21192
872.526	21077
872.656	21127
872.785	21104
872.915	21344
873.044	21351
873.173	21283
873.303	21317
873.432	21355
873.561	21340
873.69	21344
873.819	21279
873.948	21367
874.077	21214
874.206	21260
874.335	21370
874.464	21272
874.593	21496
874.722	21428
874.851	21583
874.979	21610
875.108	21564
875.237	21515
875.365	21420
875.494	21519
875.623	21682
875.751	21500
875.88	21595
876.008	21637
876.136	21614
876.265	21869
876.393	22032
876.521	21816
876.65	21975
876.778	22055
876.906	21827
877.034	21804
877.162	21835
877.29	21759
877.418	21880
877.546	21915
877.674	22021
877.802	21857
877.93	21857
878.058	21751
878.185	21804
878.313	21804
878.441	21892
878.568	21759
878.696	21831
878.824	21816
878.951	21926
879.079	22040
879.206	22185
879.333	22204
879.461	21865
879.588	22025
879.715	22093
879.842	22215
879.97	21968
880.097	21778
880.224	21671
880.351	21819
880.478	21732
880.605	21629
880.732	21717
880.859	21983
880.986	21686
881.112	21717
881.239	21618
881.366	21492
881.493	21313
881.619	21268
881.746	21272
881.872	21272
881.999	21393
882.125	21279
882.252	21340
882.378	21275
882.505	21466
882.631	21188
882.757	21028
882.883	21184
883.01	21036
883.136	20952
883.262	21020
883.388	20872
883.514	20986
883.64	21028
883.766	20956
883.892	20750
884.018	20849
884.143	20952
884.269	21051
884.395	20686
884.52	20648
884.646	20579
884.772	20530
884.897	20609
885.023	20758
885.148	20754
885.274	20769
885.399	20826
885.524	20606
885.65	20682
885.775	20648
885.9	20659
886.025	20705
886.15	20724
886.275	20549
886.4	20473
886.525	20602
886.65	20587
886.775	20617
886.9	20754
887.025	20967
887.149	20541
887.274	20446
887.399	20454
887.523	20355
887.648	20347
887.773	20351
887.897	20621
888.021	20454
888.146	20328
888.27	20571
888.395	20514
888.519	20560
888.643	20336
888.767	20423
888.891	20366
889.015	20271
889.139	20275
889.263	20229
889.387	20332
889.511	20431
889.635	20332
889.759	20191
889.883	20218
890.006	20199
890.13	20393
890.254	20084
890.377	20145
890.501	19978
890.624	19921
890.748	20122
890.871	19982
890.995	19879
891.118	19727
891.241	19845
891.364	19860
891.488	19871
891.611	19883
891.734	19826
891.857	19791
891.98	19761
892.103	19894
892.226	19864
892.349	19822
892.471	19651
892.594	19609
892.717	19632
892.839	19689
892.962	19738
893.085	19803
893.207	19719
893.33	19575
893.452	19765
893.575	19635
893.697	19670
893.819	19811
893.941	19993
894.064	19772
894.186	19727
894.308	19605
894.43	19738
894.552	19875
894.674	19803
894.796	19708
894.918	19719
895.04	19605
895.161	19849
895.283	19818
895.405	19704
895.526	19704
895.648	19833
895.769	19723
895.891	19807
896.012	19731
896.134	19731
896.255	19811
896.376	19674
896.498	19700
896.619	19655
896.74	19879
896.861	19742
896.982	20046
897.103	20107
897.224	20081
897.345	20024
897.466	19974
897.587	20020
897.708	20050
897.828	20008
897.949	19906
898.07	19731
898.19	19944
898.311	20103
898.431	19814
898.552	19913
898.672	19986
898.792	20092
898.913	20069
899.033	19879
899.153	19757
899.273	19571
899.393	19643
899.513	19567
899.633	19719
899.753	19803
899.873	19670
899.993	19750
900.113	19685
900.232	19719
900.352	19605
900.472	19628
900.591	19449
900.711	19548
900.83	19464
900.95	19601
901.069	19540
901.189	19441
901.308	19183
901.427	19175
901.546	19107
901.665	19175
901.784	19137
901.904	18962
902.023	18966
902.141	18700
902.26	18642
902.379	18726
902.498	18623
902.617	18604
902.735	18525
902.854	18658
902.973	18498
903.091	18323
903.21	18266
903.328	18258
903.446	18213
903.565	18083
903.683	18079
903.801	17939
903.919	18083
904.038	18110
904.156	17832
904.274	17950
904.392	17863
904.51	17851
904.627	17954
904.745	17859
904.863	17950
904.981	17687
905.098	17547
905.216	17501
905.334	17668
905.451	17493
905.569	17547
905.686	17581
905.803	17417
905.921	17311
906.038	17372
906.155	17376
906.272	17296
906.389	17181
906.506	17025
906.623	16987
906.74	17094
906.857	17098
906.974	17006
907.091	17140
907.208	17174
907.324	17079
907.441	16957
907.557	16828
907.674	16717
907.79	16816
907.907	16759
908.023	16843
908.139	16782
908.256	16618
908.372	16694
908.488	16809
908.604	16653
908.72	16443
908.836	16413
908.952	16428
909.068	16459
909.184	16584
909.3	16523
909.415	16546
909.531	16489
909.647	16287
909.762	16219
909.878	16181
909.993	16223
910.108	16181
910.224	16234
910.339	16154
910.454	16150
910.57	16032
910.685	16017
910.8	16268
910.915	16162
911.03	16044
911.145	15804
911.259	15842
911.374	15854
911.489	15690
911.604	15614
911.718	15625
911.833	15580
911.947	15500
912.062	15393
912.176	15485
912.291	15606
912.405	15553
912.519	15709
912.633	15797
912.748	15561
912.862	15526
912.976	15424
913.09	15359
913.204	15382
913.318	15416
913.431	15462
913.545	15500
913.659	15401
913.772	15329
913.886	15241
914	15161
914.113	15302
914.226	15279
914.34	15310
914.453	15100
914.566	15192
914.68	15093
914.793	15093
914.906	14868
915.019	14849
915.132	14727
915.245	14804
915.358	14754
915.47	14743
915.583	14811
915.696	14849
915.809	14986
915.921	15001
916.034	14826
916.146	14720
916.259	14697
916.371	14765
916.483	14815
916.595	14655
916.708	14689
916.82	14651
916.932	14621
917.044	14613
917.156	14530
917.268	14514
917.38	14579
917.491	14488
917.603	14446
917.715	14587
917.826	14590
917.938	14442
918.049	14347
918.161	14495
918.272	14575
918.384	14568
918.495	14423
918.606	14267
918.717	14187
918.828	14199
918.939	14244
919.05	14187
919.161	14252
919.272	13974
919.383	14123
919.494	14278
919.604	14473
919.715	14191
919.826	14107
919.936	14168
920.047	14275
920.157	14218
920.267	14408
920.378	14240
920.488	14134
920.598	14328
920.708	14511
920.818	14259
920.928	14343
921.038	14552
921.148	14408
921.258	14115
921.368	14202
921.477	13997
921.587	13967
921.697	13849
921.806	13978
921.916	13822
922.025	13666
922.134	13693
922.244	13567
922.353	13639
922.462	13525
922.571	13441
922.68	13282
922.789	13339
922.898	13266
923.007	13099
923.116	13278
923.224	13247
923.333	13198
923.442	13179
923.55	13129
923.659	13171
923.767	13221
923.876	12993
923.984	13095
924.092	12958
924.201	13034
924.309	12996
924.417	12996
924.525	12859
924.633	12962
924.741	13822
924.849	12795
924.956	12802
925.064	12707
925.172	12601
925.279	12559
925.387	12738
925.494	12688
925.602	12810
925.709	12795
925.816	12555
925.924	12662
926.031	12677
926.138	12741
926.245	12711
926.352	12540
926.459	12642
926.566	12639
926.673	12517
926.779	12460
926.886	12445
926.993	12300
927.099	12289
927.206	12205
927.312	12178
927.419	12300
927.525	12289
927.631	12376
927.737	12133
927.843	12136
927.95	12030
928.056	12129
928.162	12114
928.267	12068
928.373	12757
928.479	12144
928.585	11988
928.69	12102
928.796	12091
928.901	11977
929.007	11828
929.112	11878
929.218	11847
929.323	11790
929.428	11756
929.533	11931
929.638	11779
929.743	11752
929.848	11824
929.953	11821
930.058	11703
930.163	11417
930.267	11539
930.372	11695
930.477	11482
930.581	11604
930.685	11634
930.79	11417
930.894	11398
930.998	11383
931.103	11554
931.207	11147
931.311	11117
931.415	10976
931.519	10839
931.623	10797
