Data from test_V78500241_669.txt Node
Date: Fri Mar 25 15:46:26 CST 2022
User: usil
Spectrometer: V785-0024
Trigger mode: 0
Integration Time (sec): 4.000000E-1
Scans to average: 1
Nonlinearity correction enabled: false
Boxcar width: 0
Storing dark spectrum: false
XAxis mode: Wavelengths
Number of Pixels in Spectrum: 1024
>>>>>Begin Spectral Data<<<<<
801.071	27561
801.214	27496
801.356	27074
801.499	27123
801.641	27009
801.783	26975
801.926	27032
802.068	27001
802.211	26895
802.353	26811
802.496	26712
802.638	26579
802.78	26796
802.923	26541
803.065	26686
803.208	26594
803.35	26697
803.492	26659
803.635	26842
803.777	26625
803.919	26830
804.061	27176
804.204	26800
804.346	26785
804.488	26781
804.63	26712
804.773	26667
804.915	26800
805.057	26838
805.199	26758
805.341	26929
805.483	26899
805.626	26876
805.768	26880
805.91	26956
806.052	27047
806.194	26967
806.336	27112
806.478	26937
806.62	26826
806.762	27055
806.904	27272
807.046	27435
807.188	27382
807.33	27359
807.472	27348
807.614	27291
807.756	27161
807.898	27176
808.04	27116
808.182	27085
808.324	27237
808.465	27279
808.607	27469
808.749	27591
808.891	27603
809.033	27751
809.174	27648
809.316	27496
809.458	27519
809.6	27667
809.741	27774
809.883	27759
810.025	27892
810.166	27797
810.308	27785
810.45	27797
810.591	27656
810.733	27698
810.875	27538
811.016	27454
811.158	27507
811.299	27625
811.441	27663
811.582	27679
811.724	27717
811.865	27488
812.007	27633
812.148	27412
812.29	27614
812.431	27690
812.573	27804
812.714	27861
812.855	28147
812.997	28051
813.138	28211
813.279	28185
813.421	28036
813.562	28021
813.703	27922
813.845	27720
813.986	27538
814.127	27298
814.268	27283
814.41	27233
814.551	27165
814.692	27237
814.833	27161
814.974	27214
815.115	27104
815.256	27070
815.397	27157
815.539	27020
815.68	27089
815.821	26967
815.962	26975
816.103	27051
816.244	26845
816.385	26804
816.526	26727
816.666	26644
816.807	26617
816.948	26609
817.089	26731
817.23	26556
817.371	26492
817.512	26518
817.653	26453
817.793	26511
817.934	26621
818.075	26446
818.216	26571
818.356	26389
818.497	26393
818.638	26126
818.778	26183
818.919	26199
819.06	26366
819.2	26358
819.341	26495
819.481	26427
819.622	26667
819.762	26830
819.903	26663
820.043	26716
820.184	26568
820.324	26575
820.465	26697
820.605	26594
820.746	26541
820.886	26347
821.026	26651
821.167	26632
821.307	26556
821.447	26602
821.588	26484
821.728	26301
821.868	26199
822.008	25955
822.149	25966
822.289	26008
822.429	25750
822.569	25582
822.709	25647
822.849	25537
822.99	25495
823.13	25510
823.27	25445
823.41	25335
823.55	25236
823.69	25510
823.83	25362
823.97	25228
824.11	25152
824.25	25141
824.389	25057
824.529	25141
824.669	25141
824.809	25232
824.949	25145
825.089	25217
825.228	25118
825.368	24924
825.508	25027
825.648	25034
825.787	24958
825.927	25084
826.067	24951
826.206	24985
826.346	25099
826.485	24939
826.625	25008
826.765	25091
826.904	25019
827.044	24741
827.183	24840
827.323	24612
827.462	24768
827.601	24753
827.741	24544
827.88	24658
828.02	24642
828.159	24604
828.298	24684
828.437	24719
828.577	24559
828.716	24829
828.855	24616
828.994	24334
829.134	24296
829.273	24399
829.412	24407
829.551	24319
829.69	24471
829.829	24376
829.968	24422
830.107	24555
830.246	24464
830.385	24395
830.524	24209
830.663	24216
830.802	24140
830.941	23984
831.08	24026
831.219	24079
831.357	24022
831.496	24167
831.635	23920
831.774	23927
831.913	24003
832.051	23817
832.19	23733
832.329	23790
832.467	23589
832.606	23767
832.744	23687
832.883	23592
833.022	23531
833.16	23634
833.299	23764
833.437	23710
833.576	23764
833.714	23832
833.852	23714
833.991	23722
834.129	23859
834.267	23687
834.406	23653
834.544	23748
834.682	23604
834.821	23691
834.959	23775
835.097	23619
835.235	23745
835.373	23672
835.511	23581
835.65	23558
835.788	23562
835.926	23425
836.064	23345
836.202	23410
836.34	23558
836.478	23554
836.615	23554
836.753	23509
836.891	23497
837.029	23634
837.167	23573
837.305	23398
837.443	23520
837.58	23463
837.718	23505
837.856	23493
837.993	23391
838.131	23318
838.269	23189
838.406	23318
838.544	23132
838.681	23033
838.819	23022
838.956	22862
839.094	22744
839.231	22911
839.369	22991
839.506	23174
839.643	23060
839.781	22911
839.918	22847
840.055	22847
840.193	22805
840.33	22824
840.467	22805
840.604	22809
840.742	23128
840.879	22615
841.016	22672
841.153	22649
841.29	22843
841.427	22797
841.564	22961
841.701	22816
841.838	22790
841.975	22637
842.112	22637
842.249	22725
842.385	22542
842.522	22694
842.659	22557
842.796	22474
842.933	22573
843.069	22527
843.206	22493
843.343	22615
843.479	22634
843.616	22637
843.752	22295
843.889	22363
844.025	22409
844.162	22196
844.298	22333
844.435	22371
844.571	22280
844.708	22428
844.844	22394
844.98	22554
845.117	22443
845.253	22295
845.389	22261
845.525	22238
845.661	22268
845.798	22169
845.934	22188
846.07	22017
846.206	22093
846.342	22268
846.478	22070
846.614	21838
846.75	21842
846.886	21819
847.022	21869
847.158	21808
847.294	21892
847.429	21861
847.565	21713
847.701	22063
847.837	21618
847.972	21428
848.108	21652
848.244	21675
848.379	21450
848.515	21359
848.65	21454
848.786	21340
848.921	21294
849.057	21466
849.192	21378
849.328	21397
849.463	21348
849.598	21367
849.734	21256
849.869	21294
850.004	21119
850.14	21176
850.275	21321
850.41	21089
850.545	21123
850.68	21074
850.815	21203
850.95	21055
851.085	21382
851.22	21302
851.355	21161
851.49	21157
851.625	21077
851.76	21173
851.895	21047
852.03	21207
852.165	21100
852.299	21226
852.434	21340
852.569	21146
852.703	21081
852.838	21176
852.973	21317
853.107	21382
853.242	21051
853.376	20986
853.511	20937
853.645	20986
853.78	21108
853.914	20971
854.048	20895
854.183	21020
854.317	21017
854.451	21317
854.585	20982
854.72	21001
854.854	21032
854.988	21017
855.122	20986
855.256	20899
855.39	20891
855.524	21039
855.658	21028
855.792	20971
855.926	20895
856.06	20982
856.194	21077
856.327	20982
856.461	20883
856.595	20910
856.729	20880
856.862	21089
856.996	20948
857.13	20956
857.263	21127
857.397	20994
857.53	21005
857.664	20929
857.797	21051
857.931	21043
858.064	21028
858.197	21001
858.331	21020
858.464	20861
858.597	20819
858.731	20941
858.864	20876
858.997	21077
859.13	21013
859.263	20979
859.396	21119
859.529	21093
859.662	20906
859.795	21039
859.928	20887
860.061	21135
860.194	21214
860.327	20956
860.46	21024
860.592	21108
860.725	21055
860.858	21135
860.99	21074
861.123	20872
861.256	20906
861.388	21013
861.521	21580
861.653	20754
861.786	20769
861.918	20883
862.05	20921
862.183	21020
862.315	20929
862.447	20994
862.58	20895
862.712	20686
862.844	20617
862.976	20785
863.108	20697
863.24	20960
863.372	20785
863.504	20609
863.636	20640
863.768	20689
863.9	20674
864.032	20545
864.164	20648
864.296	20724
864.428	20769
864.559	20765
864.691	20777
864.823	20670
864.954	20651
865.086	20629
865.217	20590
865.349	20514
865.48	20518
865.612	20613
865.743	20735
865.875	20629
866.006	20473
866.137	20602
866.269	20552
866.4	20492
866.531	20514
866.662	20488
866.793	20476
866.924	20488
867.055	20629
867.186	20556
867.317	20514
867.448	20374
867.579	20556
867.71	20457
867.841	20419
867.972	20583
868.103	20450
868.233	20579
868.364	20454
868.495	20682
868.625	20883
868.756	20982
868.886	20693
869.017	20800
869.147	20895
869.278	20861
869.408	20750
869.539	20773
869.669	20944
869.799	20842
869.929	20845
870.06	20906
870.19	21039
870.32	21036
870.45	21150
870.58	21112
870.71	21275
870.84	21218
870.97	21157
871.1	21169
871.23	21241
871.36	21393
871.489	21302
871.619	21264
871.749	21260
871.879	21389
872.008	21481
872.138	21401
872.267	21325
872.397	21161
872.526	21256
872.656	21112
872.785	21264
872.915	21408
873.044	21466
873.173	21439
873.303	21466
873.432	21397
873.561	21492
873.69	21405
873.819	21329
873.948	21431
874.077	21382
874.206	21294
874.335	21359
874.464	21580
874.593	21644
874.722	21648
874.851	21671
874.979	21675
875.108	21576
875.237	21553
875.365	21610
875.494	21572
875.623	21713
875.751	21542
875.88	21538
876.008	21701
876.136	21789
876.265	22112
876.393	22226
876.521	22128
876.65	22139
876.778	22040
876.906	21915
877.034	21907
877.162	21808
877.29	21869
877.418	22093
877.546	21979
877.674	21937
877.802	21949
877.93	21983
878.058	21998
878.185	21892
878.313	21972
878.441	21899
878.568	21751
878.696	21838
878.824	21983
878.951	22128
879.079	22131
879.206	22337
879.333	22070
879.461	22055
879.588	22029
879.715	22147
879.842	22257
879.97	22040
880.097	21835
880.224	21709
880.351	21876
880.478	21785
880.605	21739
880.732	21774
880.859	21899
880.986	21785
881.112	21854
881.239	21724
881.366	21485
881.493	21492
881.619	21367
881.746	21428
881.872	21302
881.999	21340
882.125	21310
882.252	21355
882.378	21435
882.505	21302
882.631	21252
882.757	21093
882.883	21252
883.01	21058
883.136	21169
883.262	20952
883.388	20990
883.514	21039
883.64	21135
883.766	20986
883.892	20788
884.018	20902
884.143	21032
884.269	21161
884.395	20781
884.52	20712
884.646	20720
884.772	20606
884.897	20701
885.023	20758
885.148	20754
885.274	20876
885.399	20899
885.524	20606
885.65	20644
885.775	20804
885.9	20769
886.025	20838
886.15	20781
886.275	20659
886.4	20705
886.525	20617
886.65	20705
886.775	20636
886.9	20842
887.025	20982
887.149	20644
887.274	20431
887.399	20473
887.523	20499
887.648	20415
887.773	20332
887.897	20514
888.021	20617
888.146	20431
888.27	20530
888.395	20564
888.519	20568
888.643	20602
888.767	20533
888.891	20488
889.015	20336
889.139	20400
889.263	20328
889.387	20469
889.511	20469
889.635	20556
889.759	20347
889.883	20202
890.006	20408
890.13	20332
890.254	20259
890.377	20176
890.501	20088
890.624	19982
890.748	20119
890.871	20012
890.995	19814
891.118	19780
891.241	19826
891.364	19868
891.488	20016
891.611	19909
891.734	19852
891.857	19925
891.98	19772
892.103	19970
892.226	19940
892.349	19917
892.471	19685
892.594	19803
892.717	19826
892.839	19731
892.962	19807
893.085	19818
893.207	19727
893.33	19700
893.452	19776
893.575	19795
893.697	19693
893.819	19833
893.941	19955
894.064	19845
894.186	19647
894.308	19689
894.43	19822
894.552	19856
894.674	19864
894.796	19689
894.918	19651
895.04	19849
895.161	19822
895.283	19826
895.405	19814
895.526	19822
895.648	19791
895.769	19852
895.891	19811
896.012	19947
896.134	19811
896.255	19791
896.376	19822
896.498	19811
896.619	19833
896.74	19852
896.861	19868
896.982	20202
897.103	20324
897.224	20027
897.345	20130
897.466	19811
897.587	19925
897.708	20122
897.828	20039
897.949	20008
898.07	19883
898.19	19887
898.311	20077
898.431	19917
898.552	20096
898.672	20187
898.792	20138
898.913	20008
899.033	20008
899.153	19890
899.273	19696
899.393	19803
899.513	19765
899.633	19734
899.753	19795
899.873	19719
899.993	19780
900.113	19830
900.232	19693
900.352	19738
900.472	19681
900.591	19575
900.711	19518
900.83	19575
900.95	19586
901.069	19753
901.189	19521
901.308	19278
901.427	19137
901.546	19213
901.665	19278
901.784	19129
901.904	18951
902.023	18920
902.141	18844
902.26	18707
902.379	18753
902.498	18700
902.617	18608
902.735	18696
902.854	18513
902.973	18639
903.091	18334
903.21	18384
903.328	18292
903.446	18159
903.565	18190
903.683	18140
903.801	18064
903.919	18148
904.038	18045
904.156	18038
904.274	18041
904.392	17874
904.51	17748
904.627	17863
904.745	17908
904.863	17999
904.981	17627
905.098	17630
905.216	17493
905.334	17619
905.451	17653
905.569	17539
905.686	17604
905.803	17581
905.921	17398
906.038	17372
906.155	17353
906.272	17242
906.389	17387
906.506	17143
906.623	17136
906.74	17200
906.857	17052
906.974	17060
907.091	17098
907.208	17181
907.324	17113
907.441	17014
907.557	16869
907.674	16797
907.79	16869
907.907	16755
908.023	16858
908.139	16873
908.256	16729
908.372	16729
908.488	16694
908.604	16531
908.72	16535
908.836	16596
908.952	16497
909.068	16622
909.184	16668
909.3	16489
909.415	16607
909.531	16577
909.647	16337
909.762	16394
909.878	16265
909.993	16253
910.108	16379
910.224	16318
910.339	16158
910.454	16188
910.57	16105
910.685	16010
910.8	16185
910.915	16215
911.03	16211
911.145	15880
911.259	15956
911.374	15926
911.489	15865
911.604	15831
911.718	15576
911.833	15595
911.947	15557
912.062	15466
912.176	15564
912.291	15724
912.405	15580
912.519	15850
912.633	15785
912.748	15629
912.862	15713
912.976	15488
913.09	15359
913.204	15401
913.318	15549
913.431	15656
913.545	15500
913.659	15526
913.772	15374
913.886	15222
914	15211
914.113	15264
914.226	15283
914.34	15393
914.453	15180
914.566	15272
914.68	15176
914.793	15146
914.906	14861
915.019	14910
915.132	14785
915.245	14891
915.358	14842
915.47	14849
915.583	14960
915.696	14929
915.809	14918
915.921	15001
916.034	14750
916.146	14750
916.259	14746
916.371	14781
916.483	14800
916.595	14815
916.708	14731
916.82	14701
916.932	14621
917.044	14629
917.156	14670
917.268	14533
917.38	14590
917.491	14575
917.603	14541
917.715	14613
917.826	14693
917.938	14507
918.049	14290
918.161	14434
918.272	14659
918.384	14602
918.495	14476
918.606	14366
918.717	14180
918.828	14343
918.939	14294
919.05	14294
919.161	14164
919.272	14126
919.383	14183
919.494	14294
919.604	14427
919.715	14271
919.826	14210
919.936	14218
920.047	14290
920.157	14355
920.267	14450
920.378	14172
920.488	14275
920.598	14419
920.708	14629
920.818	14355
920.928	14381
921.038	14617
921.148	14454
921.258	14214
921.368	14145
921.477	13928
921.587	13883
921.697	13799
921.806	14027
921.916	13871
922.025	13639
922.134	13731
922.244	13597
922.353	13613
922.462	13556
922.571	13537
922.68	13445
922.789	13304
922.898	13247
923.007	13259
923.116	13289
923.224	13304
923.333	13274
923.442	13118
923.55	13141
923.659	13103
923.767	13232
923.876	13137
923.984	13152
924.092	13008
924.201	13053
924.309	13038
924.417	12989
924.525	12947
924.633	12958
924.741	13837
924.849	12673
924.956	13031
925.064	12760
925.172	12662
925.279	12677
925.387	12772
925.494	12681
925.602	12840
925.709	12810
925.816	12639
925.924	12658
926.031	12673
926.138	12604
926.245	12741
926.352	12642
926.459	12760
926.566	12810
926.673	12681
926.779	12513
926.886	12441
926.993	12418
927.099	12357
927.206	12205
927.312	12277
927.419	12365
927.525	12296
927.631	12334
927.737	12213
927.843	12163
927.95	12057
928.056	12144
928.162	12228
928.267	12175
928.373	12848
928.479	12232
928.585	11988
928.69	12110
928.796	12136
928.901	12106
929.007	11912
929.112	12022
929.218	11916
929.323	11931
929.428	11874
929.533	11973
929.638	11874
929.743	11878
929.848	11843
929.953	11927
930.058	11790
930.163	11627
930.267	11665
930.372	11786
930.477	11611
930.581	11817
930.685	11642
930.79	11501
930.894	11535
930.998	11444
931.103	11627
931.207	11193
931.311	11121
931.415	11064
931.519	10900
931.623	10869
