Data from test_V78500241_2016.txt Node
Date: Fri Mar 25 15:55:46 CST 2022
User: usil
Spectrometer: V785-0024
Trigger mode: 0
Integration Time (sec): 4.000000E-1
Scans to average: 1
Nonlinearity correction enabled: false
Boxcar width: 0
Storing dark spectrum: false
XAxis mode: Wavelengths
Number of Pixels in Spectrum: 1024
>>>>>Begin Spectral Data<<<<<
801.071	28459
801.214	28344
801.356	28238
801.499	28135
801.641	27903
801.783	28090
801.926	27964
802.068	27789
802.211	27914
802.353	27789
802.496	27793
802.638	27587
802.78	27709
802.923	27656
803.065	27515
803.208	27682
803.35	27682
803.492	27728
803.635	27888
803.777	27724
803.919	27846
804.061	28124
804.204	27869
804.346	27755
804.488	27717
804.63	27865
804.773	27945
804.915	27911
805.057	28128
805.199	27930
805.341	27949
805.483	28010
805.626	27983
805.768	27781
805.91	28006
806.052	28055
806.194	27983
806.336	28147
806.478	28048
806.62	28147
806.762	28044
806.904	28200
807.046	28618
807.188	28527
807.33	28660
807.472	28535
807.614	28421
807.756	28417
807.898	28394
808.04	28139
808.182	28375
808.324	28322
808.465	28211
808.607	28584
808.749	28660
808.891	28866
809.033	28896
809.174	28847
809.316	28767
809.458	28679
809.6	28603
809.741	28881
809.883	28862
810.025	28999
810.166	28866
810.308	28991
810.45	29044
810.591	28885
810.733	28786
810.875	28546
811.016	28565
811.158	28512
811.299	28774
811.441	28900
811.582	28934
811.724	28786
811.865	28698
812.007	28664
812.148	28649
812.29	28801
812.431	28915
812.573	29174
812.714	29136
812.855	29227
812.997	29395
813.138	29337
813.279	29166
813.421	29235
813.562	29064
813.703	29083
813.845	28946
813.986	28656
814.127	28451
814.268	28459
814.41	28546
814.551	28489
814.692	28470
814.833	28367
814.974	28459
815.115	28424
815.256	28322
815.397	28173
815.539	28306
815.68	28341
815.821	28105
815.962	28185
816.103	28135
816.244	28074
816.385	28120
816.526	28010
816.666	27823
816.807	27622
816.948	27694
817.089	27698
817.23	27785
817.371	27637
817.512	27751
817.653	27599
817.793	27633
817.934	27728
818.075	27648
818.216	27694
818.356	27591
818.497	27534
818.638	27500
818.778	27389
818.919	27572
819.06	27504
819.2	27633
819.341	27606
819.481	27622
819.622	27835
819.762	28063
819.903	27975
820.043	28010
820.184	27709
820.324	27907
820.465	27835
820.605	28055
820.746	27838
820.886	27713
821.026	27736
821.167	27709
821.307	27934
821.447	27641
821.588	27728
821.728	27386
821.868	27447
822.008	27032
822.149	27180
822.289	27173
822.429	26838
822.569	26861
822.709	26796
822.849	26712
822.99	26708
823.13	26655
823.27	26670
823.41	26636
823.55	26404
823.69	26549
823.83	26446
823.97	26400
824.11	26358
824.25	26343
824.389	26282
824.529	26343
824.669	26355
824.809	26381
824.949	26461
825.089	26377
825.228	26438
825.368	26221
825.508	26138
825.648	26225
825.787	26214
825.927	26218
826.067	26157
826.206	26271
826.346	26142
826.485	26305
826.625	26206
826.765	26301
826.904	26115
827.044	25936
827.183	25879
827.323	25849
827.462	26027
827.601	25890
827.741	25845
827.88	25997
828.02	25807
828.159	25868
828.298	25883
828.437	25871
828.577	25890
828.716	25890
828.855	25902
828.994	25567
829.134	25495
829.273	25670
829.412	25616
829.551	25521
829.69	25693
829.829	25719
829.968	25681
830.107	25727
830.246	25559
830.385	25578
830.524	25453
830.663	25251
830.802	25392
830.941	25175
831.08	25095
831.219	25362
831.357	25168
831.496	25422
831.635	25206
831.774	25088
831.913	24916
832.051	25015
832.19	24966
832.329	25099
832.467	24932
832.606	24798
832.744	24795
832.883	24798
833.022	24753
833.16	24916
833.299	24932
833.437	24817
833.576	24947
833.714	24939
833.852	25023
833.991	25053
834.129	24966
834.267	25050
834.406	24951
834.544	25008
834.682	24973
834.821	24992
834.959	25027
835.097	24848
835.235	24992
835.373	24939
835.511	24977
835.65	24783
835.788	24635
835.926	24776
836.064	24623
836.202	24574
836.34	24798
836.478	24932
836.615	24817
836.753	24760
836.891	24890
837.029	24734
837.167	24707
837.305	24722
837.443	24665
837.58	24505
837.718	24711
837.856	24597
837.993	24642
838.131	24445
838.269	24426
838.406	24521
838.544	24350
838.681	24258
838.819	24216
838.956	24121
839.094	24083
839.231	24087
839.369	24098
839.506	24361
839.643	24350
839.781	24095
839.918	23950
840.055	24087
840.193	23954
840.33	23935
840.467	23980
840.604	24011
840.742	24235
840.879	23908
841.016	23969
841.153	23920
841.29	23969
841.427	23961
841.564	24053
841.701	23904
841.838	23859
841.975	23859
842.112	23790
842.249	23779
842.385	23653
842.522	23961
842.659	23718
842.796	23885
842.933	23767
843.069	23783
843.206	23707
843.343	23745
843.479	23680
843.616	23707
843.752	23482
843.889	23573
844.025	23539
844.162	23452
844.298	23589
844.435	23566
844.571	23315
844.708	23520
844.844	23649
844.98	23649
845.117	23535
845.253	23493
845.389	23303
845.525	23414
845.661	23379
845.798	23200
845.934	23349
846.07	23223
846.206	23231
846.342	23379
846.478	23181
846.614	22987
846.75	22896
846.886	22854
847.022	22976
847.158	23185
847.294	22904
847.429	22938
847.565	22957
847.701	23155
847.837	22710
847.972	22675
848.108	22759
848.244	22835
848.379	22565
848.515	22500
848.65	22596
848.786	22588
848.921	22653
849.057	22550
849.192	22645
849.328	22653
849.463	22565
849.598	22569
849.734	22535
849.869	22363
850.004	22333
850.14	22356
850.275	22394
850.41	22150
850.545	22242
850.68	22341
850.815	22356
850.95	22291
851.085	22542
851.22	22379
851.355	22337
851.49	22310
851.625	22341
851.76	22215
851.895	22287
852.03	22139
852.165	22405
852.299	22333
852.434	22291
852.569	22257
852.703	22325
852.838	22428
852.973	22462
853.107	22455
853.242	22162
853.376	22078
853.511	22109
853.645	22112
853.78	22291
853.914	22204
854.048	22067
854.183	22044
854.317	22253
854.451	22394
854.585	22032
854.72	22177
854.854	22348
854.988	21987
855.122	22143
855.256	22021
855.39	22017
855.524	22124
855.658	22234
855.792	22105
855.926	22139
856.06	22158
856.194	22105
856.327	22105
856.461	21979
856.595	22150
856.729	22131
856.862	22109
856.996	22074
857.13	22147
857.263	22215
857.397	22150
857.53	22124
857.664	22109
857.797	22158
857.931	22261
858.064	22185
858.197	22223
858.331	21991
858.464	22109
858.597	22124
858.731	22101
858.864	21998
858.997	22036
859.13	22139
859.263	22188
859.396	22185
859.529	22059
859.662	22070
859.795	22063
859.928	22226
860.061	22268
860.194	22341
860.327	22200
860.46	22215
860.592	22333
860.725	22261
860.858	22257
860.99	22234
861.123	22055
861.256	22021
861.388	22025
861.521	23006
861.653	22006
861.786	21953
861.918	21994
862.05	22063
862.183	22105
862.315	22109
862.447	22078
862.58	21941
862.712	21816
862.844	21743
862.976	21857
863.108	21895
863.24	22272
863.372	21709
863.504	21732
863.636	21789
863.768	21808
863.9	21930
864.032	21755
864.164	21701
864.296	21823
864.428	21994
864.559	21857
864.691	21915
864.823	21895
864.954	21880
865.086	21762
865.217	21698
865.349	21633
865.48	21759
865.612	21720
865.743	21797
865.875	21648
866.006	21728
866.137	21819
866.269	21751
866.4	21694
866.531	21610
866.662	21652
866.793	21694
866.924	21778
867.055	21648
867.186	21671
867.317	21690
867.448	21526
867.579	21591
867.71	21564
867.841	21511
867.972	21507
868.103	21770
868.233	21705
868.364	21724
868.495	21739
868.625	21835
868.756	21941
868.886	21785
869.017	21793
869.147	21991
869.278	21865
869.408	21751
869.539	22048
869.669	21941
869.799	21960
869.929	22002
870.06	21895
870.19	22120
870.32	22173
870.45	22238
870.58	22299
870.71	22371
870.84	22421
870.97	22204
871.1	22344
871.23	22440
871.36	22485
871.489	22318
871.619	22462
871.749	22512
871.879	22512
872.008	22523
872.138	22428
872.267	22440
872.397	22424
872.526	22249
872.656	22394
872.785	22242
872.915	22497
873.044	22744
873.173	22508
873.303	22527
873.432	22668
873.561	22538
873.69	22546
873.819	22451
873.948	22504
874.077	22538
874.206	22538
874.335	22557
874.464	22535
874.593	22733
874.722	22744
874.851	22763
874.979	22706
875.108	22679
875.237	22519
875.365	22603
875.494	22710
875.623	22824
875.751	22645
875.88	22683
876.008	22790
876.136	22869
876.265	23124
876.393	23277
876.521	23094
876.65	23136
876.778	23044
876.906	23060
877.034	23124
877.162	23025
877.29	23071
877.418	23086
877.546	23181
877.674	23079
877.802	23132
877.93	23018
878.058	22946
878.185	22911
878.313	22995
878.441	23037
878.568	22999
878.696	23102
878.824	23083
878.951	23181
879.079	23090
879.206	23379
879.333	23239
879.461	23162
879.588	23159
879.715	23220
879.842	23372
879.97	23151
880.097	22793
880.224	22824
880.351	22908
880.478	22858
880.605	22877
880.732	22889
880.859	22938
880.986	22854
881.112	22896
881.239	22713
881.366	22497
881.493	22485
881.619	22436
881.746	22398
881.872	22489
881.999	22382
882.125	22432
882.252	22390
882.378	22402
882.505	22538
882.631	22246
882.757	22124
882.883	22200
883.01	22116
883.136	22131
883.262	22017
883.388	22078
883.514	21979
883.64	22177
883.766	22181
883.892	21987
884.018	21907
884.143	22135
884.269	22078
884.395	21823
884.52	21747
884.646	21732
884.772	21667
884.897	21633
885.023	21835
885.148	21823
885.274	21846
885.399	21800
885.524	21747
885.65	21698
885.775	21751
885.9	21694
886.025	21884
886.15	21762
886.275	21686
886.4	21644
886.525	21698
886.65	21633
886.775	21739
886.9	21880
887.025	21949
887.149	21637
887.274	21580
887.399	21530
887.523	21538
887.648	21389
887.773	21447
887.897	21671
888.021	21572
888.146	21530
888.27	21739
888.395	21728
888.519	21591
888.643	21443
888.767	21542
888.891	21367
889.015	21355
889.139	21359
889.263	21336
889.387	21386
889.511	21526
889.635	21466
889.759	21355
889.883	21405
890.006	21351
890.13	21549
890.254	21291
890.377	21374
890.501	21066
890.624	21161
890.748	21188
890.871	21020
890.995	20918
891.118	20720
891.241	20845
891.364	20906
891.488	21055
891.611	20849
891.734	20849
891.857	20921
891.98	20864
892.103	20857
892.226	20937
892.349	20902
892.471	20754
892.594	20769
892.717	20804
892.839	20834
892.962	20773
893.085	20762
893.207	20906
893.33	20708
893.452	20617
893.575	20823
893.697	20697
893.819	20914
893.941	20960
894.064	20868
894.186	20625
894.308	20678
894.43	20781
894.552	20826
894.674	20800
894.796	20689
894.918	20659
895.04	20785
895.161	20811
895.283	20796
895.405	20617
895.526	20727
895.648	20697
895.769	20689
895.891	20724
896.012	20785
896.134	20758
896.255	20807
896.376	20823
896.498	20788
896.619	20739
896.74	20769
896.861	20735
896.982	21013
897.103	21127
897.224	21077
897.345	20960
897.466	20792
897.587	20918
897.708	21028
897.828	20948
897.949	20963
898.07	20868
898.19	20834
898.311	21081
898.431	20868
898.552	20971
898.672	21051
898.792	21013
898.913	21017
899.033	20796
899.153	20823
899.273	20682
899.393	20682
899.513	20731
899.633	20739
899.753	20689
899.873	20655
899.993	20686
900.113	20579
900.232	20735
900.352	20594
900.472	20499
900.591	20545
900.711	20404
900.83	20499
900.95	20686
901.069	20522
901.189	20317
901.308	20111
901.427	20001
901.546	20046
901.665	20084
901.784	20077
901.904	19959
902.023	19947
902.141	19655
902.26	19563
902.379	19746
902.498	19594
902.617	19457
902.735	19480
902.854	19510
902.973	19381
903.091	19266
903.21	19247
903.328	19171
903.446	19129
903.565	18878
903.683	19031
903.801	18970
903.919	18867
904.038	18939
904.156	18795
904.274	18783
904.392	18810
904.51	18764
904.627	18776
904.745	18821
904.863	18753
904.981	18601
905.098	18464
905.216	18456
905.334	18448
905.451	18483
905.569	18410
905.686	18540
905.803	18441
905.921	18254
906.038	18353
906.155	18311
906.272	18213
906.389	18171
906.506	17935
906.623	17996
906.74	18102
906.857	17779
906.974	17832
907.091	18022
907.208	18106
907.324	17958
907.441	17931
907.557	17767
907.674	17729
907.79	17600
907.907	17646
908.023	17619
908.139	17726
908.256	17668
908.372	17573
908.488	17592
908.604	17448
908.72	17353
908.836	17417
908.952	17372
909.068	17459
909.184	17547
909.3	17318
909.415	17452
909.531	17349
909.647	17258
909.762	17128
909.878	17067
909.993	17166
910.108	17060
910.224	16987
910.339	16980
910.454	16911
910.57	16877
910.685	16820
910.8	17204
910.915	17083
911.03	16873
911.145	16733
911.259	16615
911.374	16660
911.489	16691
911.604	16462
911.718	16459
911.833	16500
911.947	16474
912.062	16303
912.176	16413
912.291	16527
912.405	16436
912.519	16687
912.633	16580
912.748	16546
912.862	16409
912.976	16242
913.09	16124
913.204	16192
913.318	16261
913.431	16265
913.545	16329
913.659	16314
913.772	16135
913.886	15972
914	16055
914.113	16074
914.226	16029
914.34	16177
914.453	15911
914.566	16090
914.68	15926
914.793	15918
914.906	15641
915.019	15622
915.132	15545
915.245	15622
915.358	15644
915.47	15629
915.583	15625
915.696	15641
915.809	15720
915.921	15770
916.034	15568
916.146	15504
916.259	15507
916.371	15542
916.483	15481
916.595	15408
916.708	15374
916.82	15462
916.932	15401
917.044	15424
917.156	15283
917.268	15184
917.38	15188
917.491	15154
917.603	15294
917.715	15302
917.826	15317
917.938	15176
918.049	15097
918.161	15211
918.272	15329
918.384	15370
918.495	15176
918.606	15066
918.717	14914
918.828	15020
918.939	14918
919.05	14906
919.161	15001
919.272	14785
919.383	14769
919.494	15123
919.604	15180
919.715	14937
919.826	14941
919.936	15001
920.047	15085
920.157	14960
920.267	15135
920.378	15017
920.488	14918
920.598	15009
920.708	15241
920.818	15085
920.928	15093
921.038	15203
921.148	15138
921.258	14937
921.368	14819
921.477	14762
921.587	14663
921.697	14549
921.806	14617
921.916	14541
922.025	14362
922.134	14358
922.244	14229
922.353	14362
922.462	14267
922.571	14157
922.68	14001
922.789	13864
922.898	14050
923.007	13879
923.116	13982
923.224	13959
923.333	14005
923.442	13841
923.55	13772
923.659	13799
923.767	13822
923.876	13780
923.984	13753
924.092	13658
924.201	13704
924.309	13712
924.417	13757
924.525	13514
924.633	13636
924.741	14419
924.849	13445
924.956	13609
925.064	13384
925.172	13324
925.279	13320
925.387	13354
925.494	13396
925.602	13491
925.709	13396
925.816	13240
925.924	13377
926.031	13362
926.138	13304
926.245	13274
926.352	13225
926.459	13327
926.566	13392
926.673	13297
926.779	13103
926.886	13088
926.993	12943
927.099	12913
927.206	12760
927.312	12852
927.419	12954
927.525	12909
927.631	12856
927.737	12882
927.843	12779
927.95	12696
928.056	12734
928.162	12738
928.267	12783
928.373	13407
928.479	12859
928.585	12589
928.69	12688
928.796	12684
928.901	12650
929.007	12464
929.112	12559
929.218	12563
929.323	12544
929.428	12422
929.533	12593
929.638	12308
929.743	12437
929.848	12437
929.953	12380
930.058	12300
930.163	12220
930.267	12068
930.372	12194
930.477	12178
930.581	12334
930.685	12140
930.79	12041
930.894	12079
930.998	11992
931.103	12022
931.207	11665
931.311	11722
931.415	11516
931.519	11307
931.623	11379
