Data from test_V78500241_89.txt Node
Date: Fri Mar 25 15:42:25 CST 2022
User: usil
Spectrometer: V785-0024
Trigger mode: 0
Integration Time (sec): 4.000000E-1
Scans to average: 1
Nonlinearity correction enabled: false
Boxcar width: 0
Storing dark spectrum: false
XAxis mode: Wavelengths
Number of Pixels in Spectrum: 1024
>>>>>Begin Spectral Data<<<<<
801.071	30026
801.214	29977
801.356	29859
801.499	29573
801.641	29520
801.783	29551
801.926	29786
802.068	29566
802.211	29395
802.353	29330
802.496	29277
802.638	29227
802.78	29086
802.923	29044
803.065	29003
803.208	29170
803.35	29132
803.492	29212
803.635	29406
803.777	29208
803.919	29292
804.061	29524
804.204	29417
804.346	29220
804.488	29235
804.63	29280
804.773	29048
804.915	29265
805.057	29360
805.199	29181
805.341	29258
805.483	29406
805.626	29337
805.768	29315
805.91	29398
806.052	29417
806.194	29315
806.336	29638
806.478	29433
806.62	29307
806.762	29558
806.904	29471
807.046	29897
807.188	29813
807.33	29718
807.472	29840
807.614	29790
807.756	29646
807.898	29592
808.04	29543
808.182	29577
808.324	29615
808.465	29611
808.607	29798
808.749	29874
808.891	30022
809.033	30167
809.174	30041
809.316	30030
809.458	29935
809.6	29866
809.741	29992
809.883	29889
810.025	30228
810.166	30110
810.308	30174
810.45	30072
810.591	30072
810.733	29805
810.875	29893
811.016	29809
811.158	29805
811.299	30129
811.441	30117
811.582	30072
811.724	29999
811.865	29802
812.007	29798
812.148	29946
812.29	29821
812.431	30140
812.573	30144
812.714	30296
812.855	30296
812.997	30456
813.138	30711
813.279	30418
813.421	30315
813.562	30281
813.703	30068
813.845	29996
813.986	29748
814.127	29570
814.268	29535
814.41	29539
814.551	29505
814.692	29619
814.833	29478
814.974	29493
815.115	29353
815.256	29368
815.397	29311
815.539	29375
815.68	29277
815.821	29064
815.962	29193
816.103	29284
816.244	29132
816.385	29064
816.526	28923
816.666	28748
816.807	28573
816.948	28831
817.089	28702
817.23	28725
817.371	28622
817.512	28599
817.653	28538
817.793	28538
817.934	28573
818.075	28512
818.216	28649
818.356	28573
818.497	28348
818.638	28249
818.778	28356
818.919	28344
819.06	28379
819.2	28557
819.341	28500
819.481	28538
819.622	28736
819.762	28828
819.903	28801
820.043	28626
820.184	28645
820.324	28554
820.465	28630
820.605	28622
820.746	28645
820.886	28379
821.026	28489
821.167	28481
821.307	28523
821.447	28523
821.588	28367
821.728	28291
821.868	28010
822.008	27850
822.149	27911
822.289	27873
822.429	27739
822.569	27667
822.709	27443
822.849	27523
822.99	27260
823.13	27306
823.27	27416
823.41	26975
823.55	27024
823.69	27211
823.83	27070
823.97	27074
824.11	26914
824.25	26929
824.389	27028
824.529	27066
824.669	26963
824.809	27089
824.949	26990
825.089	26967
825.228	26937
825.368	26929
825.508	26743
825.648	26849
825.787	26743
825.927	26979
826.067	26689
826.206	26845
826.346	26750
826.485	26819
826.625	26731
826.765	26838
826.904	26754
827.044	26579
827.183	26636
827.323	26450
827.462	26362
827.601	26434
827.741	26366
827.88	26400
828.02	26305
828.159	26317
828.298	26427
828.437	26415
828.577	26374
828.716	26396
828.855	26252
828.994	26126
829.134	26119
829.273	26164
829.412	26100
829.551	26088
829.69	26077
829.829	26081
829.968	26001
830.107	26069
830.246	26046
830.385	25936
830.524	25833
830.663	25913
830.802	25795
830.941	25556
831.08	25544
831.219	25662
831.357	25757
831.496	25772
831.635	25586
831.774	25609
831.913	25392
832.051	25285
832.19	25251
832.329	25415
832.467	25160
832.606	25217
832.744	25156
832.883	25293
833.022	25088
833.16	25187
833.299	25293
833.437	25156
833.576	25301
833.714	25259
833.852	25255
833.991	25183
834.129	25339
834.267	25259
834.406	25263
834.544	25297
834.682	25274
834.821	25148
834.959	25346
835.097	25293
835.235	25217
835.373	25095
835.511	25114
835.65	25008
835.788	25095
835.926	24909
836.064	24856
836.202	24856
836.34	24897
836.478	24935
836.615	24913
836.753	24928
836.891	25069
837.029	24977
837.167	24905
837.305	24817
837.443	24764
837.58	24829
837.718	24996
837.856	24859
837.993	24719
838.131	24764
838.269	24608
838.406	24745
838.544	24601
838.681	24418
838.819	24365
838.956	24247
839.094	24243
839.231	24235
839.369	24289
839.506	24639
839.643	24574
839.781	24281
839.918	24159
840.055	24155
840.193	24213
840.33	24072
840.467	24235
840.604	24136
840.742	24334
840.879	23878
841.016	23843
841.153	23961
841.29	24110
841.427	24083
841.564	24072
841.701	24178
841.838	23992
841.975	23965
842.112	24041
842.249	23942
842.385	23775
842.522	24045
842.659	23805
842.796	23745
842.933	23775
843.069	23608
843.206	23642
843.343	23737
843.479	23676
843.616	23767
843.752	23535
843.889	23509
844.025	23695
844.162	23444
844.298	23539
844.435	23448
844.571	23349
844.708	23414
844.844	23676
844.98	23509
845.117	23577
845.253	23471
845.389	23288
845.525	23402
845.661	23322
845.798	23189
845.934	23265
846.07	23121
846.206	23121
846.342	23406
846.478	23132
846.614	22816
846.75	22881
846.886	22850
847.022	23048
847.158	22957
847.294	22858
847.429	23010
847.565	22862
847.701	23109
847.837	22702
847.972	22451
848.108	22637
848.244	22569
848.379	22402
848.515	22512
848.65	22451
848.786	22466
848.921	22493
849.057	22546
849.192	22561
849.328	22500
849.463	22478
849.598	22280
849.734	22322
849.869	22219
850.004	22246
850.14	22253
850.275	22207
850.41	22040
850.545	22025
850.68	22169
850.815	22219
850.95	22162
851.085	22249
851.22	22238
851.355	22166
851.49	22139
851.625	22139
851.76	21975
851.895	21998
852.03	21979
852.165	22090
852.299	22287
852.434	22074
852.569	22223
852.703	22010
852.838	22196
852.973	22147
853.107	22230
853.242	22093
853.376	21876
853.511	21819
853.645	21964
853.78	22040
853.914	21968
854.048	21907
854.183	21956
854.317	21941
854.451	21956
854.585	21941
854.72	21895
854.854	21953
854.988	21873
855.122	21972
855.256	21892
855.39	21785
855.524	21895
855.658	21987
855.792	21922
855.926	21930
856.06	22010
856.194	22032
856.327	21892
856.461	21907
856.595	21922
856.729	21998
856.862	22032
856.996	21918
857.13	21972
857.263	22025
857.397	22010
857.53	21895
857.664	21964
857.797	21979
857.931	22017
858.064	21911
858.197	22017
858.331	21808
858.464	21842
858.597	21747
858.731	21835
858.864	21770
858.997	21926
859.13	21869
859.263	21899
859.396	21991
859.529	21903
859.662	21781
859.795	21774
859.928	21789
860.061	22021
860.194	22017
860.327	21903
860.46	21861
860.592	21850
860.725	21983
860.858	21911
860.99	21903
861.123	21751
861.256	21762
861.388	21812
861.521	22485
861.653	21679
861.786	21812
861.918	21759
862.05	21804
862.183	21823
862.315	21911
862.447	21918
862.58	21903
862.712	21713
862.844	21709
862.976	21724
863.108	21713
863.24	21983
863.372	21504
863.504	21568
863.636	21637
863.768	21660
863.9	21348
864.032	21450
864.164	21538
864.296	21583
864.428	21641
864.559	21553
864.691	21572
864.823	21580
864.954	21496
865.086	21530
865.217	21504
865.349	21367
865.48	21553
865.612	21443
865.743	21599
865.875	21469
866.006	21393
866.137	21435
866.269	21496
866.4	21370
866.531	21386
866.662	21408
866.793	21302
866.924	21351
867.055	21389
867.186	21275
867.317	21329
867.448	21275
867.579	21256
867.71	21241
867.841	21256
867.972	21336
868.103	21268
868.233	21397
868.364	21237
868.495	21401
868.625	21515
868.756	21667
868.886	21443
869.017	21622
869.147	21770
869.278	21644
869.408	21625
869.539	21466
869.669	21762
869.799	21656
869.929	21603
870.06	21667
870.19	21994
870.32	21857
870.45	21949
870.58	21953
870.71	22105
870.84	22067
870.97	22036
871.1	22006
871.23	22040
871.36	22109
871.489	22059
871.619	22192
871.749	22154
871.879	22242
872.008	22177
872.138	22162
872.267	22090
872.397	21994
872.526	21960
872.656	21983
872.785	22002
872.915	22306
873.044	22291
873.173	22226
873.303	22280
873.432	22246
873.561	22306
873.69	22276
873.819	22101
873.948	22139
874.077	22246
874.206	22090
874.335	22162
874.464	22356
874.593	22409
874.722	22371
874.851	22531
874.979	22398
875.108	22542
875.237	22394
875.365	22367
875.494	22268
875.623	22478
875.751	22238
875.88	22379
876.008	22554
876.136	22493
876.265	22733
876.393	22896
876.521	22896
876.65	22801
876.778	22721
876.906	22717
877.034	22812
877.162	22809
877.29	22713
877.418	22752
877.546	22717
877.674	22847
877.802	22771
877.93	22805
878.058	22744
878.185	22622
878.313	22793
878.441	22771
878.568	22512
878.696	22736
878.824	22782
878.951	22850
879.079	22972
879.206	23067
879.333	22934
879.461	22771
879.588	22854
879.715	22885
879.842	23208
879.97	22740
880.097	22634
880.224	22561
880.351	22561
880.478	22596
880.605	22466
880.732	22542
880.859	22862
880.986	22653
881.112	22493
881.239	22424
881.366	22318
881.493	22219
881.619	22219
881.746	22158
881.872	22139
881.999	22082
882.125	22078
882.252	22105
882.378	22093
882.505	22367
882.631	21968
882.757	21930
882.883	22082
883.01	21876
883.136	21884
883.262	21770
883.388	21831
883.514	21880
883.64	22002
883.766	21823
883.892	21637
884.018	21675
884.143	21926
884.269	21888
884.395	21679
884.52	21386
884.646	21625
884.772	21431
884.897	21424
885.023	21625
885.148	21667
885.274	21629
885.399	21545
885.524	21485
885.65	21515
885.775	21450
885.9	21435
886.025	21485
886.15	21553
886.275	21386
886.4	21412
886.525	21496
886.65	21443
886.775	21340
886.9	21633
887.025	21603
887.149	21351
887.274	21291
887.399	21161
887.523	21302
887.648	21211
887.773	21195
887.897	21268
888.021	21268
888.146	21169
888.27	21245
888.395	21218
888.519	21291
888.643	21043
888.767	21211
888.891	21055
889.015	21043
889.139	21062
889.263	21070
889.387	21089
889.511	21302
889.635	21055
889.759	20899
889.883	20998
890.006	21043
890.13	21017
890.254	20952
890.377	20883
890.501	20758
890.624	20682
890.748	20765
890.871	20720
890.995	20480
891.118	20590
891.241	20598
891.364	20469
891.488	20659
891.611	20530
891.734	20488
891.857	20594
891.98	20526
892.103	20552
892.226	20609
892.349	20530
892.471	20275
892.594	20457
892.717	20461
892.839	20533
892.962	20537
893.085	20602
893.207	20461
893.33	20423
893.452	20374
893.575	20579
893.697	20503
893.819	20514
893.941	20670
894.064	20621
894.186	20499
894.308	20332
894.43	20609
894.552	20617
894.674	20590
894.796	20400
894.918	20446
895.04	20393
895.161	20575
895.283	20431
895.405	20400
895.526	20499
895.648	20438
895.769	20575
895.891	20404
896.012	20583
896.134	20446
896.255	20503
896.376	20492
896.498	20530
896.619	20667
896.74	20579
896.861	20556
896.982	20815
897.103	20998
897.224	20876
897.345	20769
897.466	20644
897.587	20598
897.708	20826
897.828	20811
897.949	20765
898.07	20575
898.19	20511
898.311	20754
898.431	20571
898.552	20621
898.672	20781
898.792	20651
898.913	20689
899.033	20522
899.153	20461
899.273	20275
899.393	20324
899.513	20389
899.633	20495
899.753	20366
899.873	20393
899.993	20366
900.113	20252
900.232	20347
900.352	20221
900.472	20115
900.591	20138
900.711	20244
900.83	20058
900.95	20271
901.069	20294
901.189	20069
901.308	19928
901.427	19780
901.546	19803
901.665	19807
901.784	19731
901.904	19655
902.023	19491
902.141	19362
902.26	19190
902.379	19312
902.498	19278
902.617	19168
902.735	19270
902.854	19107
902.973	19065
903.091	18783
903.21	18886
903.328	18916
903.446	18798
903.565	18707
903.683	18650
903.801	18570
903.919	18661
904.038	18646
904.156	18384
904.274	18525
904.392	18479
904.51	18467
904.627	18426
904.745	18441
904.863	18483
904.981	18270
905.098	18034
905.216	18072
905.334	18068
905.451	18155
905.569	18060
905.686	18019
905.803	18163
905.921	17882
906.038	17984
906.155	17935
906.272	17851
906.389	17847
906.506	17604
906.623	17551
906.74	17623
906.857	17505
906.974	17467
907.091	17783
907.208	17672
907.324	17562
907.441	17490
907.557	17311
907.674	17307
907.79	17227
907.907	17311
908.023	17277
908.139	17280
908.256	17197
908.372	17193
908.488	17105
908.604	16972
908.72	16949
908.836	17003
908.952	16873
909.068	17060
909.184	16911
909.3	16866
909.415	16923
909.531	16824
909.647	16706
909.762	16717
909.878	16713
909.993	16683
910.108	16615
910.224	16592
910.339	16550
910.454	16516
910.57	16451
910.685	16360
910.8	16653
910.915	16702
911.03	16440
911.145	16169
911.259	16234
911.374	16226
911.489	16230
911.604	16093
911.718	15953
911.833	15979
911.947	15895
912.062	15854
912.176	16063
912.291	16048
912.405	15956
912.519	16147
912.633	16128
912.748	15865
912.862	15842
912.976	15869
913.09	15713
913.204	15656
913.318	15720
913.431	15793
913.545	15949
913.659	15899
913.772	15713
913.886	15606
914	15515
914.113	15644
914.226	15724
914.34	15713
914.453	15507
914.566	15656
914.68	15443
914.793	15351
914.906	15230
915.019	15180
915.132	15154
915.245	15085
915.358	15241
915.47	15226
915.583	15233
915.696	15287
915.809	15272
915.921	15268
916.034	15131
916.146	15097
916.259	15055
916.371	15154
916.483	15192
916.595	15051
916.708	15077
916.82	14960
916.932	14929
917.044	14979
917.156	14937
917.268	14830
917.38	14842
917.491	14883
917.603	14948
917.715	14849
917.826	14914
917.938	14823
918.049	14686
918.161	14724
918.272	14982
918.384	14914
918.495	14777
918.606	14571
918.717	14522
918.828	14568
918.939	14583
919.05	14404
919.161	14533
919.272	14317
919.383	14271
919.494	14518
919.604	14724
919.715	14545
919.826	14393
919.936	14503
920.047	14594
920.157	14560
920.267	14636
920.378	14514
920.488	14465
920.598	14602
920.708	14739
920.818	14575
920.928	14541
921.038	14792
921.148	14758
921.258	14450
921.368	14351
921.477	14336
921.587	14267
921.697	14035
921.806	14294
921.916	14084
922.025	13807
922.134	13894
922.244	13811
922.353	13967
922.462	13696
922.571	13636
922.68	13525
922.789	13499
922.898	13582
923.007	13403
923.116	13464
923.224	13487
923.333	13464
923.442	13346
923.55	13255
923.659	13381
923.767	13316
923.876	13247
923.984	13365
924.092	13179
924.201	13145
924.309	13244
924.417	13278
924.525	13137
924.633	13149
924.741	13864
924.849	12924
924.956	13156
925.064	12951
925.172	12817
925.279	12871
925.387	12833
925.494	12856
925.602	12951
925.709	12989
925.816	12802
925.924	12783
926.031	12996
926.138	12840
926.245	12878
926.352	12768
926.459	12817
926.566	12913
926.673	12722
926.779	12707
926.886	12692
926.993	12490
927.099	12517
927.206	12441
927.312	12452
927.419	12502
927.525	12513
927.631	12486
927.737	12384
927.843	12338
927.95	12220
928.056	12243
928.162	12251
928.267	12338
928.373	12993
928.479	12475
928.585	12152
928.69	12205
928.796	12270
928.901	12110
929.007	11996
929.112	12163
929.218	12030
929.323	12083
929.428	12034
929.533	12136
929.638	11999
929.743	11992
929.848	12053
929.953	11931
930.058	11912
930.163	11783
930.267	11676
930.372	11817
930.477	11657
930.581	11859
930.685	11741
930.79	11577
930.894	11596
930.998	11554
931.103	11695
931.207	11269
931.311	11208
931.415	11132
931.519	10953
931.623	10847
