Data from test_V78500241_2779.txt Node
Date: Fri Mar 25 16:01:03 CST 2022
User: usil
Spectrometer: V785-0024
Trigger mode: 0
Integration Time (sec): 4.000000E-1
Scans to average: 1
Nonlinearity correction enabled: false
Boxcar width: 0
Storing dark spectrum: false
XAxis mode: Wavelengths
Number of Pixels in Spectrum: 1024
>>>>>Begin Spectral Data<<<<<
801.071	29132
801.214	29006
801.356	28839
801.499	28934
801.641	28805
801.783	28843
801.926	28862
802.068	28748
802.211	28698
802.353	28588
802.496	28561
802.638	28413
802.78	28375
802.923	28386
803.065	28337
803.208	28337
803.35	28557
803.492	28493
803.635	28672
803.777	28694
803.919	28767
804.061	29117
804.204	28702
804.346	28702
804.488	28698
804.63	28721
804.773	28664
804.915	28873
805.057	28839
805.199	28759
805.341	28892
805.483	28752
805.626	28949
805.768	28771
805.91	29014
806.052	29094
806.194	28873
806.336	29010
806.478	28957
806.62	29014
806.762	29159
806.904	29121
807.046	29547
807.188	29406
807.33	29337
807.472	29478
807.614	29239
807.756	29459
807.898	29250
808.04	29212
808.182	29113
808.324	29284
808.465	29269
808.607	29421
808.749	29661
808.891	29684
809.033	29684
809.174	29547
809.316	29505
809.458	29573
809.6	29497
809.741	29642
809.883	29718
810.025	29878
810.166	29935
810.308	29870
810.45	29828
810.591	29687
810.733	29634
810.875	29592
811.016	29672
811.158	29486
811.299	29798
811.441	29878
811.582	29745
811.724	29767
811.865	29630
812.007	29691
812.148	29638
812.29	29733
812.431	29843
812.573	30011
812.714	29999
812.855	30011
812.997	30334
813.138	30475
813.279	30228
813.421	30098
813.562	30098
813.703	29840
813.845	29912
813.986	29619
814.127	29505
814.268	29528
814.41	29463
814.551	29318
814.692	29444
814.833	29337
814.974	29307
815.115	29307
815.256	29288
815.397	29189
815.539	29315
815.68	29220
815.821	29197
815.962	29208
816.103	29284
816.244	29014
816.385	28965
816.526	29086
816.666	28755
816.807	28672
816.948	28679
817.089	28911
817.23	28729
817.371	28698
817.512	28656
817.653	28634
817.793	28607
817.934	28668
818.075	28717
818.216	28588
818.356	28561
818.497	28481
818.638	28405
818.778	28436
818.919	28409
819.06	28607
819.2	28599
819.341	28744
819.481	28782
819.622	28854
819.762	28961
819.903	29003
820.043	28972
820.184	28854
820.324	28877
820.465	28946
820.605	28881
820.746	28668
820.886	28607
821.026	28801
821.167	28755
821.307	28900
821.447	28809
821.588	28656
821.728	28519
821.868	28329
822.008	28265
822.149	28135
822.289	28253
822.429	27964
822.569	27914
822.709	27861
822.849	27610
822.99	27698
823.13	27785
823.27	27713
823.41	27549
823.55	27291
823.69	27603
823.83	27469
823.97	27481
824.11	27435
824.25	27340
824.389	27298
824.529	27439
824.669	27405
824.809	27374
824.949	27458
825.089	27416
825.228	27408
825.368	27157
825.508	27047
825.648	27302
825.787	27355
825.927	27275
826.067	27195
826.206	27302
826.346	27237
826.485	27199
826.625	27188
826.765	27283
826.904	27245
827.044	27077
827.183	27085
827.323	26967
827.462	27142
827.601	27074
827.741	26960
827.88	26960
828.02	26883
828.159	26982
828.298	27009
828.437	27005
828.577	26785
828.716	26963
828.855	26853
828.994	26545
829.134	26758
829.273	26731
829.412	26530
829.551	26568
829.69	26697
829.829	26594
829.968	26708
830.107	26716
830.246	26587
830.385	26629
830.524	26655
830.663	26537
830.802	26488
830.941	26332
831.08	26183
831.219	26256
831.357	26256
831.496	26438
831.635	26271
831.774	26039
831.913	26081
832.051	26062
832.19	26020
832.329	26012
832.467	26024
832.606	25894
832.744	25811
832.883	25925
833.022	25856
833.16	25913
833.299	25989
833.437	25932
833.576	26001
833.714	25989
833.852	26111
833.991	25997
834.129	26153
834.267	26062
834.406	25780
834.544	25894
834.682	26008
834.821	25986
834.959	26065
835.097	25947
835.235	26111
835.373	25966
835.511	25947
835.65	25928
835.788	25860
835.926	25765
836.064	25700
836.202	25597
836.34	25814
836.478	25890
836.615	25818
836.753	25837
836.891	25894
837.029	25864
837.167	25704
837.305	25655
837.443	25639
837.58	25658
837.718	25689
837.856	25616
837.993	25575
838.131	25548
838.269	25544
838.406	25487
838.544	25605
838.681	25266
838.819	25339
838.956	25164
839.094	25015
839.231	25175
839.369	25251
839.506	25464
839.643	25270
839.781	24996
839.918	25145
840.055	25091
840.193	25202
840.33	25065
840.467	24981
840.604	25148
840.742	25164
840.879	24924
841.016	25038
841.153	24825
841.29	25061
841.427	24992
841.564	24985
841.701	25069
841.838	24966
841.975	25000
842.112	24852
842.249	24783
842.385	24665
842.522	24859
842.659	24802
842.796	24760
842.933	24734
843.069	24654
843.206	24753
843.343	24730
843.479	24741
843.616	24757
843.752	24623
843.889	24456
844.025	24669
844.162	24429
844.298	24707
844.435	24555
844.571	24544
844.708	24464
844.844	24639
844.98	24620
845.117	24547
845.253	24563
845.389	24433
845.525	24536
845.661	24289
845.798	24270
845.934	24289
846.07	24201
846.206	24372
846.342	24342
846.478	24266
846.614	24034
846.75	23908
846.886	23912
847.022	24015
847.158	24045
847.294	23973
847.429	24007
847.565	24015
847.701	24148
847.837	23718
847.972	23630
848.108	23779
848.244	23752
848.379	23570
848.515	23490
848.65	23440
848.786	23684
848.921	23547
849.057	23551
849.192	23710
849.328	23630
849.463	23512
849.598	23562
849.734	23493
849.869	23349
850.004	23178
850.14	23414
850.275	23315
850.41	23356
850.545	23124
850.68	23360
850.815	23383
850.95	23433
851.085	23558
851.22	23516
851.355	23303
851.49	23360
851.625	23345
851.76	23425
851.895	23296
852.03	23170
852.165	23368
852.299	23395
852.434	23398
852.569	23383
852.703	23356
852.838	23364
852.973	23524
853.107	23303
853.242	23193
853.376	23235
853.511	23037
853.645	23060
853.78	23330
853.914	23102
854.048	22980
854.183	23170
854.317	23060
854.451	23322
854.585	23204
854.72	23178
854.854	23147
854.988	22980
855.122	23208
855.256	22999
855.39	23178
855.524	23208
855.658	23170
855.792	23204
855.926	23197
856.06	23136
856.194	23250
856.327	23094
856.461	23071
856.595	23075
856.729	23197
856.862	23246
856.996	23204
857.13	23090
857.263	23303
857.397	23121
857.53	23117
857.664	23086
857.797	23136
857.931	23250
858.064	23220
858.197	23250
858.331	23056
858.464	23018
858.597	22980
858.731	23064
858.864	23071
858.997	23064
859.13	23216
859.263	23105
859.396	23258
859.529	23025
859.662	23147
859.795	22984
859.928	23208
860.061	23235
860.194	23337
860.327	23200
860.46	23109
860.592	23242
860.725	23261
860.858	23223
860.99	23151
861.123	23048
861.256	23128
861.388	23121
861.521	23950
861.653	23071
861.786	22885
861.918	23014
862.05	22904
862.183	23052
862.315	23003
862.447	23121
862.58	23044
862.712	22816
862.844	22744
862.976	22911
863.108	22919
863.24	23311
863.372	22748
863.504	22797
863.636	22790
863.768	22873
863.9	22793
864.032	22672
864.164	22774
864.296	22904
864.428	22923
864.559	22953
864.691	22824
864.823	22934
864.954	22793
865.086	22786
865.217	22675
865.349	22554
865.48	22706
865.612	22596
865.743	22771
865.875	22797
866.006	22641
866.137	22824
866.269	22645
866.4	22717
866.531	22740
866.662	22637
866.793	22679
866.924	22725
867.055	22687
867.186	22607
867.317	22694
867.448	22664
867.579	22691
867.71	22546
867.841	22500
867.972	22721
868.103	22649
868.233	22637
868.364	22626
868.495	22740
868.625	22915
868.756	22892
868.886	22991
869.017	22782
869.147	22900
869.278	23022
869.408	22862
869.539	23018
869.669	23006
869.799	22892
869.929	23041
870.06	22984
870.19	23235
870.32	23174
870.45	23204
870.58	23288
870.71	23436
870.84	23174
870.97	23360
871.1	23398
871.23	23516
871.36	23448
871.489	23364
871.619	23391
871.749	23581
871.879	23463
872.008	23535
872.138	23543
872.267	23509
872.397	23493
872.526	23368
872.656	23200
872.785	23311
872.915	23608
873.044	23596
873.173	23524
873.303	23684
873.432	23573
873.561	23634
873.69	23585
873.819	23459
873.948	23703
874.077	23600
874.206	23467
874.335	23558
874.464	23596
874.593	23863
874.722	23684
874.851	23695
874.979	23733
875.108	23779
875.237	23699
875.365	23570
875.494	23707
875.623	23748
875.751	23600
875.88	23790
876.008	23794
876.136	23863
876.265	24117
876.393	24243
876.521	24098
876.65	24201
876.778	24182
876.906	24110
877.034	23999
877.162	24117
877.29	23939
877.418	23931
877.546	24144
877.674	24007
877.802	24076
877.93	24068
878.058	24011
878.185	24022
878.313	24045
878.441	23992
878.568	23992
878.696	24076
878.824	24136
878.951	24155
879.079	24182
879.206	24369
879.333	24095
879.461	24186
879.588	24136
879.715	24277
879.842	24182
879.97	24038
880.097	23809
880.224	23851
880.351	23904
880.478	23893
880.605	23779
880.732	23950
880.859	24018
880.986	23809
881.112	23870
881.239	23638
881.366	23551
881.493	23486
881.619	23364
881.746	23589
881.872	23383
881.999	23349
882.125	23261
882.252	23452
882.378	23417
882.505	23535
882.631	23265
882.757	23143
882.883	23048
883.01	23025
883.136	22987
883.262	22892
883.388	22900
883.514	23109
883.64	23079
883.766	22984
883.892	22869
884.018	22828
884.143	22934
884.269	22984
884.395	22809
884.52	22740
884.646	22759
884.772	22687
884.897	22653
885.023	22782
885.148	22588
885.274	22801
885.399	22820
885.524	22706
885.65	22793
885.775	22812
885.9	22713
886.025	22824
886.15	22679
886.275	22752
886.4	22736
886.525	22687
886.65	22523
886.775	22710
886.9	22748
887.025	22889
887.149	22656
887.274	22462
887.399	22481
887.523	22561
887.648	22363
887.773	22478
887.897	22546
888.021	22500
888.146	22478
888.27	22622
888.395	22580
888.519	22493
888.643	22474
888.767	22470
888.891	22386
889.015	22310
889.139	22261
889.263	22253
889.387	22325
889.511	22443
889.635	22394
889.759	22211
889.883	22188
890.006	22211
890.13	22344
890.254	22299
890.377	22154
890.501	21835
890.624	21983
890.748	22032
890.871	21907
890.995	21701
891.118	21732
891.241	21816
891.364	21778
891.488	21816
891.611	21842
891.734	21732
891.857	21888
891.98	21842
892.103	21861
892.226	21724
892.349	21682
892.471	21633
892.594	21625
892.717	21724
892.839	21625
892.962	21675
893.085	21755
893.207	21561
893.33	21526
893.452	21526
893.575	21694
893.697	21595
893.819	21831
893.941	21861
894.064	21698
894.186	21694
894.308	21515
894.43	21656
894.552	21694
894.674	21793
894.796	21511
894.918	21595
895.04	21599
895.161	21705
895.283	21603
895.405	21557
895.526	21682
895.648	21587
895.769	21774
895.891	21675
896.012	21698
896.134	21739
896.255	21686
896.376	21675
896.498	21694
896.619	21675
896.74	21679
896.861	21743
896.982	21907
897.103	22029
897.224	21934
897.345	21694
897.466	21774
897.587	21884
897.708	21888
897.828	21827
897.949	21880
898.07	21808
898.19	21622
898.311	21831
898.431	21804
898.552	21884
898.672	21835
898.792	21895
898.913	21876
899.033	21720
899.153	21504
899.273	21488
899.393	21488
899.513	21526
899.633	21599
899.753	21549
899.873	21595
899.993	21523
900.113	21492
900.232	21500
900.352	21507
900.472	21291
900.591	21203
900.711	21348
900.83	21252
900.95	21351
901.069	21325
901.189	21173
901.308	20880
901.427	20800
901.546	20758
901.665	20891
901.784	20845
901.904	20712
902.023	20678
902.141	20457
902.26	20408
902.379	20431
902.498	20370
902.617	20343
902.735	20404
902.854	20298
902.973	20343
903.091	20016
903.21	20046
903.328	20202
903.446	19849
903.565	19807
903.683	19765
903.801	19624
903.919	19811
904.038	19635
904.156	19655
904.274	19594
904.392	19514
904.51	19491
904.627	19563
904.745	19552
904.863	19609
904.981	19384
905.098	19297
905.216	19164
905.334	19228
905.451	19206
905.569	19213
905.686	19308
905.803	19232
905.921	19031
906.038	19099
906.155	18985
906.272	18977
906.389	18939
906.506	18753
906.623	18817
906.74	18715
906.857	18547
906.974	18627
907.091	18840
907.208	18806
907.324	18802
907.441	18711
907.557	18410
907.674	18506
907.79	18464
907.907	18410
908.023	18422
908.139	18471
908.256	18296
908.372	18308
908.488	18388
908.604	18148
908.72	18102
908.836	18159
908.952	18076
909.068	18182
909.184	18243
909.3	18182
909.415	18209
909.531	18114
909.647	17939
909.762	17893
909.878	17836
909.993	17840
910.108	17843
910.224	17729
910.339	17794
910.454	17714
910.57	17680
910.685	17558
910.8	17809
910.915	17817
911.03	17642
911.145	17440
911.259	17444
911.374	17448
911.489	17345
911.604	17337
911.718	17086
911.833	17170
911.947	17045
912.062	17041
912.176	17178
912.291	17216
912.405	17151
912.519	17520
912.633	17353
912.748	17185
912.862	17151
912.976	16980
913.09	16889
913.204	16987
913.318	16991
913.431	17003
913.545	17064
913.659	17124
913.772	16915
913.886	16828
914	16710
914.113	16793
914.226	16713
914.34	16904
914.453	16668
914.566	16656
914.68	16698
914.793	16611
914.906	16402
915.019	16291
915.132	16280
915.245	16367
915.358	16276
915.47	16348
915.583	16150
915.696	16280
915.809	16417
915.921	16382
916.034	16265
916.146	16048
916.259	16246
916.371	16181
916.483	16303
916.595	16078
916.708	16036
916.82	16071
916.932	16120
917.044	16074
917.156	16013
917.268	15930
917.38	15865
917.491	15915
917.603	15903
917.715	15991
917.826	16006
917.938	15850
918.049	15770
918.161	15911
918.272	16002
918.384	15994
918.495	15808
918.606	15728
918.717	15606
918.828	15701
918.939	15720
919.05	15526
919.161	15663
919.272	15416
919.383	15416
919.494	15644
919.604	15835
919.715	15724
919.826	15553
919.936	15515
920.047	15660
920.157	15526
920.267	15739
920.378	15595
920.488	15606
920.598	15694
920.708	15842
920.818	15781
920.928	15770
921.038	15888
921.148	15759
921.258	15500
921.368	15439
921.477	15275
921.587	15233
921.697	15214
921.806	15310
921.916	15157
922.025	15005
922.134	14902
922.244	14895
922.353	15043
922.462	14811
922.571	14765
922.68	14583
922.789	14636
922.898	14587
923.007	14488
923.116	14625
923.224	14556
923.333	14522
923.442	14457
923.55	14385
923.659	14473
923.767	14381
923.876	14313
923.984	14442
924.092	14278
924.201	14263
924.309	14313
924.417	14374
924.525	14149
924.633	14123
924.741	15138
924.849	13871
924.956	14149
925.064	13944
925.172	13898
925.279	13871
925.387	13947
925.494	13868
925.602	14027
925.709	14016
925.816	13841
925.924	13826
926.031	13947
926.138	13860
926.245	13837
926.352	13769
926.459	13883
926.566	13925
926.673	13742
926.779	13689
926.886	13643
926.993	13582
927.099	13468
927.206	13457
927.312	13426
927.419	13358
927.525	13434
927.631	13476
927.737	13278
927.843	13324
927.95	13164
928.056	13221
928.162	13259
928.267	13324
928.373	13890
928.479	13308
928.585	13110
928.69	13251
928.796	13228
928.901	13042
929.007	12935
929.112	13088
929.218	13027
929.323	13019
929.428	12871
929.533	13034
929.638	12840
929.743	12954
929.848	13004
929.953	12856
930.058	12787
930.163	12566
930.267	12570
930.372	12719
930.477	12616
930.581	12798
930.685	12688
930.79	12460
930.894	12464
930.998	12490
931.103	12582
931.207	12292
931.311	12186
931.415	12007
931.519	11931
931.623	11832
