Data from test_V78500241_3437.txt Node
Date: Fri Mar 25 16:05:36 CST 2022
User: usil
Spectrometer: V785-0024
Trigger mode: 0
Integration Time (sec): 4.000000E-1
Scans to average: 1
Nonlinearity correction enabled: false
Boxcar width: 0
Storing dark spectrum: false
XAxis mode: Wavelengths
Number of Pixels in Spectrum: 1024
>>>>>Begin Spectral Data<<<<<
801.071	28908
801.214	28774
801.356	28637
801.499	28557
801.641	28497
801.783	28417
801.926	28538
802.068	28466
802.211	28356
802.353	28386
802.496	28124
802.638	28131
802.78	28128
802.923	28112
803.065	28067
803.208	28097
803.35	28196
803.492	28257
803.635	28386
803.777	28223
803.919	28440
804.061	28679
804.204	28474
804.346	28253
804.488	28375
804.63	28401
804.773	28295
804.915	28413
805.057	28493
805.199	28386
805.341	28451
805.483	28653
805.626	28531
805.768	28508
805.91	28592
806.052	28672
806.194	28447
806.336	28862
806.478	28557
806.62	28691
806.762	28733
806.904	29010
807.046	29159
807.188	29022
807.33	29174
807.472	29227
807.614	28976
807.756	28957
807.898	28782
808.04	28816
808.182	28809
808.324	28915
808.465	28946
808.607	29155
808.749	29353
808.891	29421
809.033	29398
809.174	29254
809.316	29277
809.458	29299
809.6	29311
809.741	29303
809.883	29433
810.025	29551
810.166	29535
810.308	29649
810.45	29501
810.591	29486
810.733	29440
810.875	29296
811.016	29299
811.158	29071
811.299	29269
811.441	29436
811.582	29455
811.724	29269
811.865	29208
812.007	29372
812.148	29421
812.29	29402
812.431	29547
812.573	29779
812.714	29699
812.855	29882
812.997	29969
813.138	30076
813.279	30007
813.421	29760
813.562	29699
813.703	29501
813.845	29627
813.986	29299
814.127	29280
814.268	28965
814.41	28976
814.551	28869
814.692	28987
814.833	28957
814.974	29022
815.115	28965
815.256	28904
815.397	28881
815.539	28854
815.68	28908
815.821	28896
815.962	28820
816.103	28919
816.244	28592
816.385	28702
816.526	28675
816.666	28287
816.807	28329
816.948	28424
817.089	28440
817.23	28440
817.371	28253
817.512	28207
817.653	28280
817.793	28329
817.934	28470
818.075	28440
818.216	28390
818.356	28223
818.497	28223
818.638	28101
818.778	28010
818.919	28124
819.06	28105
819.2	28257
819.341	28299
819.481	28436
819.622	28557
819.762	28637
819.903	28786
820.043	28535
820.184	28489
820.324	28481
820.465	28470
820.605	28455
820.746	28417
820.886	28299
821.026	28367
821.167	28546
821.307	28622
821.447	28375
821.588	28341
821.728	28215
821.868	27991
822.008	27899
822.149	27895
822.289	27717
822.429	27564
822.569	27523
822.709	27443
822.849	27408
822.99	27386
823.13	27245
823.27	27321
823.41	27165
823.55	26979
823.69	27355
823.83	27256
823.97	27195
824.11	26918
824.25	26944
824.389	26933
824.529	26944
824.669	27001
824.809	27096
824.949	27047
825.089	27116
825.228	26982
825.368	26826
825.508	26754
825.648	26849
825.787	26937
825.927	26963
826.067	26830
826.206	26834
826.346	26796
826.485	26975
826.625	26899
826.765	26990
826.904	26872
827.044	26720
827.183	26648
827.323	26514
827.462	26724
827.601	26621
827.741	26579
827.88	26689
828.02	26526
828.159	26667
828.298	26788
828.437	26674
828.577	26499
828.716	26579
828.855	26511
828.994	26339
829.134	26282
829.273	26244
829.412	26134
829.551	26199
829.69	26225
829.829	26298
829.968	26290
830.107	26366
830.246	26221
830.385	26218
830.524	26126
830.663	26062
830.802	25997
830.941	25879
831.08	25795
831.219	25940
831.357	25906
831.496	26081
831.635	25970
831.774	25616
831.913	25753
832.051	25738
832.19	25685
832.329	25632
832.467	25620
832.606	25647
832.744	25571
832.883	25495
833.022	25586
833.16	25658
833.299	25540
833.437	25586
833.576	25563
833.714	25643
833.852	25643
833.991	25605
834.129	25750
834.267	25811
834.406	25609
834.544	25685
834.682	25670
834.821	25658
834.959	25769
835.097	25616
835.235	25738
835.373	25620
835.511	25472
835.65	25487
835.788	25407
835.926	25331
836.064	25301
836.202	25259
836.34	25335
836.478	25506
836.615	25434
836.753	25559
836.891	25479
837.029	25518
837.167	25464
837.305	25392
837.443	25156
837.58	25244
837.718	25377
837.856	25251
837.993	25362
838.131	25240
838.269	25122
838.406	25107
838.544	25000
838.681	24966
838.819	24871
838.956	24692
839.094	24734
839.231	24863
839.369	25034
839.506	25217
839.643	25107
839.781	24798
839.918	24639
840.055	24734
840.193	24661
840.33	24661
840.467	24665
840.604	24726
840.742	24939
840.879	24551
841.016	24578
841.153	24566
841.29	24677
841.427	24681
841.564	24620
841.701	24578
841.838	24631
841.975	24467
842.112	24544
842.249	24372
842.385	24388
842.522	24547
842.659	24399
842.796	24350
842.933	24410
843.069	24311
843.206	24467
843.343	24486
843.479	24391
843.616	24448
843.752	24270
843.889	24121
844.025	24315
844.162	24114
844.298	24311
844.435	24243
844.571	24076
844.708	24129
844.844	24247
844.98	24289
845.117	24258
845.253	24114
845.389	24057
845.525	24079
845.661	23977
845.798	23798
845.934	23920
846.07	23935
846.206	23920
846.342	24095
846.478	23843
846.614	23703
846.75	23592
846.886	23558
847.022	23608
847.158	23687
847.294	23661
847.429	23596
847.565	23611
847.701	23828
847.837	23474
847.972	23315
848.108	23467
848.244	23417
848.379	23318
848.515	23227
848.65	23235
848.786	23322
848.921	23178
849.057	23376
849.192	23425
849.328	23292
849.463	23254
849.598	23098
849.734	23079
849.869	23132
850.004	22980
850.14	23018
850.275	23025
850.41	22831
850.545	22877
850.68	22984
850.815	22968
850.95	22972
851.085	23102
851.22	23029
851.355	23056
851.49	23033
851.625	22934
851.76	22999
851.895	22809
852.03	22953
852.165	22961
852.299	23113
852.434	23067
852.569	23056
852.703	23003
852.838	23010
852.973	23037
853.107	23083
853.242	22911
853.376	22778
853.511	22725
853.645	22691
853.78	22869
853.914	22793
854.048	22820
854.183	22889
854.317	22812
854.451	23014
854.585	22805
854.72	22831
854.854	22873
854.988	22710
855.122	22892
855.256	22702
855.39	22755
855.524	22949
855.658	22896
855.792	22896
855.926	22675
856.06	22782
856.194	22923
856.327	22744
856.461	22774
856.595	22694
856.729	22698
856.862	22889
856.996	22763
857.13	22873
857.263	22946
857.397	22923
857.53	22881
857.664	22919
857.797	22881
857.931	22904
858.064	22759
858.197	22797
858.331	22831
858.464	22721
858.597	22615
858.731	22786
858.864	22664
858.997	22763
859.13	22862
859.263	22793
859.396	22961
859.529	22820
859.662	22702
859.795	22793
859.928	22755
860.061	22980
860.194	23025
860.327	22782
860.46	22797
860.592	22866
860.725	23052
860.858	22980
860.99	22740
861.123	22740
861.256	22736
861.388	22771
861.521	23379
861.653	22656
861.786	22637
861.918	22626
862.05	22755
862.183	22710
862.315	22771
862.447	22778
862.58	22786
862.712	22500
862.844	22485
862.976	22615
863.108	22466
863.24	22953
863.372	22485
863.504	22504
863.636	22329
863.768	22527
863.9	22428
864.032	22413
864.164	22481
864.296	22710
864.428	22508
864.559	22561
864.691	22512
864.823	22599
864.954	22550
865.086	22421
865.217	22295
865.349	22329
865.48	22440
865.612	22436
865.743	22580
865.875	22432
866.006	22268
866.137	22421
866.269	22306
866.4	22382
866.531	22322
866.662	22268
866.793	22356
866.924	22322
867.055	22333
867.186	22303
867.317	22303
867.448	22257
867.579	22329
867.71	22234
867.841	22265
867.972	22363
868.103	22333
868.233	22276
868.364	22344
868.495	22424
868.625	22470
868.756	22580
868.886	22455
869.017	22519
869.147	22641
869.278	22710
869.408	22508
869.539	22675
869.669	22569
869.799	22687
869.929	22668
870.06	22634
870.19	22824
870.32	22896
870.45	22984
870.58	22930
870.71	23003
870.84	23140
870.97	22976
871.1	22934
871.23	23056
871.36	23143
871.489	23174
871.619	23075
871.749	23102
871.879	23212
872.008	23307
872.138	23003
872.267	23132
872.397	23022
872.526	22889
872.656	22976
872.785	23018
872.915	23288
873.044	23261
873.173	23090
873.303	23220
873.432	23299
873.561	23159
873.69	23250
873.819	23223
873.948	23166
874.077	23136
874.206	23094
874.335	23075
874.464	23280
874.593	23353
874.722	23368
874.851	23440
874.979	23478
875.108	23452
875.237	23341
875.365	23242
875.494	23448
875.623	23414
875.751	23368
875.88	23372
876.008	23535
876.136	23455
876.265	23824
876.393	23836
876.521	23939
876.65	23832
876.778	23851
876.906	23764
877.034	23733
877.162	23600
877.29	23710
877.418	23756
877.546	23703
877.674	23779
877.802	23627
877.93	23760
878.058	23703
878.185	23516
878.313	23653
878.441	23722
878.568	23551
878.696	23653
878.824	23726
878.951	23729
879.079	23828
879.206	24053
879.333	23939
879.461	23771
879.588	23859
879.715	23847
879.842	23988
879.97	23847
880.097	23535
880.224	23611
880.351	23615
880.478	23623
880.605	23436
880.732	23531
880.859	23680
880.986	23570
881.112	23577
881.239	23417
881.366	23220
881.493	23265
881.619	23162
881.746	23128
881.872	23064
881.999	23025
882.125	22984
882.252	23060
882.378	23014
882.505	23197
882.631	22915
882.757	22908
882.883	22824
883.01	22801
883.136	22729
883.262	22588
883.388	22615
883.514	22805
883.64	22774
883.766	22660
883.892	22550
884.018	22500
884.143	22733
884.269	22782
884.395	22489
884.52	22455
884.646	22409
884.772	22371
884.897	22272
885.023	22295
885.148	22493
885.274	22611
885.399	22462
885.524	22348
885.65	22409
885.775	22386
885.9	22390
886.025	22481
886.15	22432
886.275	22402
886.4	22226
886.525	22226
886.65	22291
886.775	22337
886.9	22519
887.025	22531
887.149	22348
887.274	22177
887.399	22211
887.523	22105
887.648	22082
887.773	22139
887.897	22329
888.021	22169
888.146	22021
888.27	22276
888.395	22185
888.519	22158
888.643	22124
888.767	22192
888.891	21983
889.015	22029
889.139	22021
889.263	21975
889.387	22055
889.511	22124
889.635	22093
889.759	21987
889.883	21869
890.006	21918
890.13	22013
890.254	21934
890.377	21804
890.501	21793
890.624	21720
890.748	21770
890.871	21534
890.995	21450
891.118	21466
891.241	21526
891.364	21382
891.488	21545
891.611	21568
891.734	21496
891.857	21538
891.98	21431
892.103	21538
892.226	21496
892.349	21386
892.471	21272
892.594	21367
892.717	21507
892.839	21344
892.962	21348
893.085	21393
893.207	21268
893.33	21249
893.452	21287
893.575	21344
893.697	21393
893.819	21447
893.941	21652
894.064	21504
894.186	21317
894.308	21184
894.43	21302
894.552	21504
894.674	21469
894.796	21199
894.918	21348
895.04	21252
895.161	21386
895.283	21272
895.405	21230
895.526	21268
895.648	21336
895.769	21218
895.891	21435
896.012	21496
896.134	21397
896.255	21279
896.376	21294
896.498	21279
896.619	21279
896.74	21245
896.861	21226
896.982	21797
897.103	21755
897.224	21652
897.345	21454
897.466	21488
897.587	21595
897.708	21568
897.828	21606
897.949	21447
898.07	21310
898.19	21511
898.311	21496
898.431	21526
898.552	21370
898.672	21458
898.792	21709
898.913	21553
899.033	21469
899.153	21363
899.273	21180
899.393	21268
899.513	21214
899.633	21150
899.753	21317
899.873	21203
899.993	21291
900.113	21218
900.232	21214
900.352	21176
900.472	21119
900.591	20887
900.711	21108
900.83	20929
900.95	21123
901.069	21112
901.189	20853
901.308	20743
901.427	20556
901.546	20469
901.665	20613
901.784	20632
901.904	20423
902.023	20339
902.141	20138
902.26	20062
902.379	20221
902.498	20062
902.617	19959
902.735	20092
902.854	20130
902.973	19986
903.091	19807
903.21	19670
903.328	19674
903.446	19666
903.565	19590
903.683	19506
903.801	19369
903.919	19521
904.038	19430
904.156	19339
904.274	19419
904.392	19164
904.51	19339
904.627	19270
904.745	19354
904.863	19350
904.981	19004
905.098	19015
905.216	19027
905.334	18935
905.451	18985
905.569	18844
905.686	19053
905.803	18901
905.921	18760
906.038	18856
906.155	18764
906.272	18608
906.389	18578
906.506	18528
906.623	18525
906.74	18467
906.857	18277
906.974	18357
907.091	18521
907.208	18623
907.324	18441
907.441	18270
907.557	18235
907.674	18178
907.79	18159
907.907	18098
908.023	18266
908.139	18213
908.256	18159
908.372	18136
908.488	18095
908.604	17935
908.72	17942
908.836	17923
908.952	17760
909.068	17969
909.184	18072
909.3	17847
909.415	18015
909.531	17908
909.647	17623
909.762	17524
909.878	17452
909.993	17570
910.108	17592
910.224	17463
910.339	17520
910.454	17459
910.57	17334
910.685	17326
910.8	17649
910.915	17581
911.03	17436
911.145	17269
911.259	17223
911.374	17166
911.489	17143
911.604	17071
911.718	16774
911.833	16843
911.947	16900
912.062	16752
912.176	16999
912.291	16953
912.405	16957
912.519	17086
912.633	17170
912.748	16938
912.862	16927
912.976	16752
913.09	16618
913.204	16683
913.318	16748
913.431	16831
913.545	16801
913.659	16862
913.772	16634
913.886	16462
914	16443
914.113	16622
914.226	16565
914.34	16546
914.453	16413
914.566	16436
914.68	16371
914.793	16314
914.906	16082
915.019	16105
915.132	16150
915.245	15991
915.358	16135
915.47	15975
915.583	15975
915.696	16097
915.809	16105
915.921	16162
916.034	15876
916.146	15983
916.259	15873
916.371	16131
916.483	15869
916.595	15915
916.708	15876
916.82	15911
916.932	15911
917.044	15797
917.156	15846
917.268	15717
917.38	15698
917.491	15698
917.603	15705
917.715	15724
917.826	15766
917.938	15671
918.049	15530
918.161	15648
918.272	15671
918.384	15778
918.495	15599
918.606	15530
918.717	15454
918.828	15504
918.939	15428
919.05	15386
919.161	15374
919.272	15218
919.383	15291
919.494	15447
919.604	15549
919.715	15447
919.826	15302
919.936	15313
920.047	15450
920.157	15439
920.267	15504
920.378	15393
920.488	15313
920.598	15587
920.708	15595
920.818	15443
920.928	15534
921.038	15610
921.148	15557
921.258	15386
921.368	15192
921.477	15146
921.587	14990
921.697	14998
921.806	14960
921.916	14971
922.025	14720
922.134	14746
922.244	14682
922.353	14708
922.462	14636
922.571	14522
922.68	14286
922.789	14465
922.898	14336
923.007	14256
923.116	14400
923.224	14374
923.333	14278
923.442	14210
923.55	14199
923.659	14195
923.767	14271
923.876	14092
923.984	14271
924.092	14001
924.201	14157
924.309	14081
924.417	14050
924.525	14046
924.633	14020
924.741	15032
924.849	13803
924.956	13849
925.064	13708
925.172	13655
925.279	13639
925.387	13769
925.494	13814
925.602	13856
925.709	13814
925.816	13502
925.924	13693
926.031	13689
926.138	13620
926.245	13609
926.352	13533
926.459	13700
926.566	13826
926.673	13662
926.779	13449
926.886	13403
926.993	13354
927.099	13274
927.206	13187
927.312	13327
927.419	13312
927.525	13244
927.631	13324
927.737	13179
927.843	13129
927.95	13042
928.056	13000
928.162	13088
928.267	13080
928.373	13677
928.479	13190
928.585	12882
928.69	13038
928.796	13072
928.901	12928
929.007	12787
929.112	12935
929.218	12905
929.323	12859
929.428	12829
929.533	12913
929.638	12734
929.743	12627
929.848	12798
929.953	12692
930.058	12517
930.163	12464
930.267	12506
930.372	12654
930.477	12418
930.581	12601
930.685	12494
930.79	12296
930.894	12422
930.998	12186
931.103	12525
931.207	12057
931.311	11980
931.415	11965
931.519	11771
931.623	11649
