Data from test_V78500241_1255.txt Node
Date: Fri Mar 25 15:50:29 CST 2022
User: usil
Spectrometer: V785-0024
Trigger mode: 0
Integration Time (sec): 4.000000E-1
Scans to average: 1
Nonlinearity correction enabled: false
Boxcar width: 0
Storing dark spectrum: false
XAxis mode: Wavelengths
Number of Pixels in Spectrum: 1024
>>>>>Begin Spectral Data<<<<<
801.071	28866
801.214	28850
801.356	28596
801.499	28645
801.641	28322
801.783	28367
801.926	28367
802.068	28428
802.211	28371
802.353	28356
802.496	28158
802.638	28109
802.78	28124
802.923	28032
803.065	28116
803.208	27972
803.35	27895
803.492	28295
803.635	28352
803.777	28181
803.919	28242
804.061	28550
804.204	28329
804.346	28215
804.488	28211
804.63	28306
804.773	28379
804.915	28329
805.057	28466
805.199	28375
805.341	28565
805.483	28531
805.626	28421
805.768	28459
805.91	28516
806.052	28504
806.194	28455
806.336	28721
806.478	28649
806.62	28698
806.762	28645
806.904	28793
807.046	29006
807.188	29086
807.33	28999
807.472	29052
807.614	28930
807.756	28869
807.898	28786
808.04	28748
808.182	28805
808.324	28771
808.465	28991
808.607	29132
808.749	29330
808.891	29288
809.033	29277
809.174	29277
809.316	29181
809.458	29204
809.6	29261
809.741	29315
809.883	29414
810.025	29600
810.166	29414
810.308	29539
810.45	29379
810.591	29436
810.733	29155
810.875	29113
811.016	29166
811.158	29258
811.299	29353
811.441	29414
811.582	29227
811.724	29299
811.865	29147
812.007	29220
812.148	29239
812.29	29216
812.431	29364
812.573	29444
812.714	29676
812.855	29649
812.997	29802
813.138	29897
813.279	29977
813.421	29581
813.562	29710
813.703	29707
813.845	29478
813.986	29121
814.127	29025
814.268	29003
814.41	28938
814.551	28942
814.692	28980
814.833	28862
814.974	28942
815.115	29052
815.256	28892
815.397	28816
815.539	28809
815.68	28546
815.821	28698
815.962	28809
816.103	28554
816.244	28573
816.385	28561
816.526	28580
816.666	28348
816.807	28303
816.948	28352
817.089	28306
817.23	28291
817.371	28211
817.512	28295
817.653	28249
817.793	28055
817.934	28246
818.075	28287
818.216	28417
818.356	28090
818.497	28192
818.638	28086
818.778	28036
818.919	28017
819.06	27899
819.2	28215
819.341	28219
819.481	28257
819.622	28531
819.762	28752
819.903	28432
820.043	28504
820.184	28478
820.324	28318
820.465	28413
820.605	28474
820.746	28348
820.886	28413
821.026	28341
821.167	28223
821.307	28409
821.447	28428
821.588	28303
821.728	28192
821.868	27755
822.008	27823
822.149	27694
822.289	27694
822.429	27526
822.569	27469
822.709	27412
822.849	27298
822.99	27363
823.13	27294
823.27	27279
823.41	27089
823.55	26990
823.69	27199
823.83	27138
823.97	27058
824.11	27001
824.25	26929
824.389	26906
824.529	27005
824.669	26960
824.809	27116
824.949	27096
825.089	27013
825.228	27108
825.368	26731
825.508	26872
825.648	26819
825.787	26899
825.927	26857
826.067	26655
826.206	26815
826.346	26804
826.485	26758
826.625	26804
826.765	26910
826.904	26849
827.044	26594
827.183	26545
827.323	26400
827.462	26484
827.601	26587
827.741	26495
827.88	26640
828.02	26351
828.159	26480
828.298	26541
828.437	26537
828.577	26389
828.716	26530
828.855	26469
828.994	26168
829.134	26225
829.273	26434
829.412	26176
829.551	26111
829.69	26301
829.829	26328
829.968	26339
830.107	26180
830.246	26153
830.385	26134
830.524	26092
830.663	26020
830.802	25883
830.941	25830
831.08	25795
831.219	25852
831.357	25894
831.496	26027
831.635	25898
831.774	25700
831.913	25605
832.051	25662
832.19	25643
832.329	25658
832.467	25525
832.606	25354
832.744	25430
832.883	25419
833.022	25411
833.16	25537
833.299	25502
833.437	25487
833.576	25594
833.714	25575
833.852	25510
833.991	25559
834.129	25556
834.267	25628
834.406	25544
834.544	25666
834.682	25620
834.821	25567
834.959	25605
835.097	25434
835.235	25605
835.373	25510
835.511	25430
835.65	25422
835.788	25457
835.926	25327
836.064	25148
836.202	25251
836.34	25464
836.478	25369
836.615	25282
836.753	25407
836.891	25316
837.029	25426
837.167	25358
837.305	25175
837.443	25190
837.58	25194
837.718	25107
837.856	25232
837.993	24996
838.131	25259
838.269	25091
838.406	25103
838.544	24992
838.681	24711
838.819	24753
838.956	24642
839.094	24654
839.231	24700
839.369	24779
839.506	24973
839.643	24970
839.781	24627
839.918	24673
840.055	24703
840.193	24608
840.33	24585
840.467	24582
840.604	24639
840.742	24867
840.879	24471
841.016	24441
841.153	24395
841.29	24536
841.427	24498
841.564	24582
841.701	24547
841.838	24403
841.975	24490
842.112	24445
842.249	24403
842.385	24369
842.522	24521
842.659	24308
842.796	24254
842.933	24315
843.069	24216
843.206	24315
843.343	24502
843.479	24224
843.616	24273
843.752	24129
843.889	24114
844.025	24205
844.162	24060
844.298	24182
844.435	24136
844.571	23988
844.708	24049
844.844	24209
844.98	24144
845.117	24213
845.253	23939
845.389	23977
845.525	24121
845.661	23893
845.798	23824
845.934	23961
846.07	23817
846.206	23786
846.342	23954
846.478	23726
846.614	23623
846.75	23455
846.886	23444
847.022	23493
847.158	23539
847.294	23589
847.429	23429
847.565	23383
847.701	23737
847.837	23185
847.972	23227
848.108	23360
848.244	23288
848.379	23189
848.515	23090
848.65	23044
848.786	23064
848.921	23041
849.057	23197
849.192	23170
849.328	23254
849.463	23277
849.598	23022
849.734	22915
849.869	23014
850.004	23033
850.14	22938
850.275	22934
850.41	22908
850.545	22774
850.68	22782
850.815	22847
850.95	22896
851.085	22911
851.22	23090
851.355	22877
851.49	22858
851.625	22805
851.76	22877
851.895	22809
852.03	22656
852.165	22942
852.299	22866
852.434	22919
852.569	22908
852.703	22889
852.838	22866
852.973	23124
853.107	22862
853.242	22896
853.376	22828
853.511	22538
853.645	22763
853.78	22869
853.914	22706
854.048	22721
854.183	22634
854.317	22771
854.451	22965
854.585	22702
854.72	22584
854.854	22649
854.988	22672
855.122	22717
855.256	22569
855.39	22736
855.524	22645
855.658	22694
855.792	22793
855.926	22797
856.06	22744
856.194	22782
856.327	22637
856.461	22649
856.595	22611
856.729	22653
856.862	22733
856.996	22801
857.13	22725
857.263	22706
857.397	22763
857.53	22641
857.664	22706
857.797	22733
857.931	22915
858.064	22744
858.197	22786
858.331	22660
858.464	22607
858.597	22485
858.731	22656
858.864	22691
858.997	22687
859.13	22801
859.263	22713
859.396	22847
859.529	22634
859.662	22546
859.795	22660
859.928	22866
860.061	22873
860.194	22892
860.327	22793
860.46	22771
860.592	22869
860.725	22698
860.858	22835
860.99	22793
861.123	22557
861.256	22679
861.388	22812
861.521	23239
861.653	22603
861.786	22478
861.918	22573
862.05	22519
862.183	22523
862.315	22584
862.447	22656
862.58	22588
862.712	22394
862.844	22478
862.976	22500
863.108	22428
863.24	22759
863.372	22325
863.504	22344
863.636	22402
863.768	22459
863.9	22390
864.032	22375
864.164	22386
864.296	22386
864.428	22516
864.559	22584
864.691	22436
864.823	22478
864.954	22314
865.086	22424
865.217	22238
865.349	22230
865.48	22333
865.612	22291
865.743	22371
865.875	22371
866.006	22276
866.137	22333
866.269	22382
866.4	22215
866.531	22223
866.662	22112
866.793	22177
866.924	22204
867.055	22246
867.186	22226
867.317	22211
867.448	22128
867.579	22158
867.71	22105
867.841	22097
867.972	22284
868.103	22219
868.233	22238
868.364	22238
868.495	22314
868.625	22352
868.756	22599
868.886	22535
869.017	22314
869.147	22394
869.278	22588
869.408	22443
869.539	22489
869.669	22500
869.799	22584
869.929	22580
870.06	22550
870.19	22805
870.32	22736
870.45	22900
870.58	22774
870.71	22896
870.84	22930
870.97	22729
871.1	22885
871.23	22957
871.36	23014
871.489	22892
871.619	23003
871.749	23025
871.879	23060
872.008	23014
872.138	23018
872.267	22972
872.397	22987
872.526	22843
872.656	22713
872.785	22911
872.915	23140
873.044	23113
873.173	23048
873.303	23048
873.432	23220
873.561	23307
873.69	22999
873.819	22957
873.948	23117
874.077	23079
874.206	22976
874.335	23044
874.464	23147
874.593	23242
874.722	23102
874.851	23284
874.979	23269
875.108	23299
875.237	23223
875.365	23231
875.494	23223
875.623	23296
875.751	23296
875.88	23178
876.008	23254
876.136	23429
876.265	23551
876.393	23733
876.521	23592
876.65	23760
876.778	23627
876.906	23497
877.034	23524
877.162	23653
877.29	23611
877.418	23577
877.546	23531
877.674	23573
877.802	23577
877.93	23524
878.058	23581
878.185	23471
878.313	23490
878.441	23577
878.568	23455
878.696	23474
878.824	23661
878.951	23836
879.079	23726
879.206	23923
879.333	23756
879.461	23684
879.588	23824
879.715	23775
879.842	23893
879.97	23764
880.097	23490
880.224	23478
880.351	23288
880.478	23543
880.605	23421
880.732	23334
880.859	23646
880.986	23315
881.112	23379
881.239	23197
881.366	23170
881.493	23056
881.619	22927
881.746	23067
881.872	22984
881.999	22881
882.125	22957
882.252	22915
882.378	22854
882.505	23102
882.631	22835
882.757	22786
882.883	22713
883.01	22752
883.136	22630
883.262	22577
883.388	22569
883.514	22755
883.64	22725
883.766	22527
883.892	22424
884.018	22466
884.143	22538
884.269	22713
884.395	22261
884.52	22150
884.646	22322
884.772	22230
884.897	22059
885.023	22360
885.148	22299
885.274	22382
885.399	22314
885.524	22249
885.65	22272
885.775	22295
885.9	22318
886.025	22382
886.15	22375
886.275	22268
886.4	22166
886.525	22169
886.65	22154
886.775	22166
886.9	22322
887.025	22470
887.149	22116
887.274	22135
887.399	22029
887.523	22013
887.648	22074
887.773	21922
887.897	21979
888.021	22124
888.146	22002
888.27	22055
888.395	22070
888.519	22162
888.643	21983
888.767	22048
888.891	21861
889.015	21930
889.139	21838
889.263	21804
889.387	21991
889.511	22048
889.635	21899
889.759	21838
889.883	21774
890.006	21854
890.13	21869
890.254	21747
890.377	21690
890.501	21534
890.624	21416
890.748	21580
890.871	21416
890.995	21332
891.118	21386
891.241	21332
891.364	21424
891.488	21412
891.611	21424
891.734	21469
891.857	21306
891.98	21382
892.103	21363
892.226	21283
892.349	21310
892.471	21241
892.594	21291
892.717	21256
892.839	21161
892.962	21211
893.085	21199
893.207	21188
893.33	21123
893.452	21085
893.575	21332
893.697	21264
893.819	21416
893.941	21473
894.064	21378
894.186	21230
894.308	21077
894.43	21294
894.552	21408
894.674	21313
894.796	21199
894.918	21214
895.04	21256
895.161	21249
895.283	21310
895.405	21184
895.526	21245
895.648	21249
895.769	21233
895.891	21222
896.012	21192
896.134	21405
896.255	21241
896.376	21119
896.498	21138
896.619	21287
896.74	21138
896.861	21218
896.982	21583
897.103	21625
897.224	21408
897.345	21450
897.466	21310
897.587	21519
897.708	21500
897.828	21431
897.949	21431
898.07	21176
898.19	21310
898.311	21526
898.431	21367
898.552	21458
898.672	21428
898.792	21469
898.913	21211
899.033	21367
899.153	21199
899.273	20971
899.393	21119
899.513	21294
899.633	21199
899.753	21169
899.873	21081
899.993	21077
900.113	21051
900.232	21203
900.352	21100
900.472	20967
900.591	20811
900.711	20902
900.83	20925
900.95	20952
901.069	20941
901.189	20758
901.308	20613
901.427	20480
901.546	20609
901.665	20522
901.784	20514
901.904	20431
902.023	20157
902.141	20043
902.26	20107
902.379	20062
902.498	19974
902.617	19982
902.735	19959
902.854	19951
902.973	19902
903.091	19681
903.21	19628
903.328	19601
903.446	19658
903.565	19483
903.683	19483
903.801	19232
903.919	19365
904.038	19339
904.156	19194
904.274	19339
904.392	19160
904.51	19133
904.627	19213
904.745	19168
904.863	19202
904.981	19050
905.098	18897
905.216	18837
905.334	18833
905.451	18802
905.569	18722
905.686	18924
905.803	18783
905.921	18665
906.038	18711
906.155	18623
906.272	18498
906.389	18513
906.506	18319
906.623	18403
906.74	18433
906.857	18399
906.974	18327
907.091	18384
907.208	18509
907.324	18391
907.441	18254
907.557	18034
907.674	18136
907.79	18007
907.907	17969
908.023	18174
908.139	18087
908.256	17973
908.372	17992
908.488	17935
908.604	17904
908.72	17828
908.836	17817
908.952	17798
909.068	17802
909.184	17897
909.3	17851
909.415	17813
909.531	17794
909.647	17554
909.762	17547
909.878	17497
909.993	17493
910.108	17425
910.224	17410
910.339	17554
910.454	17356
910.57	17345
910.685	17246
910.8	17467
910.915	17452
911.03	17288
911.145	17113
911.259	17124
911.374	17041
911.489	16999
911.604	16900
911.718	16877
911.833	16892
911.947	16668
912.062	16759
912.176	16896
912.291	16816
912.405	16736
912.519	17056
912.633	16942
912.748	16759
912.862	16843
912.976	16675
913.09	16508
913.204	16607
913.318	16584
913.431	16634
913.545	16668
913.659	16672
913.772	16569
913.886	16478
914	16325
914.113	16531
914.226	16550
914.34	16440
914.453	16249
914.566	16428
914.68	16215
914.793	16215
914.906	16086
915.019	15964
915.132	15880
915.245	15987
915.358	15972
915.47	16040
915.583	15895
915.696	15869
915.809	16067
915.921	16131
916.034	15876
916.146	15823
916.259	15892
916.371	15975
916.483	15987
916.595	15781
916.708	15823
916.82	15785
916.932	15816
917.044	15732
917.156	15755
917.268	15538
917.38	15618
917.491	15568
917.603	15675
917.715	15656
917.826	15701
917.938	15488
918.049	15412
918.161	15603
918.272	15663
918.384	15705
918.495	15534
918.606	15329
918.717	15233
918.828	15363
918.939	15313
919.05	15203
919.161	15359
919.272	15100
919.383	15245
919.494	15306
919.604	15553
919.715	15336
919.826	15203
919.936	15264
920.047	15363
920.157	15268
920.267	15485
920.378	15283
920.488	15192
920.598	15504
920.708	15549
920.818	15515
920.928	15443
921.038	15553
921.148	15545
921.258	15268
921.368	15138
921.477	15020
921.587	15097
921.697	14826
921.806	14929
921.916	14823
922.025	14682
922.134	14667
922.244	14594
922.353	14636
922.462	14507
922.571	14454
922.68	14263
922.789	14309
922.898	14301
923.007	14153
923.116	14183
923.224	14336
923.333	14214
923.442	14062
923.55	14130
923.659	14115
923.767	14134
923.876	14008
923.984	14202
924.092	13959
924.201	14024
924.309	14062
924.417	14050
924.525	13993
924.633	13993
924.741	14868
924.849	13738
924.956	13814
925.064	13742
925.172	13506
925.279	13548
925.387	13666
925.494	13563
925.602	13791
925.709	13597
925.816	13514
925.924	13658
926.031	13704
926.138	13556
926.245	13643
926.352	13460
926.459	13609
926.566	13548
926.673	13438
926.779	13335
926.886	13388
926.993	13198
927.099	13171
927.206	13152
927.312	13168
927.419	13190
927.525	13137
927.631	13137
927.737	13061
927.843	13046
927.95	12962
928.056	12935
928.162	13000
928.267	13008
928.373	13563
928.479	13137
928.585	12795
928.69	12970
928.796	13008
928.901	12890
929.007	12696
929.112	12871
929.218	12848
929.323	12779
929.428	12787
929.533	12757
929.638	12593
929.743	12662
929.848	12715
929.953	12639
930.058	12570
930.163	12369
930.267	12399
930.372	12486
930.477	12361
930.581	12589
930.685	12456
930.79	12353
930.894	12323
930.998	12266
931.103	12270
931.207	11980
931.311	11874
931.415	11783
931.519	11665
931.623	11562
