Data from test_V78500241_1665.txt Node
Date: Fri Mar 25 15:53:20 CST 2022
User: usil
Spectrometer: V785-0024
Trigger mode: 0
Integration Time (sec): 4.000000E-1
Scans to average: 1
Nonlinearity correction enabled: false
Boxcar width: 0
Storing dark spectrum: false
XAxis mode: Wavelengths
Number of Pixels in Spectrum: 1024
>>>>>Begin Spectral Data<<<<<
801.071	28192
801.214	28207
801.356	27895
801.499	27972
801.641	27743
801.783	27816
801.926	27869
802.068	27789
802.211	27937
802.353	27610
802.496	27485
802.638	27591
802.78	27466
802.923	27351
803.065	27473
803.208	27416
803.35	27389
803.492	27553
803.635	27835
803.777	27504
803.919	27717
804.061	27956
804.204	27762
804.346	27743
804.488	27568
804.63	27747
804.773	27808
804.915	27679
805.057	27941
805.199	27713
805.341	27827
805.483	27705
805.626	27895
805.768	27728
805.91	27831
806.052	27949
806.194	27724
806.336	28006
806.478	27884
806.62	27812
806.762	28055
806.904	28120
807.046	28379
807.188	28409
807.33	28276
807.472	28291
807.614	28238
807.756	28276
807.898	28150
808.04	28090
808.182	28097
808.324	28287
808.465	28223
808.607	28363
808.749	28546
808.891	28516
809.033	28615
809.174	28656
809.316	28440
809.458	28626
809.6	28466
809.741	28508
809.883	28778
810.025	28698
810.166	28637
810.308	28725
810.45	28694
810.591	28702
810.733	28455
810.875	28291
811.016	28523
811.158	28428
811.299	28630
811.441	28790
811.582	28683
811.724	28618
811.865	28382
812.007	28462
812.148	28508
812.29	28603
812.431	28816
812.573	28805
812.714	28946
812.855	29044
812.997	29197
813.138	29242
813.279	29056
813.421	29094
813.562	29044
813.703	28862
813.845	28839
813.986	28569
814.127	28257
814.268	28131
814.41	28147
814.551	28219
814.692	28234
814.833	28204
814.974	28082
815.115	28215
815.256	28055
815.397	28067
815.539	28112
815.68	28070
815.821	27926
815.962	28116
816.103	28078
816.244	27945
816.385	27728
816.526	27869
816.666	27473
816.807	27458
816.948	27462
817.089	27629
817.23	27530
817.371	27408
817.512	27523
817.653	27359
817.793	27511
817.934	27526
818.075	27439
818.216	27485
818.356	27443
818.497	27359
818.638	27298
818.778	27138
818.919	27363
819.06	27313
819.2	27420
819.341	27405
819.481	27511
819.622	27538
819.762	27926
819.903	27774
820.043	27732
820.184	27686
820.324	27694
820.465	27595
820.605	27561
820.746	27660
820.886	27454
821.026	27641
821.167	27500
821.307	27656
821.447	27618
821.588	27500
821.728	27211
821.868	27203
822.008	27009
822.149	27058
822.289	27043
822.429	26960
822.569	26632
822.709	26518
822.849	26526
822.99	26461
823.13	26355
823.27	26374
823.41	26339
823.55	26183
823.69	26309
823.83	26419
823.97	26214
824.11	26069
824.25	26058
824.389	26161
824.529	26161
824.669	26043
824.809	26317
824.949	26183
825.089	26355
825.228	26313
825.368	26008
825.508	26107
825.648	26039
825.787	26043
825.927	26111
826.067	26043
826.206	26005
826.346	26043
826.485	26062
826.625	26065
826.765	26176
826.904	26122
827.044	25852
827.183	25791
827.323	25666
827.462	25841
827.601	25784
827.741	25651
827.88	25597
828.02	25647
828.159	25700
828.298	25799
828.437	25856
828.577	25559
828.716	25841
828.855	25696
828.994	25422
829.134	25529
829.273	25457
829.412	25259
829.551	25415
829.69	25350
829.829	25479
829.968	25293
830.107	25533
830.246	25525
830.385	25343
830.524	25225
830.663	25293
830.802	25278
830.941	25084
831.08	25110
831.219	25008
831.357	25114
831.496	25255
831.635	25107
831.774	25046
831.913	24882
832.051	24806
832.19	24935
832.329	24738
832.467	24745
832.606	24734
832.744	24601
832.883	24703
833.022	24593
833.16	24711
833.299	24791
833.437	24654
833.576	24688
833.714	24764
833.852	24837
833.991	24684
834.129	24852
834.267	24821
834.406	24692
834.544	24772
834.682	24749
834.821	24677
834.959	25008
835.097	24688
835.235	24787
835.373	24856
835.511	24741
835.65	24494
835.788	24536
835.926	24441
836.064	24513
836.202	24490
836.34	24604
836.478	24700
836.615	24597
836.753	24517
836.891	24696
837.029	24483
837.167	24456
837.305	24342
837.443	24369
837.58	24372
837.718	24365
837.856	24410
837.993	24418
838.131	24330
838.269	24281
838.406	24304
838.544	24129
838.681	24163
838.819	23874
838.956	23878
839.094	23961
839.231	23939
839.369	24007
839.506	24357
839.643	24213
839.781	23992
839.918	23843
840.055	23893
840.193	23790
840.33	23794
840.467	23889
840.604	23847
840.742	24049
840.879	23714
841.016	23790
841.153	23722
841.29	23817
841.427	23783
841.564	23893
841.701	23783
841.838	23729
841.975	23699
842.112	23726
842.249	23627
842.385	23467
842.522	23741
842.659	23551
842.796	23600
842.933	23535
843.069	23433
843.206	23467
843.343	23535
843.479	23547
843.616	23627
843.752	23356
843.889	23212
844.025	23463
844.162	23212
844.298	23455
844.435	23402
844.571	23334
844.708	23398
844.844	23474
844.98	23459
845.117	23383
845.253	23254
845.389	23159
845.525	23147
845.661	23170
845.798	22972
845.934	23071
846.07	22961
846.206	23052
846.342	23094
846.478	22919
846.614	22717
846.75	22698
846.886	22778
847.022	22877
847.158	22915
847.294	22843
847.429	22782
847.565	22675
847.701	23022
847.837	22500
847.972	22504
848.108	22546
848.244	22390
848.379	22421
848.515	22268
848.65	22432
848.786	22367
848.921	22405
849.057	22474
849.192	22329
849.328	22516
849.463	22440
849.598	22440
849.734	22230
849.869	22154
850.004	22173
850.14	22135
850.275	22166
850.41	22021
850.545	22025
850.68	22032
850.815	22219
850.95	22055
851.085	22417
851.22	22234
851.355	22147
851.49	22051
851.625	22013
851.76	22070
851.895	22029
852.03	22025
852.165	22139
852.299	22131
852.434	22200
852.569	22204
852.703	22306
852.838	22185
852.973	22211
853.107	22348
853.242	22185
853.376	21888
853.511	21846
853.645	21987
853.78	22097
853.914	21975
854.048	21903
854.183	21937
854.317	22059
854.451	22109
854.585	21968
854.72	21987
854.854	22082
854.988	21911
855.122	22059
855.256	21854
855.39	21964
855.524	22074
855.658	22059
855.792	21972
855.926	22010
856.06	21994
856.194	21991
856.327	22006
856.461	21873
856.595	21949
856.729	21892
856.862	22021
856.996	21949
857.13	22124
857.263	21979
857.397	22044
857.53	22006
857.664	22048
857.797	22067
857.931	22101
858.064	21972
858.197	22021
858.331	21972
858.464	21876
858.597	21827
858.731	21918
858.864	21972
858.997	22059
859.13	22048
859.263	21949
859.396	22021
859.529	21850
859.662	21930
859.795	21972
859.928	21884
860.061	22078
860.194	22109
860.327	22055
860.46	21975
860.592	22074
860.725	22112
860.858	22074
860.99	21930
861.123	21831
861.256	21930
861.388	22082
861.521	22607
861.653	21835
861.786	21759
861.918	21800
862.05	21915
862.183	21827
862.315	21907
862.447	21857
862.58	21869
862.712	21717
862.844	21671
862.976	21785
863.108	21610
863.24	22086
863.372	21713
863.504	21675
863.636	21679
863.768	21580
863.9	21709
864.032	21686
864.164	21557
864.296	21667
864.428	21694
864.559	21804
864.691	21713
864.823	21751
864.954	21667
865.086	21618
865.217	21538
865.349	21485
865.48	21625
865.612	21519
865.743	21698
865.875	21553
866.006	21492
866.137	21629
866.269	21580
866.4	21557
866.531	21454
866.662	21370
866.793	21549
866.924	21469
867.055	21538
867.186	21447
867.317	21370
867.448	21485
867.579	21496
867.71	21481
867.841	21351
867.972	21568
868.103	21450
868.233	21458
868.364	21466
868.495	21663
868.625	21682
868.756	21876
868.886	21705
869.017	21625
869.147	21778
869.278	21751
869.408	21781
869.539	21736
869.669	21816
869.799	21747
869.929	21831
870.06	21850
870.19	22090
870.32	22021
870.45	22074
870.58	22211
870.71	22192
870.84	22276
870.97	22230
871.1	22185
871.23	22249
871.36	22306
871.489	22257
871.619	22348
871.749	22382
871.879	22367
872.008	22478
872.138	22322
872.267	22375
872.397	22325
872.526	22177
872.656	22200
872.785	22166
872.915	22303
873.044	22424
873.173	22276
873.303	22421
873.432	22352
873.561	22474
873.69	22329
873.819	22322
873.948	22200
874.077	22409
874.206	22440
874.335	22360
874.464	22459
874.593	22569
874.722	22504
874.851	22588
874.979	22478
875.108	22653
875.237	22569
875.365	22417
875.494	22447
875.623	22580
875.751	22668
875.88	22481
876.008	22790
876.136	22740
876.265	22927
876.393	23010
876.521	22972
876.65	23037
876.778	22999
876.906	22854
877.034	22904
877.162	22923
877.29	22839
877.418	22858
877.546	22854
877.674	22965
877.802	22984
877.93	22866
878.058	22828
878.185	22752
878.313	22900
878.441	22881
878.568	22828
878.696	22782
878.824	23006
878.951	23124
879.079	23033
879.206	23220
879.333	23079
879.461	22961
879.588	23014
879.715	23102
879.842	23098
879.97	23029
880.097	22946
880.224	22664
880.351	22862
880.478	22713
880.605	22573
880.732	22725
880.859	23037
880.986	22812
881.112	22755
881.239	22573
881.366	22557
881.493	22455
881.619	22356
881.746	22261
881.872	22253
881.999	22352
882.125	22234
882.252	22211
882.378	22166
882.505	22390
882.631	22116
882.757	22002
882.883	21994
883.01	21968
883.136	21907
883.262	21812
883.388	21857
883.514	21953
883.64	21987
883.766	21838
883.892	21717
884.018	21755
884.143	21941
884.269	22070
884.395	21720
884.52	21618
884.646	21633
884.772	21557
884.897	21568
885.023	21800
885.148	21766
885.274	21827
885.399	21751
885.524	21610
885.65	21595
885.775	21644
885.9	21523
886.025	21603
886.15	21671
886.275	21652
886.4	21500
886.525	21580
886.65	21591
886.775	21504
886.9	21713
887.025	21865
887.149	21622
887.274	21488
887.399	21428
887.523	21249
887.648	21469
887.773	21332
887.897	21545
888.021	21485
888.146	21313
888.27	21435
888.395	21469
888.519	21443
888.643	21370
888.767	21439
888.891	21389
889.015	21207
889.139	21184
889.263	21176
889.387	21279
889.511	21420
889.635	21260
889.759	21252
889.883	21032
890.006	21135
890.13	21226
890.254	21062
890.377	21096
890.501	20906
890.624	20826
890.748	20899
890.871	20819
890.995	20743
891.118	20724
891.241	20769
891.364	20632
891.488	20891
891.611	20697
891.734	20716
891.857	20800
891.98	20765
892.103	20807
892.226	20670
892.349	20609
892.471	20431
892.594	20678
892.717	20575
892.839	20598
892.962	20556
893.085	20705
893.207	20674
893.33	20530
893.452	20590
893.575	20678
893.697	20609
893.819	20834
893.941	20720
894.064	20743
894.186	20621
894.308	20514
894.43	20682
894.552	20773
894.674	20674
894.796	20469
894.918	20590
895.04	20511
895.161	20606
895.283	20579
895.405	20488
895.526	20667
895.648	20583
895.769	20606
895.891	20762
896.012	20811
896.134	20701
896.255	20648
896.376	20602
896.498	20564
896.619	20640
896.74	20727
896.861	20659
896.982	20979
897.103	21108
897.224	20967
897.345	20929
897.466	20883
897.587	20800
897.708	20864
897.828	20834
897.949	20781
898.07	20636
898.19	20670
898.311	20975
898.431	20796
898.552	20838
898.672	20857
898.792	20891
898.913	20826
899.033	20758
899.153	20533
899.273	20575
899.393	20522
899.513	20636
899.633	20689
899.753	20678
899.873	20400
899.993	20533
900.113	20594
900.232	20541
900.352	20339
900.472	20324
900.591	20377
900.711	20355
900.83	20286
900.95	20389
901.069	20393
901.189	20206
901.308	20012
901.427	19963
901.546	19959
901.665	20005
901.784	19887
901.904	19761
902.023	19559
902.141	19594
902.26	19438
902.379	19548
902.498	19373
902.617	19373
902.735	19419
902.854	19335
902.973	19381
903.091	19122
903.21	19133
903.328	19072
903.446	18985
903.565	18947
903.683	18924
903.801	18848
903.919	18798
904.038	18825
904.156	18669
904.274	18745
904.392	18650
904.51	18578
904.627	18574
904.745	18692
904.863	18741
904.981	18452
905.098	18380
905.216	18410
905.334	18452
905.451	18308
905.569	18315
905.686	18304
905.803	18338
905.921	18129
906.038	18194
906.155	18007
906.272	18064
906.389	18095
906.506	17916
906.623	17908
906.74	17920
906.857	17710
906.974	17783
907.091	17885
907.208	18022
907.324	17935
907.441	17786
907.557	17573
907.674	17558
907.79	17505
907.907	17532
908.023	17638
908.139	17657
908.256	17421
908.372	17490
908.488	17448
908.604	17353
908.72	17364
908.836	17406
908.952	17307
909.068	17220
909.184	17433
909.3	17132
909.415	17334
909.531	17299
909.647	17140
909.762	17003
909.878	16885
909.993	16976
910.108	17018
910.224	16904
910.339	16949
910.454	16866
910.57	16698
910.685	16675
910.8	17003
910.915	16869
911.03	16908
911.145	16725
911.259	16592
911.374	16584
911.489	16398
911.604	16329
911.718	16371
911.833	16360
911.947	16234
912.062	16010
912.176	16276
912.291	16238
912.405	16280
912.519	16523
912.633	16538
912.748	16398
912.862	16196
912.976	16116
913.09	16067
913.204	16048
913.318	16131
913.431	16109
913.545	16196
913.659	16177
913.772	16063
913.886	16025
914	15857
914.113	15899
914.226	16109
914.34	15876
914.453	15736
914.566	15922
914.68	15800
914.793	15869
914.906	15587
915.019	15466
915.132	15454
915.245	15485
915.358	15500
915.47	15538
915.583	15454
915.696	15469
915.809	15690
915.921	15606
916.034	15530
916.146	15359
916.259	15291
916.371	15545
916.483	15454
916.595	15195
916.708	15272
916.82	15386
916.932	15264
917.044	15256
917.156	15230
917.268	15123
917.38	15097
917.491	15176
917.603	15245
917.715	15230
917.826	15283
917.938	15032
918.049	14937
918.161	15077
918.272	15146
918.384	15199
918.495	15051
918.606	14944
918.717	14887
918.828	14979
918.939	14880
919.05	14800
919.161	14956
919.272	14716
919.383	14693
919.494	14944
919.604	15150
919.715	14845
919.826	14845
919.936	14777
920.047	14887
920.157	14849
920.267	15119
920.378	14849
920.488	14872
920.598	15062
920.708	15161
920.818	14902
920.928	14944
921.038	15093
921.148	15058
921.258	14830
921.368	14625
921.477	14560
921.587	14583
921.697	14488
921.806	14606
921.916	14374
922.025	14290
922.134	14103
922.244	14092
922.353	14324
922.462	14111
922.571	14073
922.68	13879
922.789	13890
922.898	13890
923.007	13833
923.116	13868
923.224	13837
923.333	13761
923.442	13696
923.55	13632
923.659	13750
923.767	13696
923.876	13643
923.984	13647
924.092	13582
924.201	13677
924.309	13613
924.417	13590
924.525	13521
924.633	13548
924.741	14332
924.849	13388
924.956	13422
925.064	13339
925.172	13141
925.279	13179
925.387	13346
925.494	13213
925.602	13331
925.709	13377
925.816	13194
925.924	13152
926.031	13259
926.138	13213
926.245	13228
926.352	13118
926.459	13175
926.566	13247
926.673	13103
926.779	12993
926.886	12993
926.993	12779
927.099	12806
927.206	12806
927.312	12814
927.419	12863
927.525	12840
927.631	12894
927.737	12684
927.843	12703
927.95	12589
928.056	12635
928.162	12665
928.267	12707
928.373	13259
928.479	12749
928.585	12437
928.69	12642
928.796	12681
928.901	12509
929.007	12357
929.112	12456
929.218	12460
929.323	12422
929.428	12407
929.533	12429
929.638	12323
929.743	12258
929.848	12281
929.953	12334
930.058	12239
930.163	12030
930.267	11980
930.372	12144
930.477	11988
930.581	12144
930.685	12068
930.79	11882
930.894	11874
930.998	11840
931.103	12041
931.207	11615
931.311	11615
931.415	11471
931.519	11258
931.623	11299
