Data from test_V78500241_2191.txt Node
Date: Fri Mar 25 15:56:58 CST 2022
User: usil
Spectrometer: V785-0024
Trigger mode: 0
Integration Time (sec): 4.000000E-1
Scans to average: 1
Nonlinearity correction enabled: false
Boxcar width: 0
Storing dark spectrum: false
XAxis mode: Wavelengths
Number of Pixels in Spectrum: 1024
>>>>>Begin Spectral Data<<<<<
801.071	28957
801.214	28915
801.356	28710
801.499	28759
801.641	28497
801.783	28626
801.926	28698
802.068	28474
802.211	28611
802.353	28462
802.496	28329
802.638	28272
802.78	28253
802.923	28257
803.065	28299
803.208	28147
803.35	28329
803.492	28428
803.635	28485
803.777	28363
803.919	28550
804.061	28774
804.204	28672
804.346	28577
804.488	28516
804.63	28512
804.773	28546
804.915	28660
805.057	28626
805.199	28516
805.341	28698
805.483	28733
805.626	28812
805.768	28645
805.91	28641
806.052	28812
806.194	28713
806.336	28828
806.478	28854
806.62	28634
806.762	28816
806.904	28953
807.046	29277
807.188	29223
807.33	29056
807.472	29254
807.614	29136
807.756	29105
807.898	29090
808.04	28957
808.182	29018
808.324	29056
808.465	29121
808.607	29296
808.749	29337
808.891	29543
809.033	29444
809.174	29490
809.316	29410
809.458	29311
809.6	29265
809.741	29592
809.883	29497
810.025	29707
810.166	29767
810.308	29649
810.45	29668
810.591	29535
810.733	29391
810.875	29486
811.016	29391
811.158	29452
811.299	29509
811.441	29554
811.582	29573
811.724	29509
811.865	29497
812.007	29581
812.148	29512
812.29	29604
812.431	29638
812.573	29767
812.714	29950
812.855	29965
812.997	30041
813.138	30152
813.279	30125
813.421	29992
813.562	29790
813.703	29752
813.845	29482
813.986	29520
814.127	29288
814.268	29204
814.41	29102
814.551	29105
814.692	29185
814.833	29166
814.974	29090
815.115	29204
815.256	29056
815.397	29121
815.539	28957
815.68	28980
815.821	28930
815.962	28892
816.103	28984
816.244	28793
816.385	28755
816.526	28774
816.666	28569
816.807	28394
816.948	28664
817.089	28493
817.23	28462
817.371	28466
817.512	28485
817.653	28459
817.793	28352
817.934	28489
818.075	28424
818.216	28470
818.356	28516
818.497	28344
818.638	28219
818.778	28242
818.919	28360
819.06	28204
819.2	28306
819.341	28451
819.481	28470
819.622	28630
819.762	28771
819.903	28660
820.043	28763
820.184	28538
820.324	28767
820.465	28637
820.605	28557
820.746	28569
820.886	28527
821.026	28622
821.167	28527
821.307	28607
821.447	28557
821.588	28405
821.728	28538
821.868	28112
822.008	27892
822.149	27972
822.289	28086
822.429	27633
822.569	27485
822.709	27724
822.849	27504
822.99	27523
823.13	27656
823.27	27443
823.41	27279
823.55	27321
823.69	27279
823.83	27348
823.97	27321
824.11	27081
824.25	27222
824.389	27184
824.529	27173
824.669	27032
824.809	27184
824.949	27173
825.089	27272
825.228	27135
825.368	26994
825.508	26994
825.648	27066
825.787	27043
825.927	27005
826.067	26994
826.206	27039
826.346	27058
826.485	27055
826.625	27013
826.765	27119
826.904	27051
827.044	26758
827.183	26819
827.323	26670
827.462	26727
827.601	26743
827.741	26693
827.88	26602
828.02	26594
828.159	26712
828.298	26674
828.437	26823
828.577	26697
828.716	26811
828.855	26682
828.994	26499
829.134	26400
829.273	26571
829.412	26431
829.551	26294
829.69	26404
829.829	26320
829.968	26609
830.107	26514
830.246	26286
830.385	26298
830.524	26256
830.663	26202
830.802	26225
830.941	26084
831.08	26046
831.219	26084
831.357	26130
831.496	26275
831.635	25997
831.774	26107
831.913	25875
832.051	25856
832.19	25833
832.329	25906
832.467	25677
832.606	25616
832.744	25624
832.883	25643
833.022	25666
833.16	25727
833.299	25776
833.437	25788
833.576	25753
833.714	25696
833.852	25845
833.991	25795
834.129	25776
834.267	25742
834.406	25811
834.544	25845
834.682	25765
834.821	25845
834.959	25875
835.097	25628
835.235	25894
835.373	25620
835.511	25765
835.65	25750
835.788	25578
835.926	25460
836.064	25479
836.202	25400
836.34	25548
836.478	25780
836.615	25533
836.753	25540
836.891	25506
837.029	25594
837.167	25445
837.305	25449
837.443	25499
837.58	25464
837.718	25343
837.856	25457
837.993	25358
838.131	25335
838.269	25175
838.406	25324
838.544	25221
838.681	25053
838.819	25004
838.956	24962
839.094	24795
839.231	24901
839.369	24996
839.506	25293
839.643	25152
839.781	24875
839.918	24810
840.055	24840
840.193	24829
840.33	24757
840.467	24886
840.604	24719
840.742	25114
840.879	24635
841.016	24639
841.153	24631
841.29	24909
841.427	24897
841.564	24753
841.701	24913
841.838	24654
841.975	24502
842.112	24715
842.249	24479
842.385	24570
842.522	24814
842.659	24540
842.796	24631
842.933	24505
843.069	24486
843.206	24456
843.343	24707
843.479	24456
843.616	24589
843.752	24365
843.889	24273
844.025	24369
844.162	24304
844.298	24441
844.435	24369
844.571	24315
844.708	24372
844.844	24437
844.98	24357
845.117	24433
845.253	24311
845.389	24083
845.525	24209
845.661	24087
845.798	24057
845.934	24136
846.07	23988
846.206	24022
846.342	24155
846.478	23980
846.614	23790
846.75	23539
846.886	23741
847.022	23764
847.158	23805
847.294	23733
847.429	23714
847.565	23767
847.701	23961
847.837	23570
847.972	23486
848.108	23570
848.244	23577
848.379	23440
848.515	23364
848.65	23277
848.786	23326
848.921	23349
849.057	23619
849.192	23452
849.328	23402
849.463	23402
849.598	23155
849.734	23349
849.869	23303
850.004	23006
850.14	23075
850.275	23014
850.41	22946
850.545	22942
850.68	23029
850.815	23090
850.95	22995
851.085	23166
851.22	23250
851.355	23220
851.49	23071
851.625	23064
851.76	23029
851.895	23022
852.03	23041
852.165	23090
852.299	23067
852.434	23075
852.569	23006
852.703	23098
852.838	23235
852.973	23235
853.107	23121
853.242	22942
853.376	22934
853.511	22854
853.645	22869
853.78	23109
853.914	22911
854.048	22949
854.183	22900
854.317	23033
854.451	23121
854.585	22869
854.72	22805
854.854	22927
854.988	22877
855.122	23044
855.256	22736
855.39	22850
855.524	22877
855.658	23018
855.792	22831
855.926	22980
856.06	22976
856.194	22934
856.327	22972
856.461	22820
856.595	22847
856.729	22862
856.862	22987
856.996	22949
857.13	23006
857.263	23041
857.397	23075
857.53	22828
857.664	23029
857.797	22949
857.931	22900
858.064	22972
858.197	22999
858.331	22809
858.464	22938
858.597	22653
858.731	22915
858.864	22843
858.997	22843
859.13	22892
859.263	22930
859.396	22976
859.529	22862
859.662	22843
859.795	22847
859.928	22801
860.061	22957
860.194	23117
860.327	22972
860.46	23018
860.592	23079
860.725	23067
860.858	22934
860.99	22816
861.123	22881
861.256	22858
861.388	23105
861.521	23528
861.653	22812
861.786	22675
861.918	22725
862.05	22767
862.183	22767
862.315	22816
862.447	22862
862.58	22759
862.712	22554
862.844	22577
862.976	22687
863.108	22736
863.24	23246
863.372	22626
863.504	22683
863.636	22641
863.768	22584
863.9	22645
864.032	22497
864.164	22497
864.296	22622
864.428	22831
864.559	22626
864.691	22641
864.823	22691
864.954	22538
865.086	22527
865.217	22447
865.349	22379
865.48	22375
865.612	22325
865.743	22443
865.875	22409
866.006	22489
866.137	22523
866.269	22470
866.4	22470
866.531	22398
866.662	22344
866.793	22516
866.924	22428
867.055	22432
867.186	22443
867.317	22447
867.448	22379
867.579	22341
867.71	22421
867.841	22306
867.972	22413
868.103	22348
868.233	22402
868.364	22356
868.495	22489
868.625	22557
868.756	22778
868.886	22565
869.017	22519
869.147	22691
869.278	22630
869.408	22634
869.539	22710
869.669	22687
869.799	22721
869.929	22698
870.06	22767
870.19	22828
870.32	22930
870.45	22976
870.58	23086
870.71	23166
870.84	23124
870.97	23048
871.1	23064
871.23	23140
871.36	23235
871.489	23143
871.619	23239
871.749	23292
871.879	23223
872.008	23425
872.138	23185
872.267	23147
872.397	23159
872.526	22965
872.656	23124
872.785	23109
872.915	23303
873.044	23288
873.173	23334
873.303	23166
873.432	23364
873.561	23322
873.69	23391
873.819	23273
873.948	23315
874.077	23387
874.206	23143
874.335	23292
874.464	23242
874.593	23573
874.722	23379
874.851	23406
874.979	23478
875.108	23512
875.237	23467
875.365	23322
875.494	23292
875.623	23414
875.751	23387
875.88	23493
876.008	23623
876.136	23703
876.265	23874
876.393	23851
876.521	23908
876.65	24003
876.778	23897
876.906	23828
877.034	23828
877.162	23649
877.29	23737
877.418	23783
877.546	23760
877.674	23783
877.802	23642
877.93	23855
878.058	23703
878.185	23627
878.313	23794
878.441	23775
878.568	23722
878.696	23653
878.824	23843
878.951	23847
879.079	23980
879.206	24064
879.333	23927
879.461	23855
879.588	23855
879.715	23961
879.842	24098
879.97	23840
880.097	23615
880.224	23726
880.351	23604
880.478	23684
880.605	23627
880.732	23611
880.859	23798
880.986	23493
881.112	23745
881.239	23433
881.366	23299
881.493	23197
881.619	23136
881.746	23235
881.872	23010
881.999	23136
882.125	23113
882.252	23250
882.378	23155
882.505	23132
882.631	23090
882.757	22911
882.883	22782
883.01	22820
883.136	22782
883.262	22622
883.388	22702
883.514	22816
883.64	22904
883.766	22774
883.892	22577
884.018	22611
884.143	22702
884.269	22805
884.395	22474
884.52	22440
884.646	22481
884.772	22470
884.897	22367
885.023	22356
885.148	22561
885.274	22542
885.399	22561
885.524	22481
885.65	22546
885.775	22417
885.9	22546
886.025	22538
886.15	22485
886.275	22402
886.4	22455
886.525	22379
886.65	22333
886.775	22223
886.9	22592
887.025	22569
887.149	22443
887.274	22257
887.399	22211
887.523	22139
887.648	22078
887.773	22067
887.897	22219
888.021	22154
888.146	22211
888.27	22314
888.395	22348
888.519	22063
888.643	22268
888.767	22215
888.891	22143
889.015	22002
889.139	22173
889.263	21937
889.387	22029
889.511	22169
889.635	22120
889.759	21975
889.883	22082
890.006	21949
890.13	22162
890.254	22010
890.377	21975
890.501	21846
890.624	21751
890.748	21808
890.871	21698
890.995	21561
891.118	21538
891.241	21553
891.364	21583
891.488	21823
891.611	21526
891.734	21492
891.857	21606
891.98	21561
892.103	21633
892.226	21553
892.349	21405
892.471	21348
892.594	21500
892.717	21488
892.839	21485
892.962	21534
893.085	21405
893.207	21405
893.33	21329
893.452	21291
893.575	21359
893.697	21367
893.819	21587
893.941	21686
894.064	21591
894.186	21367
894.308	21344
894.43	21614
894.552	21477
894.674	21511
894.796	21298
894.918	21359
895.04	21378
895.161	21488
895.283	21500
895.405	21313
895.526	21310
895.648	21336
895.769	21397
895.891	21519
896.012	21481
896.134	21359
896.255	21500
896.376	21428
896.498	21306
896.619	21405
896.74	21450
896.861	21477
896.982	21739
897.103	21770
897.224	21641
897.345	21610
897.466	21542
897.587	21591
897.708	21656
897.828	21656
897.949	21591
898.07	21397
898.19	21462
898.311	21599
898.431	21507
898.552	21526
898.672	21701
898.792	21648
898.913	21549
899.033	21443
899.153	21458
899.273	21306
899.393	21389
899.513	21363
899.633	21389
899.753	21306
899.873	21241
899.993	21431
900.113	21222
900.232	21344
900.352	21169
900.472	21123
900.591	21074
900.711	21150
900.83	21055
900.95	21218
901.069	21230
901.189	20902
901.308	20781
901.427	20712
901.546	20579
901.665	20549
901.784	20788
901.904	20457
902.023	20374
902.141	20115
902.26	20092
902.379	20142
902.498	20161
902.617	20122
902.735	20271
902.854	20115
902.973	20008
903.091	19799
903.21	19811
903.328	19765
903.446	19727
903.565	19655
903.683	19731
903.801	19552
903.919	19506
904.038	19495
904.156	19365
904.274	19506
904.392	19255
904.51	19324
904.627	19411
904.745	19365
904.863	19343
904.981	19168
905.098	18947
905.216	19065
905.334	19126
905.451	19126
905.569	19042
905.686	19019
905.803	19053
905.921	18894
906.038	18932
906.155	18897
906.272	18745
906.389	18719
906.506	18604
906.623	18578
906.74	18578
906.857	18418
906.974	18391
907.091	18502
907.208	18798
907.324	18681
907.441	18494
907.557	18277
907.674	18319
907.79	18125
907.907	18228
908.023	18209
908.139	18254
908.256	18216
908.372	18148
908.488	18079
908.604	17984
908.72	18003
908.836	18060
908.952	17942
909.068	18007
909.184	18011
909.3	17973
909.415	18079
909.531	17988
909.647	17756
909.762	17802
909.878	17634
909.993	17684
910.108	17668
910.224	17596
910.339	17684
910.454	17657
910.57	17490
910.685	17478
910.8	17596
910.915	17600
911.03	17501
911.145	17356
911.259	17250
911.374	17223
911.489	17193
911.604	17147
911.718	16942
911.833	17056
911.947	16908
912.062	16790
912.176	17071
912.291	17060
912.405	16995
912.519	17143
912.633	17200
912.748	17166
912.862	17033
912.976	16862
913.09	16774
913.204	16755
913.318	16786
913.431	16843
913.545	16839
913.659	16862
913.772	16698
913.886	16618
914	16668
914.113	16645
914.226	16645
914.34	16736
914.453	16428
914.566	16592
914.68	16523
914.793	16500
914.906	16188
915.019	16257
915.132	16139
915.245	16105
915.358	16272
915.47	16036
915.583	16116
915.696	16242
915.809	16196
915.921	16322
916.034	16147
916.146	15983
916.259	16040
916.371	16086
916.483	15983
916.595	15907
916.708	15964
916.82	15880
916.932	15979
917.044	15888
917.156	15911
917.268	15793
917.38	15743
917.491	15656
917.603	15812
917.715	15895
917.826	15804
917.938	15728
918.049	15614
918.161	15633
918.272	15816
918.384	15785
918.495	15667
918.606	15454
918.717	15424
918.828	15523
918.939	15572
919.05	15389
919.161	15412
919.272	15279
919.383	15447
919.494	15507
919.604	15656
919.715	15408
919.826	15485
919.936	15466
920.047	15599
920.157	15526
920.267	15770
920.378	15492
920.488	15313
920.598	15663
920.708	15800
920.818	15603
920.928	15606
921.038	15751
921.148	15667
921.258	15355
921.368	15287
921.477	15241
921.587	15245
921.697	15142
921.806	15077
921.916	14979
922.025	14963
922.134	14746
922.244	14815
922.353	14834
922.462	14693
922.571	14651
922.68	14514
922.789	14336
922.898	14377
923.007	14362
923.116	14465
923.224	14454
923.333	14317
923.442	14377
923.55	14210
923.659	14309
923.767	14355
923.876	14161
923.984	14233
924.092	14050
924.201	14157
924.309	14100
924.417	14119
924.525	14062
924.633	14092
924.741	14834
924.849	13830
924.956	14024
925.064	13788
925.172	13788
925.279	13837
925.387	13799
925.494	13772
925.602	13928
925.709	13845
925.816	13696
925.924	13723
926.031	13769
926.138	13708
926.245	13750
926.352	13628
926.459	13677
926.566	13677
926.673	13681
926.779	13506
926.886	13643
926.993	13362
927.099	13381
927.206	13343
927.312	13285
927.419	13472
927.525	13365
927.631	13388
927.737	13187
927.843	13187
927.95	13034
928.056	13129
928.162	13080
928.267	13206
928.373	13780
928.479	13171
928.585	13015
928.69	13107
928.796	13168
928.901	12996
929.007	12859
929.112	13027
929.218	12920
929.323	12867
929.428	12913
929.533	12943
929.638	12734
929.743	12768
929.848	12760
929.953	12749
930.058	12639
930.163	12525
930.267	12555
930.372	12639
930.477	12544
930.581	12719
930.685	12502
930.79	12422
930.894	12365
930.998	12342
931.103	12384
931.207	12159
931.311	12057
931.415	11980
931.519	11802
931.623	11714
