Data from test_V78500241_34.txt Node
Date: Fri Mar 25 15:42:02 CST 2022
User: usil
Spectrometer: V785-0024
Trigger mode: 0
Integration Time (sec): 4.000000E-1
Scans to average: 1
Nonlinearity correction enabled: false
Boxcar width: 0
Storing dark spectrum: false
XAxis mode: Wavelengths
Number of Pixels in Spectrum: 1024
>>>>>Begin Spectral Data<<<<<
801.071	27964
801.214	27888
801.356	27557
801.499	27606
801.641	27511
801.783	27374
801.926	27386
802.068	27374
802.211	27268
802.353	27230
802.496	27028
802.638	26979
802.78	26883
802.923	26762
803.065	26857
803.208	26849
803.35	26906
803.492	26960
803.635	27169
803.777	26979
803.919	27123
804.061	27481
804.204	27039
804.346	26925
804.488	26902
804.63	26887
804.773	26891
804.915	26986
805.057	27066
805.199	26948
805.341	27032
805.483	27184
805.626	27062
805.768	26994
805.91	27112
806.052	27104
806.194	26975
806.336	27100
806.478	27051
806.62	26960
806.762	27176
806.904	27298
807.046	27427
807.188	27329
807.33	27485
807.472	27386
807.614	27367
807.756	27317
807.898	27127
808.04	27077
808.182	27131
808.324	27051
808.465	27077
808.607	27313
808.749	27393
808.891	27606
809.033	27580
809.174	27447
809.316	27412
809.458	27408
809.6	27359
809.741	27469
809.883	27557
810.025	27614
810.166	27686
810.308	27690
810.45	27751
810.591	27622
810.733	27386
810.875	27264
811.016	27233
811.158	27268
811.299	27580
811.441	27374
811.582	27530
811.724	27302
811.865	27351
812.007	27416
812.148	27363
812.29	27340
812.431	27629
812.573	27603
812.714	27686
812.855	27808
812.997	27888
813.138	27956
813.279	27907
813.421	27819
813.562	27724
813.703	27614
813.845	27393
813.986	27150
814.127	27062
814.268	27017
814.41	26960
814.551	26891
814.692	26937
814.833	26895
814.974	26880
815.115	26807
815.256	26701
815.397	26693
815.539	26697
815.68	26571
815.821	26442
815.962	26522
816.103	26556
816.244	26301
816.385	26438
816.526	26275
816.666	26084
816.807	25936
816.948	26065
817.089	26122
817.23	26001
817.371	25921
817.512	25966
817.653	25799
817.793	25887
817.934	25928
818.075	25925
818.216	25814
818.356	25841
818.497	25753
818.638	25582
818.778	25632
818.919	25639
819.06	25586
819.2	25841
819.341	25658
819.481	25852
819.622	25970
819.762	26073
819.903	25993
820.043	25902
820.184	25909
820.324	25932
820.465	26008
820.605	25959
820.746	25807
820.886	25674
821.026	25708
821.167	25753
821.307	25974
821.447	25693
821.588	25700
821.728	25605
821.868	25388
822.008	25236
822.149	25236
822.289	25190
822.429	24973
822.569	24837
822.709	24935
822.849	24734
822.99	24700
823.13	24677
823.27	24650
823.41	24410
823.55	24281
823.69	24448
823.83	24456
823.97	24582
824.11	24243
824.25	24216
824.389	24117
824.529	24251
824.669	24209
824.809	24365
824.949	24315
825.089	24346
825.228	24292
825.368	23980
825.508	24076
825.648	23969
825.787	23992
825.927	24034
826.067	23927
826.206	23984
826.346	23988
826.485	24129
826.625	24018
826.765	24083
826.904	24079
827.044	23912
827.183	23775
827.323	23528
827.462	23764
827.601	23570
827.741	23551
827.88	23676
828.02	23524
828.159	23691
828.298	23630
828.437	23707
828.577	23570
828.716	23642
828.855	23577
828.994	23410
829.134	23455
829.273	23376
829.412	23292
829.551	23307
829.69	23189
829.829	23280
829.968	23284
830.107	23406
830.246	23337
830.385	23181
830.524	23239
830.663	23071
830.802	22987
830.941	22843
831.08	22904
831.219	23006
831.357	22873
831.496	23090
831.635	22843
831.774	22755
831.913	22729
832.051	22706
832.19	22443
832.329	22656
832.467	22443
832.606	22432
832.744	22398
832.883	22436
833.022	22295
833.16	22508
833.299	22535
833.437	22538
833.576	22489
833.714	22596
833.852	22485
833.991	22497
834.129	22596
834.267	22630
834.406	22527
834.544	22584
834.682	22413
834.821	22470
834.959	22611
835.097	22306
835.235	22523
835.373	22459
835.511	22371
835.65	22413
835.788	22333
835.926	22204
836.064	22055
836.202	22135
836.34	22314
836.478	22379
836.615	22185
836.753	22322
836.891	22371
837.029	22230
837.167	22234
837.305	22318
837.443	22173
837.58	22109
837.718	22207
837.856	22158
837.993	21972
838.131	22021
838.269	22097
838.406	21926
838.544	21945
838.681	21724
838.819	21705
838.956	21656
839.094	21580
839.231	21641
839.369	21816
839.506	21945
839.643	21705
839.781	21530
839.918	21428
840.055	21519
840.193	21511
840.33	21462
840.467	21443
840.604	21519
840.742	21747
840.879	21439
841.016	21454
841.153	21405
841.29	21530
841.427	21447
841.564	21412
841.701	21435
841.838	21519
841.975	21283
842.112	21351
842.249	21336
842.385	21135
842.522	21310
842.659	21176
842.796	21085
842.933	21154
843.069	21024
843.206	21119
843.343	21226
843.479	21089
843.616	21123
843.752	20952
843.889	20902
844.025	20967
844.162	20830
844.298	21070
844.435	20914
844.571	20769
844.708	20910
844.844	20967
844.98	20990
845.117	20975
845.253	20830
845.389	20621
845.525	20823
845.661	20769
845.798	20503
845.934	20636
846.07	20518
846.206	20629
846.342	20697
846.478	20663
846.614	20408
846.75	20240
846.886	20423
847.022	20514
847.158	20362
847.294	20248
847.429	20240
847.565	20282
847.701	20556
847.837	19906
847.972	19986
848.108	20043
848.244	20043
848.379	20062
848.515	19944
848.65	19864
848.786	19856
848.921	19947
849.057	20050
849.192	20008
849.328	19925
849.463	19879
849.598	19822
849.734	19833
849.869	19772
850.004	19529
850.14	19689
850.275	19700
850.41	19594
850.545	19548
850.68	19537
850.815	19575
850.95	19586
851.085	19757
851.22	19715
851.355	19586
851.49	19487
851.625	19529
851.76	19613
851.895	19422
852.03	19400
852.165	19666
852.299	19586
852.434	19628
852.569	19655
852.703	19483
852.838	19635
852.973	19689
853.107	19616
853.242	19464
853.376	19392
853.511	19304
853.645	19403
853.78	19476
853.914	19533
854.048	19343
854.183	19278
854.317	19381
854.451	19601
854.585	19362
854.72	19343
854.854	19430
854.988	19301
855.122	19206
855.256	19244
855.39	19339
855.524	19487
855.658	19426
855.792	19373
855.926	19388
856.06	19453
856.194	19407
856.327	19495
856.461	19362
856.595	19381
856.729	19346
856.862	19392
856.996	19441
857.13	19449
857.263	19575
857.397	19495
857.53	19365
857.664	19445
857.797	19480
857.931	19537
858.064	19362
858.197	19415
858.331	19365
858.464	19533
858.597	19240
858.731	19343
858.864	19289
858.997	19278
859.13	19415
859.263	19396
859.396	19289
859.529	19419
859.662	19228
859.795	19304
859.928	19396
860.061	19407
860.194	19483
860.327	19411
860.46	19244
860.592	19381
860.725	19438
860.858	19415
860.99	19293
861.123	19240
861.256	19179
861.388	19308
861.521	19864
861.653	19228
861.786	19190
861.918	19198
862.05	19278
862.183	19324
862.315	19362
862.447	19510
862.58	19297
862.712	19110
862.844	19057
862.976	19164
863.108	19202
863.24	19388
863.372	18993
863.504	18973
863.636	18977
863.768	19198
863.9	19057
864.032	18977
864.164	19004
864.296	18947
864.428	19065
864.559	18962
864.691	19175
864.823	18951
864.954	19000
865.086	19069
865.217	18920
865.349	18913
865.48	18856
865.612	19076
865.743	19156
865.875	18894
866.006	18875
866.137	18928
866.269	19038
866.4	18905
866.531	18973
866.662	18844
866.793	18993
866.924	18875
867.055	18882
867.186	18989
867.317	18894
867.448	18696
867.579	18951
867.71	18776
867.841	18776
867.972	18928
868.103	18840
868.233	18840
868.364	18810
868.495	19053
868.625	19004
868.756	19179
868.886	19000
869.017	19103
869.147	19198
869.278	19194
869.408	19122
869.539	19080
869.669	19122
869.799	19107
869.929	19263
870.06	19164
870.19	19381
870.32	19426
870.45	19499
870.58	19529
870.71	19552
870.84	19609
870.97	19502
871.1	19502
871.23	19700
871.36	19772
871.489	19635
871.619	19708
871.749	19746
871.879	19784
872.008	19769
872.138	19727
872.267	19788
872.397	19552
872.526	19537
872.656	19521
872.785	19537
872.915	19761
873.044	19845
873.173	19814
873.303	19830
873.432	19742
873.561	19921
873.69	19738
873.819	19826
873.948	19830
874.077	19727
874.206	19852
874.335	19734
874.464	19841
874.593	19925
874.722	19894
874.851	20050
874.979	20081
875.108	19959
875.237	20069
875.365	19864
875.494	20016
875.623	19986
875.751	19970
875.88	20046
876.008	20157
876.136	20301
876.265	20473
876.393	20609
876.521	20495
876.65	20511
876.778	20442
876.906	20362
877.034	20332
877.162	20381
877.29	20309
877.418	20374
877.546	20351
877.674	20309
877.802	20415
877.93	20393
878.058	20324
878.185	20358
878.313	20286
878.441	20389
878.568	20278
878.696	20301
878.824	20396
878.951	20423
879.079	20533
879.206	20667
879.333	20499
879.461	20377
879.588	20507
879.715	20594
879.842	20613
879.97	20473
880.097	20294
880.224	20195
880.351	20229
880.478	20237
880.605	20168
880.732	20263
880.859	20473
880.986	20294
881.112	20252
881.239	20050
881.366	19967
881.493	19879
881.619	19807
881.746	19925
881.872	19887
881.999	19822
882.125	19811
882.252	19860
882.378	19871
882.505	19967
882.631	19868
882.757	19609
882.883	19704
883.01	19597
883.136	19518
883.262	19457
883.388	19350
883.514	19556
883.64	19685
883.766	19586
883.892	19350
884.018	19358
884.143	19575
884.269	19620
884.395	19411
884.52	19228
884.646	19297
884.772	19107
884.897	19206
885.023	19194
885.148	19316
885.274	19362
885.399	19289
885.524	19255
885.65	19270
885.775	19244
885.9	19141
886.025	19251
886.15	19266
886.275	19133
886.4	19069
886.525	19190
886.65	19148
886.775	19122
886.9	19289
887.025	19426
887.149	19225
887.274	19095
887.399	19008
887.523	18939
887.648	18913
887.773	18871
887.897	19053
888.021	19053
888.146	19000
888.27	19107
888.395	19061
888.519	19084
888.643	19038
888.767	19061
888.891	18798
889.015	18810
889.139	18829
889.263	18768
889.387	18909
889.511	19061
889.635	18920
889.759	18658
889.883	18749
890.006	18890
890.13	18802
890.254	18749
890.377	18681
890.501	18544
890.624	18490
890.748	18551
890.871	18566
890.995	18311
891.118	18194
891.241	18308
891.364	18414
891.488	18547
891.611	18494
891.734	18346
891.857	18399
891.98	18350
892.103	18498
892.226	18403
892.349	18254
892.471	18235
892.594	18429
892.717	18350
892.839	18258
892.962	18391
893.085	18380
893.207	18422
893.33	18178
893.452	18270
893.575	18372
893.697	18323
893.819	18483
893.941	18509
894.064	18460
894.186	18350
894.308	18334
894.43	18437
894.552	18582
894.674	18441
894.796	18140
894.918	18357
895.04	18323
895.161	18357
895.283	18414
895.405	18429
895.526	18342
895.648	18235
895.769	18369
895.891	18342
896.012	18448
896.134	18521
896.255	18338
896.376	18426
896.498	18464
896.619	18475
896.74	18399
896.861	18441
896.982	18848
897.103	19008
897.224	18601
897.345	18760
897.466	18521
897.587	18665
897.708	18837
897.828	18726
897.949	18551
898.07	18456
898.19	18608
898.311	18757
898.431	18559
898.552	18612
898.672	18669
898.792	18620
898.913	18658
899.033	18464
899.153	18395
899.273	18334
899.393	18334
899.513	18304
899.633	18460
899.753	18319
899.873	18346
899.993	18388
900.113	18315
900.232	18273
900.352	18281
900.472	18258
900.591	18129
900.711	18144
900.83	18155
900.95	18338
901.069	18384
901.189	18148
901.308	17855
901.427	17805
901.546	17817
901.665	17710
901.784	17851
901.904	17726
902.023	17615
902.141	17471
902.26	17322
902.379	17471
902.498	17299
902.617	17185
902.735	17326
902.854	17330
902.973	17235
903.091	17048
903.21	16949
903.328	16911
903.446	16919
903.565	16778
903.683	16790
903.801	16710
903.919	16843
904.038	16793
904.156	16641
904.274	16672
904.392	16565
904.51	16542
904.627	16527
904.745	16653
904.863	16694
904.981	16272
905.098	16257
905.216	16177
905.334	16265
905.451	16280
905.569	16105
905.686	16200
905.803	16211
905.921	16063
906.038	16036
906.155	16044
906.272	15838
906.389	16071
906.506	15831
906.623	15835
906.74	15694
906.857	15652
906.974	15652
907.091	15835
907.208	15892
907.324	15827
907.441	15736
907.557	15633
907.674	15447
907.79	15408
907.907	15454
908.023	15500
908.139	15534
908.256	15325
908.372	15359
908.488	15298
908.604	15222
908.72	15051
908.836	15131
908.952	15123
909.068	15233
909.184	15291
909.3	15093
909.415	15245
909.531	15108
909.647	14956
909.762	14952
909.878	14773
909.993	14906
910.108	14891
910.224	14769
910.339	14830
910.454	14781
910.57	14735
910.685	14693
910.8	14895
910.915	14739
911.03	14682
911.145	14537
911.259	14423
911.374	14598
911.489	14431
911.604	14309
911.718	14164
911.833	14328
911.947	14248
912.062	14119
912.176	14240
912.291	14389
912.405	14256
912.519	14431
912.633	14442
912.748	14210
912.862	14218
912.976	14119
913.09	13913
913.204	14050
913.318	14126
913.431	14115
913.545	14123
913.659	14172
913.772	14046
913.886	13970
914	13845
914.113	13993
914.226	13951
914.34	13959
914.453	13906
914.566	13978
914.68	13879
914.793	13769
914.906	13578
915.019	13586
915.132	13457
915.245	13521
915.358	13578
915.47	13571
915.583	13582
915.696	13544
915.809	13689
915.921	13742
916.034	13518
916.146	13407
916.259	13464
916.371	13495
916.483	13540
916.595	13419
916.708	13346
916.82	13308
916.932	13407
917.044	13343
917.156	13346
917.268	13312
917.38	13263
917.491	13160
917.603	13263
917.715	13327
917.826	13263
917.938	13247
918.049	13053
918.161	13221
918.272	13312
918.384	13419
918.495	13270
918.606	13126
918.717	12958
918.828	13027
918.939	13114
919.05	12894
919.161	12951
919.272	12817
919.383	12875
919.494	13069
919.604	13240
919.715	13031
919.826	12856
919.936	12943
920.047	13065
920.157	12951
920.267	13213
920.378	12943
920.488	12943
920.598	13190
920.708	13217
920.818	13129
920.928	13156
921.038	13304
921.148	13270
921.258	13042
921.368	12901
921.477	12753
921.587	12738
921.697	12711
921.806	12734
921.916	12627
922.025	12429
922.134	12407
922.244	12361
922.353	12433
922.462	12281
922.571	12224
922.68	12136
922.789	12064
922.898	12072
923.007	12041
923.116	12140
923.224	12057
923.333	11939
923.442	11866
923.55	11973
923.659	11946
923.767	12019
923.876	11840
923.984	11836
924.092	11817
924.201	11783
924.309	11779
924.417	11878
924.525	11783
924.633	11771
924.741	12779
924.849	11604
924.956	11661
925.064	11665
925.172	11570
925.279	11615
925.387	11604
925.494	11627
925.602	11699
925.709	11733
925.816	11524
925.924	11630
926.031	11638
926.138	11463
926.245	11573
926.352	11493
926.459	11596
926.566	11600
926.673	11535
926.779	11376
926.886	11345
926.993	11254
927.099	11212
927.206	11208
927.312	11086
927.419	11265
927.525	11311
927.631	11231
927.737	11128
927.843	11105
927.95	10927
928.056	11071
928.162	11083
928.267	11113
928.373	11756
928.479	11216
928.585	10839
928.69	11060
928.796	11090
928.901	10991
929.007	10698
929.112	10946
929.218	10885
929.323	10816
929.428	10771
929.533	10930
929.638	10710
929.743	10786
929.848	10786
929.953	10839
930.058	10683
930.163	10554
930.267	10546
930.372	10637
930.477	10421
930.581	10824
930.685	10554
930.79	10447
930.894	10478
930.998	10363
931.103	10493
931.207	10173
931.311	10082
931.415	10021
931.519	9869
931.623	9861
