Data from test_V78500241_1805.txt Node
Date: Fri Mar 25 15:54:18 CST 2022
User: usil
Spectrometer: V785-0024
Trigger mode: 0
Integration Time (sec): 4.000000E-1
Scans to average: 1
Nonlinearity correction enabled: false
Boxcar width: 0
Storing dark spectrum: false
XAxis mode: Wavelengths
Number of Pixels in Spectrum: 1024
>>>>>Begin Spectral Data<<<<<
801.071	28630
801.214	28611
801.356	28466
801.499	28432
801.641	28230
801.783	28390
801.926	28204
802.068	28341
802.211	28188
802.353	28211
802.496	27903
802.638	27774
802.78	27884
802.923	27705
803.065	27698
803.208	27686
803.35	27949
803.492	28158
803.635	28124
803.777	28070
803.919	28048
804.061	28462
804.204	28341
804.346	28051
804.488	28067
804.63	28306
804.773	28128
804.915	28131
805.057	28432
805.199	28284
805.341	28303
805.483	28341
805.626	28432
805.768	28367
805.91	28390
806.052	28432
806.194	28261
806.336	28504
806.478	28352
806.62	28436
806.762	28443
806.904	28634
807.046	28778
807.188	28782
807.33	28660
807.472	28885
807.614	28607
807.756	28790
807.898	28687
808.04	28489
808.182	28523
808.324	28767
808.465	28744
808.607	28908
808.749	28919
808.891	28987
809.033	29258
809.174	29155
809.316	29117
809.458	28984
809.6	28957
809.741	29128
809.883	29143
810.025	29375
810.166	29375
810.308	29341
810.45	29197
810.591	29220
810.733	29117
810.875	29037
811.016	28968
811.158	29033
811.299	29269
811.441	29185
811.582	29269
811.724	29155
811.865	29067
812.007	29064
812.148	29064
812.29	28984
812.431	29235
812.573	29391
812.714	29478
812.855	29391
812.997	29581
813.138	29733
813.279	29638
813.421	29467
813.562	29490
813.703	29299
813.845	29216
813.986	29025
814.127	28957
814.268	28679
814.41	28668
814.551	28828
814.692	28755
814.833	28839
814.974	28641
815.115	28790
815.256	28698
815.397	28607
815.539	28611
815.68	28565
815.821	28645
815.962	28733
816.103	28653
816.244	28440
816.385	28348
816.526	28440
816.666	28211
816.807	27895
816.948	28063
817.089	28055
817.23	28150
817.371	27964
817.512	27968
817.653	28082
817.793	28055
817.934	28086
818.075	28040
818.216	28185
818.356	27991
818.497	27987
818.638	27907
818.778	27781
818.919	27705
819.06	27850
819.2	28090
819.341	28002
819.481	28105
819.622	28249
819.762	28356
819.903	28360
820.043	28223
820.184	28154
820.324	28067
820.465	28192
820.605	28272
820.746	28261
820.886	27960
821.026	28070
821.167	28090
821.307	28303
821.447	28158
821.588	27899
821.728	27941
821.868	27778
822.008	27469
822.149	27557
822.289	27427
822.429	27272
822.569	27237
822.709	27214
822.849	27104
822.99	27116
823.13	26975
823.27	26944
823.41	26914
823.55	26842
823.69	26967
823.83	26849
823.97	26826
824.11	26735
824.25	26674
824.389	26735
824.529	26830
824.669	26686
824.809	26849
824.949	26716
825.089	26765
825.228	26811
825.368	26571
825.508	26670
825.648	26507
825.787	26629
825.927	26598
826.067	26537
826.206	26514
826.346	26621
826.485	26640
826.625	26594
826.765	26583
826.904	26644
827.044	26278
827.183	26290
827.323	26248
827.462	26336
827.601	26355
827.741	26309
827.88	26358
828.02	26233
828.159	26240
828.298	26206
828.437	26328
828.577	26183
828.716	26389
828.855	26172
828.994	26012
829.134	26012
829.273	26119
829.412	25951
829.551	25951
829.69	25940
829.829	25966
829.968	26138
830.107	26084
830.246	25784
830.385	25852
830.524	25883
830.663	25750
830.802	25651
830.941	25605
831.08	25575
831.219	25693
831.357	25590
831.496	25864
831.635	25556
831.774	25479
831.913	25609
832.051	25304
832.19	25331
832.329	25392
832.467	25289
832.606	25270
832.744	25171
832.883	25103
833.022	25331
833.16	25274
833.299	25270
833.437	25304
833.576	25327
833.714	25217
833.852	25304
833.991	25388
834.129	25403
834.267	25457
834.406	25354
834.544	25384
834.682	25324
834.821	25301
834.959	25468
835.097	25304
835.235	25297
835.373	25320
835.511	25362
835.65	25099
835.788	25278
835.926	24886
836.064	25012
836.202	24958
836.34	25148
836.478	25301
836.615	25156
836.753	25050
836.891	25301
837.029	25103
837.167	25023
837.305	24977
837.443	25103
837.58	24943
837.718	24939
837.856	24943
837.993	24871
838.131	24856
838.269	24802
838.406	25000
838.544	24814
838.681	24517
838.819	24597
838.956	24391
839.094	24509
839.231	24498
839.369	24555
839.506	24745
839.643	24620
839.781	24384
839.918	24452
840.055	24357
840.193	24315
840.33	24235
840.467	24353
840.604	24323
840.742	24471
840.879	24178
841.016	24262
841.153	24311
841.29	24380
841.427	24338
841.564	24426
841.701	24311
841.838	24174
841.975	24292
842.112	24194
842.249	24228
842.385	24068
842.522	24388
842.659	24110
842.796	24068
842.933	24076
843.069	24003
843.206	24110
843.343	24159
843.479	23969
843.616	24079
843.752	23870
843.889	23870
844.025	23980
844.162	23832
844.298	24015
844.435	23893
844.571	23828
844.708	23843
844.844	24102
844.98	23882
845.117	24030
845.253	23752
845.389	23722
845.525	23707
845.661	23752
845.798	23604
845.934	23707
846.07	23497
846.206	23680
846.342	23646
846.478	23486
846.614	23364
846.75	23208
846.886	23330
847.022	23337
847.158	23261
847.294	23288
847.429	23391
847.565	23318
847.701	23501
847.837	23048
847.972	23018
848.108	23216
848.244	23117
848.379	22949
848.515	22946
848.65	22866
848.786	22923
848.921	22824
849.057	22987
849.192	22984
849.328	22980
849.463	22828
849.598	22885
849.734	22668
849.869	22774
850.004	22767
850.14	22702
850.275	22774
850.41	22470
850.545	22755
850.68	22588
850.815	22683
850.95	22713
851.085	22892
851.22	22706
851.355	22725
851.49	22672
851.625	22653
851.76	22580
851.895	22630
852.03	22561
852.165	22679
852.299	22672
852.434	22694
852.569	22740
852.703	22523
852.838	22683
852.973	22793
853.107	22660
853.242	22630
853.376	22538
853.511	22382
853.645	22382
853.78	22451
853.914	22550
854.048	22470
854.183	22424
854.317	22504
854.451	22664
854.585	22516
854.72	22561
854.854	22451
854.988	22470
855.122	22512
855.256	22390
855.39	22470
855.524	22523
855.658	22691
855.792	22451
855.926	22455
856.06	22519
856.194	22649
856.327	22527
856.461	22436
856.595	22390
856.729	22421
856.862	22588
856.996	22428
857.13	22599
857.263	22656
857.397	22584
857.53	22455
857.664	22535
857.797	22523
857.931	22637
858.064	22519
858.197	22687
858.331	22527
858.464	22379
858.597	22253
858.731	22451
858.864	22451
858.997	22390
859.13	22481
859.263	22478
859.396	22577
859.529	22432
859.662	22466
859.795	22424
859.928	22489
860.061	22713
860.194	22710
860.327	22607
860.46	22565
860.592	22596
860.725	22653
860.858	22588
860.99	22489
861.123	22512
861.256	22554
861.388	22500
861.521	23220
861.653	22443
861.786	22246
861.918	22276
862.05	22356
862.183	22447
862.315	22299
862.447	22542
862.58	22341
862.712	22143
862.844	22135
862.976	22200
863.108	22257
863.24	22653
863.372	22032
863.504	22238
863.636	22223
863.768	22371
863.9	22185
864.032	22234
864.164	22078
864.296	22192
864.428	22200
864.559	22188
864.691	22280
864.823	22169
864.954	22124
865.086	22150
865.217	22025
865.349	22070
865.48	22105
865.612	21979
865.743	22131
865.875	22067
866.006	22013
866.137	22013
866.269	22109
866.4	22067
866.531	22006
866.662	21987
866.793	21994
866.924	21941
867.055	22010
867.186	22017
867.317	21949
867.448	21892
867.579	21903
867.71	21960
867.841	21922
867.972	22025
868.103	21956
868.233	21949
868.364	21945
868.495	22120
868.625	22215
868.756	22447
868.886	22086
869.017	22196
869.147	22360
869.278	22360
869.408	22303
869.539	22257
869.669	22356
869.799	22242
869.929	22268
870.06	22451
870.19	22577
870.32	22577
870.45	22535
870.58	22637
870.71	22812
870.84	22672
870.97	22599
871.1	22717
871.23	22763
871.36	22835
871.489	22675
871.619	22778
871.749	22816
871.879	22892
872.008	22930
872.138	22889
872.267	22713
872.397	22729
872.526	22668
872.656	22656
872.785	22577
872.915	22805
873.044	22995
873.173	22900
873.303	22835
873.432	22889
873.561	22873
873.69	22812
873.819	22774
873.948	22949
874.077	22919
874.206	22812
874.335	22911
874.464	22949
874.593	23079
874.722	23064
874.851	23121
874.979	23098
875.108	23239
875.237	22915
875.365	22904
875.494	23044
875.623	23014
875.751	23075
875.88	23159
876.008	23200
876.136	23299
876.265	23486
876.393	23531
876.521	23520
876.65	23539
876.778	23433
876.906	23410
877.034	23341
877.162	23379
877.29	23440
877.418	23368
877.546	23417
877.674	23421
877.802	23296
877.93	23421
878.058	23410
878.185	23242
878.313	23402
878.441	23315
878.568	23136
878.696	23429
878.824	23433
878.951	23376
879.079	23653
879.206	23771
879.333	23463
879.461	23478
879.588	23516
879.715	23619
879.842	23642
879.97	23528
880.097	23231
880.224	23197
880.351	23181
880.478	23208
880.605	23079
880.732	23223
880.859	23551
880.986	23284
881.112	23250
881.239	23105
881.366	22869
881.493	22725
881.619	22809
881.746	22949
881.872	22847
881.999	22744
882.125	22672
882.252	22869
882.378	22733
882.505	22862
882.631	22508
882.757	22451
882.883	22596
883.01	22565
883.136	22394
883.262	22280
883.388	22185
883.514	22470
883.64	22504
883.766	22318
883.892	22147
884.018	22428
884.143	22379
884.269	22478
884.395	22246
884.52	22067
884.646	22135
884.772	22135
884.897	21975
885.023	22116
885.148	22280
885.274	22147
885.399	22143
885.524	22169
885.65	22097
885.775	22173
885.9	22036
886.025	22162
886.15	22177
886.275	22086
886.4	21968
886.525	22086
886.65	21838
886.775	21903
886.9	22162
887.025	22242
887.149	22135
887.274	21880
887.399	21861
887.523	21838
887.648	21823
887.773	21770
887.897	21956
888.021	21819
888.146	21660
888.27	21930
888.395	21941
888.519	21903
888.643	21892
888.767	21793
888.891	21770
889.015	21694
889.139	21686
889.263	21622
889.387	21690
889.511	21804
889.635	21785
889.759	21732
889.883	21622
890.006	21610
890.13	21717
890.254	21519
890.377	21583
890.501	21519
890.624	21336
890.748	21469
890.871	21359
890.995	21195
891.118	21131
891.241	21157
891.364	21188
891.488	21325
891.611	21173
891.734	21230
891.857	21313
891.98	21161
892.103	21169
892.226	21135
892.349	21028
892.471	20994
892.594	21180
892.717	21142
892.839	21108
892.962	21039
893.085	21199
893.207	21089
893.33	20861
893.452	21001
893.575	21066
893.697	21036
893.819	21165
893.941	21241
894.064	21142
894.186	20910
894.308	21017
894.43	21146
894.552	21142
894.674	21188
894.796	20967
894.918	21112
895.04	21032
895.161	21074
895.283	21066
895.405	20967
895.526	21085
895.648	21013
895.769	21066
895.891	21123
896.012	21058
896.134	21161
896.255	21013
896.376	20994
896.498	21066
896.619	21066
896.74	20941
896.861	20979
896.982	21374
897.103	21466
897.224	21298
897.345	21329
897.466	21142
897.587	21306
897.708	21218
897.828	21370
897.949	21192
898.07	21055
898.19	21211
898.311	21332
898.431	21188
898.552	21283
898.672	21340
898.792	21283
898.913	21306
899.033	21165
899.153	21039
899.273	20971
899.393	20963
899.513	21005
899.633	21100
899.753	20963
899.873	20944
899.993	21013
900.113	20933
900.232	21142
900.352	20899
900.472	20792
900.591	20811
900.711	20754
900.83	20670
900.95	20804
901.069	20845
901.189	20648
901.308	20469
901.427	20263
901.546	20320
901.665	20328
901.784	20252
901.904	20214
902.023	20168
902.141	19913
902.26	19864
902.379	19974
902.498	19715
902.617	19791
902.735	19940
902.854	19833
902.973	19670
903.091	19525
903.21	19419
903.328	19537
903.446	19415
903.565	19407
903.683	19270
903.801	19114
903.919	19244
904.038	19270
904.156	19042
904.274	19027
904.392	18973
904.51	19034
904.627	19072
904.745	19129
904.863	19057
904.981	18726
905.098	18700
905.216	18722
905.334	18779
905.451	18620
905.569	18757
905.686	18688
905.803	18681
905.921	18475
906.038	18582
906.155	18620
906.272	18456
906.389	18414
906.506	18216
906.623	18281
906.74	18251
906.857	18121
906.974	18117
907.091	18228
907.208	18388
907.324	18289
907.441	18163
907.557	17950
907.674	18038
907.79	17809
907.907	18007
908.023	17939
908.139	17912
908.256	17832
908.372	17973
908.488	17813
908.604	17608
908.72	17585
908.836	17661
908.952	17452
909.068	17710
909.184	17737
909.3	17520
909.415	17710
909.531	17699
909.647	17398
909.762	17303
909.878	17307
909.993	17448
910.108	17284
910.224	17250
910.339	17303
910.454	17265
910.57	17208
910.685	17041
910.8	17356
910.915	17242
911.03	17079
911.145	16923
911.259	16923
911.374	16923
911.489	16919
911.604	16862
911.718	16691
911.833	16717
911.947	16596
912.062	16470
912.176	16694
912.291	16771
912.405	16702
912.519	16793
912.633	16786
912.748	16698
912.862	16596
912.976	16512
913.09	16356
913.204	16508
913.318	16405
913.431	16489
913.545	16489
913.659	16554
913.772	16318
913.886	16310
914	16238
914.113	16329
914.226	16287
914.34	16413
914.453	16181
914.566	16196
914.68	16097
914.793	16021
914.906	15941
915.019	15979
915.132	15876
915.245	15861
915.358	15876
915.47	15869
915.583	15861
915.696	15793
915.809	15964
915.921	15972
916.034	15682
916.146	15804
916.259	15766
916.371	15736
916.483	15800
916.595	15701
916.708	15671
916.82	15671
916.932	15614
917.044	15660
917.156	15599
917.268	15458
917.38	15561
917.491	15416
917.603	15466
917.715	15492
917.826	15485
917.938	15355
918.049	15329
918.161	15458
918.272	15641
918.384	15603
918.495	15401
918.606	15313
918.717	15150
918.828	15401
918.939	15275
919.05	15207
919.161	15218
919.272	15127
919.383	14975
919.494	15195
919.604	15405
919.715	15249
919.826	15112
919.936	15203
920.047	15199
920.157	15332
920.267	15363
920.378	15237
920.488	15203
920.598	15332
920.708	15492
920.818	15344
920.928	15382
921.038	15454
921.148	15447
921.258	15093
921.368	15062
921.477	14937
921.587	14918
921.697	14758
921.806	14868
921.916	14815
922.025	14705
922.134	14568
922.244	14484
922.353	14636
922.462	14469
922.571	14286
922.68	14134
922.789	14267
922.898	14149
923.007	14172
923.116	14275
923.224	14183
923.333	14153
923.442	14062
923.55	14062
923.659	14088
923.767	14008
923.876	13890
923.984	14073
924.092	13868
924.201	13982
924.309	13925
924.417	13940
924.525	13833
924.633	13887
924.741	14610
924.849	13651
924.956	13753
925.064	13582
925.172	13487
925.279	13620
925.387	13510
925.494	13616
925.602	13685
925.709	13548
925.816	13453
925.924	13499
926.031	13601
926.138	13457
926.245	13616
926.352	13396
926.459	13529
926.566	13514
926.673	13499
926.779	13308
926.886	13304
926.993	13133
927.099	13217
927.206	13099
927.312	13099
927.419	13091
927.525	13072
927.631	13129
927.737	13095
927.843	12928
927.95	12837
928.056	12894
928.162	12977
928.267	12958
928.373	13685
928.479	12951
928.585	12795
928.69	12852
928.796	12882
928.901	12867
929.007	12582
929.112	12840
929.218	12821
929.323	12608
929.428	12688
929.533	12802
929.638	12570
929.743	12582
929.848	12559
929.953	12498
930.058	12513
930.163	12311
930.267	12281
930.372	12433
930.477	12357
930.581	12525
930.685	12304
930.79	12175
930.894	12171
930.998	12209
931.103	12410
931.207	11931
931.311	11855
931.415	11737
931.519	11532
931.623	11596
