Data from test_V78500241_1273.txt Node
Date: Fri Mar 25 15:50:37 CST 2022
User: usil
Spectrometer: V785-0024
Trigger mode: 0
Integration Time (sec): 4.000000E-1
Scans to average: 1
Nonlinearity correction enabled: false
Boxcar width: 0
Storing dark spectrum: false
XAxis mode: Wavelengths
Number of Pixels in Spectrum: 1024
>>>>>Begin Spectral Data<<<<<
801.071	28839
801.214	28713
801.356	28497
801.499	28516
801.641	28356
801.783	28398
801.926	28512
802.068	28204
802.211	28280
802.353	28322
802.496	28021
802.638	28226
802.78	28150
802.923	28025
803.065	27865
803.208	27968
803.35	28082
803.492	28059
803.635	28306
803.777	28215
803.919	28318
804.061	28630
804.204	28344
804.346	28169
804.488	28124
804.63	28291
804.773	28185
804.915	28223
805.057	28512
805.199	28219
805.341	28238
805.483	28451
805.626	28295
805.768	28508
805.91	28417
806.052	28481
806.194	28436
806.336	28634
806.478	28432
806.62	28512
806.762	28512
806.904	28824
807.046	28911
807.188	28942
807.33	28835
807.472	28961
807.614	28908
807.756	28900
807.898	28854
808.04	28668
808.182	28771
808.324	28797
808.465	28816
808.607	29014
808.749	29311
808.891	29200
809.033	29299
809.174	29170
809.316	29124
809.458	29124
809.6	29090
809.741	29315
809.883	29269
810.025	29501
810.166	29360
810.308	29421
810.45	29440
810.591	29387
810.733	29083
810.875	29223
811.016	29079
811.158	29117
811.299	29223
811.441	29345
811.582	29334
811.724	29235
811.865	29193
812.007	29140
812.148	29132
812.29	29258
812.431	29349
812.573	29459
812.714	29627
812.855	29581
812.997	29794
813.138	29942
813.279	29870
813.421	29779
813.562	29596
813.703	29611
813.845	29379
813.986	29090
814.127	29029
814.268	28881
814.41	28934
814.551	28927
814.692	28968
814.833	28923
814.974	28908
815.115	28885
815.256	28839
815.397	28843
815.539	28847
815.68	28634
815.821	28691
815.962	28763
816.103	28691
816.244	28630
816.385	28577
816.526	28630
816.666	28314
816.807	28090
816.948	28322
817.089	28299
817.23	28295
817.371	28238
817.512	28177
817.653	28135
817.793	27979
817.934	28276
818.075	28093
818.216	28253
818.356	28192
818.497	28223
818.638	27949
818.778	28070
818.919	27922
819.06	28177
819.2	28074
819.341	28337
819.481	28265
819.622	28459
819.762	28512
819.903	28424
820.043	28447
820.184	28291
820.324	28398
820.465	28508
820.605	28181
820.746	28382
820.886	28284
821.026	28462
821.167	28204
821.307	28538
821.447	28226
821.588	28116
821.728	28048
821.868	27888
822.008	27797
822.149	27622
822.289	27648
822.429	27526
822.569	27431
822.709	27298
822.849	27268
822.99	27245
823.13	27131
823.27	27256
823.41	26921
823.55	26845
823.69	27104
823.83	27032
823.97	27032
824.11	26731
824.25	26754
824.389	26914
824.529	26967
824.669	26861
824.809	27058
824.949	26940
825.089	26944
825.228	26975
825.368	26864
825.508	26811
825.648	26769
825.787	26788
825.927	26815
826.067	26743
826.206	26686
826.346	26902
826.485	26720
826.625	26667
826.765	26960
826.904	26682
827.044	26560
827.183	26488
827.323	26499
827.462	26560
827.601	26518
827.741	26431
827.88	26419
828.02	26473
828.159	26556
828.298	26377
828.437	26503
828.577	26461
828.716	26617
828.855	26377
828.994	26122
829.134	26107
829.273	26237
829.412	26278
829.551	26103
829.69	26191
829.829	26092
829.968	26218
830.107	26240
830.246	26035
830.385	26130
830.524	26005
830.663	25830
830.802	25875
830.941	25685
831.08	25746
831.219	25761
831.357	25902
831.496	26054
831.635	25742
831.774	25643
831.913	25571
832.051	25548
832.19	25506
832.329	25609
832.467	25464
832.606	25422
832.744	25419
832.883	25441
833.022	25476
833.16	25377
833.299	25506
833.437	25460
833.576	25571
833.714	25468
833.852	25529
833.991	25449
834.129	25727
834.267	25544
834.406	25483
834.544	25441
834.682	25495
834.821	25518
834.959	25552
835.097	25331
835.235	25552
835.373	25613
835.511	25415
835.65	25285
835.788	25407
835.926	25293
836.064	25141
836.202	25088
836.34	25301
836.478	25392
836.615	25312
836.753	25377
836.891	25377
837.029	25335
837.167	25175
837.305	25320
837.443	25187
837.58	25107
837.718	25255
837.856	25065
837.993	25118
838.131	25213
838.269	24886
838.406	25129
838.544	25031
838.681	24776
838.819	24703
838.956	24642
839.094	24604
839.231	24521
839.369	24817
839.506	24996
839.643	24859
839.781	24578
839.918	24536
840.055	24525
840.193	24551
840.33	24498
840.467	24555
840.604	24646
840.742	24764
840.879	24532
841.016	24319
841.153	24407
841.29	24707
841.427	24380
841.564	24521
841.701	24528
841.838	24414
841.975	24391
842.112	24391
842.249	24273
842.385	24323
842.522	24475
842.659	24426
842.796	24190
842.933	24190
843.069	24224
843.206	24167
843.343	24346
843.479	24254
843.616	24277
843.752	24007
843.889	24083
844.025	24216
844.162	24136
844.298	24068
844.435	24034
844.571	24045
844.708	23992
844.844	24220
844.98	24144
845.117	24148
845.253	23999
845.389	23946
845.525	23927
845.661	23912
845.798	23817
845.934	23794
846.07	23771
846.206	23802
846.342	23916
846.478	23783
846.614	23547
846.75	23429
846.886	23455
847.022	23585
847.158	23490
847.294	23478
847.429	23619
847.565	23444
847.701	23722
847.837	23231
847.972	23212
848.108	23345
848.244	23315
848.379	23166
848.515	23128
848.65	23090
848.786	23044
848.921	23056
849.057	23170
849.192	23216
849.328	23220
849.463	22984
849.598	23033
849.734	23003
849.869	22858
850.004	22771
850.14	22885
850.275	22812
850.41	22736
850.545	22889
850.68	22668
850.815	22854
850.95	22892
851.085	22980
851.22	22919
851.355	23048
851.49	22759
851.625	22748
851.76	22698
851.895	22748
852.03	22713
852.165	22812
852.299	22809
852.434	22843
852.569	22930
852.703	22790
852.838	22797
852.973	22835
853.107	22904
853.242	22721
853.376	22752
853.511	22519
853.645	22611
853.78	22869
853.914	22618
854.048	22554
854.183	22535
854.317	22656
854.451	22881
854.585	22649
854.72	22679
854.854	22778
854.988	22538
855.122	22687
855.256	22607
855.39	22675
855.524	22721
855.658	22607
855.792	22641
855.926	22698
856.06	22641
856.194	22793
856.327	22782
856.461	22577
856.595	22656
856.729	22656
856.862	22763
856.996	22687
857.13	22641
857.263	22618
857.397	22752
857.53	22493
857.664	22660
857.797	22740
857.931	22668
858.064	22618
858.197	22782
858.331	22660
858.464	22527
858.597	22573
858.731	22565
858.864	22565
858.997	22584
859.13	22615
859.263	22706
859.396	22729
859.529	22550
859.662	22554
859.795	22588
859.928	22637
860.061	22771
860.194	22850
860.327	22683
860.46	22774
860.592	22809
860.725	22763
860.858	22596
860.99	22656
861.123	22637
861.256	22615
861.388	22554
861.521	23284
861.653	22508
861.786	22379
861.918	22489
862.05	22535
862.183	22557
862.315	22691
862.447	22653
862.58	22531
862.712	22360
862.844	22230
862.976	22455
863.108	22527
863.24	22759
863.372	22284
863.504	22367
863.636	22379
863.768	22344
863.9	22363
864.032	22287
864.164	22253
864.296	22436
864.428	22405
864.559	22375
864.691	22405
864.823	22306
864.954	22223
865.086	22303
865.217	22257
865.349	22284
865.48	22223
865.612	22154
865.743	22405
865.875	22337
866.006	22276
866.137	22287
866.269	22333
866.4	22143
866.531	22147
866.662	22143
866.793	22230
866.924	22150
867.055	22166
867.186	22287
867.317	22059
867.448	21991
867.579	22166
867.71	22105
867.841	21968
867.972	22055
868.103	22135
868.233	22112
868.364	22139
868.495	22204
868.625	22367
868.756	22497
868.886	22226
869.017	22398
869.147	22451
869.278	22443
869.408	22428
869.539	22246
869.669	22504
869.799	22424
869.929	22504
870.06	22535
870.19	22698
870.32	22596
870.45	22896
870.58	22763
870.71	22927
870.84	22843
870.97	22778
871.1	22850
871.23	22896
871.36	22896
871.489	22984
871.619	22805
871.749	23003
871.879	22987
872.008	23044
872.138	23037
872.267	23121
872.397	22774
872.526	22824
872.656	22824
872.785	22793
872.915	22900
873.044	23174
873.173	22911
873.303	23022
873.432	23060
873.561	23075
873.69	23052
873.819	23056
873.948	23083
874.077	22934
874.206	22930
874.335	22934
874.464	23056
874.593	23242
874.722	23159
874.851	23216
874.979	23216
875.108	23227
875.237	23124
875.365	23094
875.494	23170
875.623	23147
875.751	23296
875.88	23269
876.008	23265
876.136	23436
876.265	23684
876.393	23756
876.521	23668
876.65	23615
876.778	23615
876.906	23551
877.034	23611
877.162	23531
877.29	23497
877.418	23608
877.546	23634
877.674	23570
877.802	23531
877.93	23566
878.058	23512
878.185	23467
878.313	23543
878.441	23497
878.568	23337
878.696	23425
878.824	23558
878.951	23592
879.079	23726
879.206	23710
879.333	23676
879.461	23627
879.588	23752
879.715	23798
879.842	23745
879.97	23619
880.097	23448
880.224	23284
880.351	23467
880.478	23322
880.605	23322
880.732	23250
880.859	23668
880.986	23402
881.112	23349
881.239	23254
881.366	23117
881.493	23048
881.619	23022
881.746	22923
881.872	22980
881.999	22968
882.125	22892
882.252	23014
882.378	22942
882.505	22972
882.631	22793
882.757	22622
882.883	22618
883.01	22725
883.136	22512
883.262	22557
883.388	22421
883.514	22573
883.64	22535
883.766	22535
883.892	22337
884.018	22299
884.143	22508
884.269	22797
884.395	22291
884.52	22029
884.646	22253
884.772	22162
884.897	22192
885.023	22280
885.148	22314
885.274	22413
885.399	22348
885.524	22211
885.65	22158
885.775	22211
885.9	22154
886.025	22322
886.15	22295
886.275	22135
886.4	22158
886.525	22173
886.65	22162
886.775	22246
886.9	22352
887.025	22508
887.149	22154
887.274	22013
887.399	22002
887.523	21865
887.648	21838
887.773	21945
887.897	21991
888.021	22055
888.146	21964
888.27	22048
888.395	22010
888.519	21949
888.643	22021
888.767	22051
888.891	21873
889.015	21732
889.139	21979
889.263	21660
889.387	21880
889.511	21888
889.635	21842
889.759	21618
889.883	21797
890.006	21671
890.13	21854
890.254	21800
890.377	21698
890.501	21515
890.624	21496
890.748	21439
890.871	21458
890.995	21272
891.118	21325
891.241	21275
891.364	21298
891.488	21405
891.611	21344
891.734	21272
891.857	21389
891.98	21294
892.103	21367
892.226	21188
892.349	21275
892.471	21203
892.594	21138
892.717	21195
892.839	21252
892.962	21283
893.085	21226
893.207	21207
893.33	21116
893.452	21138
893.575	21249
893.697	21150
893.819	21348
893.941	21397
894.064	21329
894.186	21169
894.308	21085
894.43	21173
894.552	21401
894.674	21169
894.796	21112
894.918	21184
895.04	21283
895.161	21230
895.283	21329
895.405	21119
895.526	21195
895.648	21157
895.769	21184
895.891	21184
896.012	21131
896.134	21230
896.255	21123
896.376	21230
896.498	21093
896.619	21203
896.74	21195
896.861	21291
896.982	21507
897.103	21637
897.224	21435
897.345	21412
897.466	21306
897.587	21454
897.708	21663
897.828	21397
897.949	21226
898.07	21214
898.19	21237
898.311	21374
898.431	21386
898.552	21405
898.672	21416
898.792	21374
898.913	21386
899.033	21268
899.153	21173
899.273	21036
899.393	21032
899.513	21138
899.633	21032
899.753	21085
899.873	21043
899.993	21123
900.113	21013
900.232	21131
900.352	20925
900.472	21005
900.591	20834
900.711	20925
900.83	20792
900.95	20902
901.069	20823
901.189	20849
901.308	20659
901.427	20526
901.546	20438
901.665	20537
901.784	20450
901.904	20339
902.023	20248
902.141	19936
902.26	19917
902.379	20046
902.498	19887
902.617	19887
902.735	19913
902.854	19909
902.973	19742
903.091	19628
903.21	19521
903.328	19575
903.446	19537
903.565	19430
903.683	19381
903.801	19236
903.919	19339
904.038	19373
904.156	19179
904.274	19133
904.392	19099
904.51	19129
904.627	19072
904.745	19289
904.863	19175
904.981	19000
905.098	19008
905.216	18760
905.334	18939
905.451	18901
905.569	18776
905.686	18920
905.803	18764
905.921	18528
906.038	18772
906.155	18620
906.272	18479
906.389	18661
906.506	18350
906.623	18395
906.74	18285
906.857	18323
906.974	18232
907.091	18441
907.208	18376
907.324	18452
907.441	18224
907.557	18091
907.674	18022
907.79	17961
907.907	18102
908.023	18072
908.139	18038
908.256	17984
908.372	17920
908.488	17889
908.604	17885
908.72	17710
908.836	17813
908.952	17802
909.068	17775
909.184	17851
909.3	17722
909.415	17767
909.531	17718
909.647	17524
909.762	17554
909.878	17452
909.993	17379
910.108	17463
910.224	17387
910.339	17395
910.454	17246
910.57	17318
910.685	17208
910.8	17383
910.915	17455
911.03	17273
911.145	17098
911.259	17006
911.374	17056
911.489	16976
911.604	16923
911.718	16774
911.833	16805
911.947	16622
912.062	16702
912.176	16778
912.291	16713
912.405	16805
912.519	16995
912.633	16862
912.748	16656
912.862	16767
912.976	16615
913.09	16447
913.204	16565
913.318	16653
913.431	16797
913.545	16626
913.659	16672
913.772	16485
913.886	16382
914	16371
914.113	16432
914.226	16512
914.34	16481
914.453	16249
914.566	16428
914.68	16299
914.793	16200
914.906	15956
915.019	15987
915.132	15873
915.245	16067
915.358	15968
915.47	15972
915.583	15991
915.696	15968
915.809	16063
915.921	16002
916.034	15941
916.146	15797
916.259	15812
916.371	15968
916.483	15819
916.595	15842
916.708	15804
916.82	15778
916.932	15736
917.044	15652
917.156	15679
917.268	15481
917.38	15633
917.491	15504
917.603	15561
917.715	15739
917.826	15755
917.938	15473
918.049	15378
918.161	15519
918.272	15660
918.384	15549
918.495	15523
918.606	15405
918.717	15207
918.828	15397
918.939	15321
919.05	15188
919.161	15237
919.272	15131
919.383	15074
919.494	15351
919.604	15504
919.715	15272
919.826	15169
919.936	15233
920.047	15332
920.157	15283
920.267	15492
920.378	15275
920.488	15298
920.598	15351
920.708	15576
920.818	15477
920.928	15287
921.038	15580
921.148	15538
921.258	15237
921.368	15070
921.477	15001
921.587	14941
921.697	14845
921.806	14933
921.916	14861
922.025	14678
922.134	14610
922.244	14545
922.353	14701
922.462	14530
922.571	14412
922.68	14218
922.789	14263
922.898	14286
923.007	14138
923.116	14301
923.224	14134
923.333	14278
923.442	14153
923.55	14084
923.659	14123
923.767	14149
923.876	14092
923.984	14065
924.092	14043
924.201	13974
924.309	13993
924.417	13963
924.525	13864
924.633	13902
924.741	14849
924.849	13658
924.956	13803
925.064	13624
925.172	13590
925.279	13727
925.387	13491
925.494	13685
925.602	13719
925.709	13651
925.816	13586
925.924	13533
926.031	13651
926.138	13525
926.245	13651
926.352	13346
926.459	13590
926.566	13639
926.673	13491
926.779	13339
926.886	13354
926.993	13194
927.099	13118
927.206	13095
927.312	13027
927.419	13183
927.525	13187
927.631	13221
927.737	12996
927.843	12954
927.95	12886
928.056	12928
928.162	13084
928.267	13012
928.373	13696
928.479	13072
928.585	12802
928.69	12916
928.796	12958
928.901	12833
929.007	12654
929.112	12776
929.218	12760
929.323	12688
929.428	12578
929.533	12852
929.638	12631
929.743	12578
929.848	12707
929.953	12578
930.058	12570
930.163	12338
930.267	12361
930.372	12456
930.477	12346
930.581	12502
930.685	12437
930.79	12330
930.894	12175
930.998	12277
931.103	12353
931.207	11965
931.311	11802
931.415	11840
931.519	11551
931.623	11611
