Data from test_V78500241_2925.txt Node
Date: Fri Mar 25 16:02:03 CST 2022
User: usil
Spectrometer: V785-0024
Trigger mode: 0
Integration Time (sec): 4.000000E-1
Scans to average: 1
Nonlinearity correction enabled: false
Boxcar width: 0
Storing dark spectrum: false
XAxis mode: Wavelengths
Number of Pixels in Spectrum: 1024
>>>>>Begin Spectral Data<<<<<
801.071	28797
801.214	28946
801.356	28603
801.499	28596
801.641	28447
801.783	28622
801.926	28398
802.068	28440
802.211	28432
802.353	28242
802.496	28265
802.638	28341
802.78	28131
802.923	28173
803.065	28017
803.208	28074
803.35	28261
803.492	28215
803.635	28356
803.777	28249
803.919	28265
804.061	28755
804.204	28443
804.346	28329
804.488	28413
804.63	28417
804.773	28382
804.915	28550
805.057	28538
805.199	28542
805.341	28557
805.483	28557
805.626	28565
805.768	28493
805.91	28535
806.052	28698
806.194	28421
806.336	28740
806.478	28577
806.62	28660
806.762	28805
806.904	29018
807.046	29147
807.188	28972
807.33	28995
807.472	29079
807.614	28949
807.756	29048
807.898	28805
808.04	28839
808.182	28869
808.324	28938
808.465	28999
808.607	29216
808.749	29303
808.891	29280
809.033	29691
809.174	29368
809.316	29147
809.458	29284
809.6	29265
809.741	29455
809.883	29353
810.025	29467
810.166	29539
810.308	29634
810.45	29524
810.591	29452
810.733	29341
810.875	29277
811.016	29235
811.158	29296
811.299	29421
811.441	29577
811.582	29459
811.724	29349
811.865	29375
812.007	29299
812.148	29433
812.29	29330
812.431	29452
812.573	29562
812.714	29775
812.855	29790
812.997	29882
813.138	29958
813.279	29954
813.421	29726
813.562	29668
813.703	29562
813.845	29524
813.986	29345
814.127	29189
814.268	29022
814.41	29022
814.551	28923
814.692	29098
814.833	28896
814.974	28938
815.115	28972
815.256	28843
815.397	29006
815.539	28911
815.68	28771
815.821	28645
815.962	28847
816.103	28820
816.244	28626
816.385	28538
816.526	28584
816.666	28356
816.807	28257
816.948	28337
817.089	28451
817.23	28379
817.371	28272
817.512	28280
817.653	28367
817.793	28314
817.934	28223
818.075	28398
818.216	28337
818.356	28158
818.497	28253
818.638	28169
818.778	27876
818.919	28093
819.06	28063
819.2	28265
819.341	28188
819.481	28303
819.622	28478
819.762	28432
819.903	28626
820.043	28713
820.184	28417
820.324	28546
820.465	28478
820.605	28489
820.746	28409
820.886	28306
821.026	28291
821.167	28462
821.307	28405
821.447	28375
821.588	28162
821.728	28181
821.868	27983
822.008	27835
822.149	27846
822.289	27876
822.429	27599
822.569	27443
822.709	27507
822.849	27374
822.99	27359
823.13	27237
823.27	27119
823.41	27294
823.55	27062
823.69	27070
823.83	27154
823.97	27157
824.11	26948
824.25	26906
824.389	26929
824.529	26990
824.669	27062
824.809	27116
824.949	27017
825.089	27074
825.228	26971
825.368	26765
825.508	26815
825.648	26815
825.787	26979
825.927	26902
826.067	26796
826.206	26887
826.346	26849
826.485	26902
826.625	26967
826.765	26914
826.904	26895
827.044	26834
827.183	26587
827.323	26526
827.462	26701
827.601	26754
827.741	26511
827.88	26575
828.02	26415
828.159	26480
828.298	26511
828.437	26556
828.577	26560
828.716	26682
828.855	26518
828.994	26343
829.134	26240
829.273	26229
829.412	26290
829.551	26275
829.69	26256
829.829	26305
829.968	26385
830.107	26267
830.246	26282
830.385	26153
830.524	26039
830.663	26039
830.802	25959
830.941	25795
831.08	25860
831.219	25871
831.357	26001
831.496	26065
831.635	25811
831.774	25795
831.913	25849
832.051	25681
832.19	25685
832.329	25662
832.467	25529
832.606	25594
832.744	25396
832.883	25624
833.022	25483
833.16	25578
833.299	25685
833.437	25578
833.576	25624
833.714	25696
833.852	25586
833.991	25651
834.129	25658
834.267	25647
834.406	25552
834.544	25670
834.682	25559
834.821	25495
834.959	25814
835.097	25445
835.235	25681
835.373	25559
835.511	25601
835.65	25464
835.788	25415
835.926	25369
836.064	25247
836.202	25263
836.34	25521
836.478	25605
836.615	25441
836.753	25499
836.891	25453
837.029	25407
837.167	25244
837.305	25308
837.443	25282
837.58	25221
837.718	25540
837.856	25400
837.993	25343
838.131	25232
838.269	25194
838.406	25088
838.544	25042
838.681	24814
838.819	24856
838.956	24745
839.094	24726
839.231	24772
839.369	24913
839.506	25076
839.643	24954
839.781	24844
839.918	24795
840.055	24719
840.193	24688
840.33	24635
840.467	24593
840.604	24665
840.742	24935
840.879	24536
841.016	24521
841.153	24517
841.29	24871
841.427	24715
841.564	24703
841.701	24475
841.838	24601
841.975	24479
842.112	24513
842.249	24464
842.385	24399
842.522	24715
842.659	24330
842.796	24342
842.933	24327
843.069	24311
843.206	24319
843.343	24403
843.479	24334
843.616	24258
843.752	24114
843.889	24224
844.025	24395
844.162	24232
844.298	24224
844.435	24133
844.571	24121
844.708	24167
844.844	24467
844.98	24277
845.117	24224
845.253	24232
845.389	24144
845.525	24163
845.661	24038
845.798	23832
845.934	23958
846.07	23828
846.206	23992
846.342	23988
846.478	23882
846.614	23661
846.75	23577
846.886	23676
847.022	23600
847.158	23649
847.294	23703
847.429	23596
847.565	23627
847.701	23813
847.837	23284
847.972	23353
848.108	23577
848.244	23444
848.379	23250
848.515	23079
848.65	23212
848.786	23113
848.921	23292
849.057	23303
849.192	23246
849.328	23166
849.463	23025
849.598	23185
849.734	23113
849.869	23105
850.004	22930
850.14	23048
850.275	22991
850.41	22839
850.545	22923
850.68	22930
850.815	22976
850.95	23048
851.085	23067
851.22	22991
851.355	22957
851.49	22896
851.625	22953
851.76	22930
851.895	23048
852.03	22995
852.165	22968
852.299	22980
852.434	23086
852.569	22946
852.703	22972
852.838	23029
852.973	23105
853.107	23041
853.242	22949
853.376	22873
853.511	22725
853.645	22733
853.78	22984
853.914	22862
854.048	22752
854.183	22752
854.317	22820
854.451	23102
854.585	22915
854.72	22801
854.854	22866
854.988	22767
855.122	22862
855.256	22752
855.39	22725
855.524	22892
855.658	22889
855.792	22786
855.926	22892
856.06	22771
856.194	22835
856.327	22839
856.461	22744
856.595	22763
856.729	22801
856.862	22923
856.996	22847
857.13	22885
857.263	22991
857.397	22908
857.53	22713
857.664	22824
857.797	22763
857.931	22942
858.064	22733
858.197	22839
858.331	22790
858.464	22683
858.597	22721
858.731	22786
858.864	22736
858.997	22816
859.13	22752
859.263	22850
859.396	22824
859.529	22850
859.662	22733
859.795	22748
859.928	22725
860.061	23075
860.194	23060
860.327	22877
860.46	22767
860.592	22900
860.725	22999
860.858	22885
860.99	22877
861.123	22767
861.256	22839
861.388	22782
861.521	23463
861.653	22557
861.786	22584
861.918	22611
862.05	22618
862.183	22763
862.315	22683
862.447	22694
862.58	22668
862.712	22481
862.844	22436
862.976	22653
863.108	22596
863.24	23029
863.372	22478
863.504	22584
863.636	22508
863.768	22538
863.9	22508
864.032	22596
864.164	22447
864.296	22516
864.428	22683
864.559	22554
864.691	22656
864.823	22523
864.954	22409
865.086	22493
865.217	22455
865.349	22234
865.48	22257
865.612	22512
865.743	22478
865.875	22413
866.006	22344
866.137	22310
866.269	22386
866.4	22455
866.531	22261
866.662	22306
866.793	22329
866.924	22398
867.055	22253
867.186	22325
867.317	22249
867.448	22246
867.579	22280
867.71	22105
867.841	22185
867.972	22284
868.103	22272
868.233	22367
868.364	22295
868.495	22394
868.625	22512
868.756	22672
868.886	22371
869.017	22470
869.147	22668
869.278	22679
869.408	22599
869.539	22462
869.669	22668
869.799	22664
869.929	22656
870.06	22535
870.19	22862
870.32	22881
870.45	22957
870.58	22869
870.71	23121
870.84	23083
870.97	22976
871.1	23086
871.23	23048
871.36	23212
871.489	23037
871.619	23022
871.749	23155
871.879	23296
872.008	23318
872.138	23083
872.267	23212
872.397	23048
872.526	23003
872.656	22911
872.785	22991
872.915	23174
873.044	23254
873.173	23261
873.303	23269
873.432	23181
873.561	23311
873.69	23254
873.819	23178
873.948	23208
874.077	23227
874.206	23216
874.335	23083
874.464	23330
874.593	23444
874.722	23250
874.851	23391
874.979	23410
875.108	23421
875.237	23303
875.365	23307
875.494	23368
875.623	23459
875.751	23391
875.88	23455
876.008	23459
876.136	23528
876.265	23847
876.393	23832
876.521	23805
876.65	23828
876.778	23817
876.906	23615
877.034	23657
877.162	23665
877.29	23551
877.418	23809
877.546	23733
877.674	23722
877.802	23691
877.93	23642
878.058	23619
878.185	23531
878.313	23722
878.441	23733
878.568	23505
878.696	23539
878.824	23630
878.951	23737
879.079	23821
879.206	24015
879.333	23817
879.461	23684
879.588	23939
879.715	23935
879.842	23874
879.97	23745
880.097	23570
880.224	23478
880.351	23566
880.478	23630
880.605	23459
880.732	23543
880.859	23752
880.986	23436
881.112	23562
881.239	23376
881.366	23277
881.493	23193
881.619	23064
881.746	23056
881.872	23109
881.999	23098
882.125	22919
882.252	23048
882.378	22984
882.505	23155
882.631	22885
882.757	22717
882.883	22721
883.01	22793
883.136	22683
883.262	22637
883.388	22694
883.514	22809
883.64	22831
883.766	22607
883.892	22504
884.018	22618
884.143	22740
884.269	22831
884.395	22363
884.52	22299
884.646	22325
884.772	22470
884.897	22322
885.023	22470
885.148	22519
885.274	22405
885.399	22493
885.524	22337
885.65	22356
885.775	22519
885.9	22272
886.025	22440
886.15	22478
886.275	22379
886.4	22196
886.525	22242
886.65	22310
886.775	22394
886.9	22550
887.025	22474
887.149	22337
887.274	22162
887.399	22074
887.523	22166
887.648	22082
887.773	21975
887.897	22242
888.021	22185
888.146	22021
888.27	22272
888.395	22211
888.519	22215
888.643	22169
888.767	22116
888.891	21975
889.015	22013
889.139	22097
889.263	21869
889.387	21915
889.511	22097
889.635	22086
889.759	21736
889.883	21895
890.006	21991
890.13	21983
890.254	21850
890.377	21911
890.501	21564
890.624	21648
890.748	21823
890.871	21568
890.995	21340
891.118	21359
891.241	21534
891.364	21473
891.488	21618
891.611	21408
891.734	21405
891.857	21519
891.98	21576
892.103	21542
892.226	21458
892.349	21370
892.471	21260
892.594	21370
892.717	21428
892.839	21252
892.962	21340
893.085	21370
893.207	21473
893.33	21188
893.452	21313
893.575	21374
893.697	21275
893.819	21424
893.941	21393
894.064	21424
894.186	21275
894.308	21207
894.43	21496
894.552	21450
894.674	21408
894.796	21252
894.918	21275
895.04	21161
895.161	21511
895.283	21348
895.405	21211
895.526	21294
895.648	21275
895.769	21412
895.891	21355
896.012	21511
896.134	21222
896.255	21317
896.376	21287
896.498	21279
896.619	21211
896.74	21359
896.861	21245
896.982	21633
897.103	21804
897.224	21568
897.345	21561
897.466	21428
897.587	21587
897.708	21622
897.828	21637
897.949	21553
898.07	21344
898.19	21557
898.311	21553
898.431	21393
898.552	21469
898.672	21477
898.792	21610
898.913	21496
899.033	21431
899.153	21302
899.273	21176
899.393	21195
899.513	21192
899.633	21195
899.753	21249
899.873	21249
899.993	21260
900.113	21233
900.232	21165
900.352	21142
900.472	21195
900.591	20975
900.711	20956
900.83	20811
900.95	21108
901.069	21005
901.189	20842
901.308	20735
901.427	20533
901.546	20587
901.665	20648
901.784	20549
901.904	20568
902.023	20271
902.141	20065
902.26	20069
902.379	20244
902.498	20054
902.617	20073
902.735	19986
902.854	20088
902.973	19928
903.091	19765
903.21	19757
903.328	19696
903.446	19655
903.565	19567
903.683	19506
903.801	19445
903.919	19438
904.038	19460
904.156	19331
904.274	19377
904.392	19312
904.51	19263
904.627	19217
904.745	19297
904.863	19202
904.981	19080
905.098	18897
905.216	18958
905.334	18951
905.451	19027
905.569	18825
905.686	18901
905.803	18924
905.921	18768
906.038	18844
906.155	18665
906.272	18601
906.389	18673
906.506	18486
906.623	18426
906.74	18498
906.857	18323
906.974	18388
907.091	18506
907.208	18563
907.324	18342
907.441	18296
907.557	18174
907.674	18201
907.79	18167
907.907	18106
908.023	18277
908.139	18243
908.256	18148
908.372	18098
908.488	18057
908.604	18057
908.72	17931
908.836	17840
908.952	17946
909.068	17950
909.184	17927
909.3	17847
909.415	17961
909.531	17798
909.647	17790
909.762	17528
909.878	17665
909.993	17672
910.108	17566
910.224	17444
910.339	17585
910.454	17497
910.57	17353
910.685	17288
910.8	17623
910.915	17497
911.03	17341
911.145	17246
911.259	17216
911.374	17151
911.489	17178
911.604	17029
911.718	16866
911.833	16858
911.947	16824
912.062	16809
912.176	17033
912.291	16885
912.405	16881
912.519	17109
912.633	17113
912.748	16862
912.862	16850
912.976	16786
913.09	16554
913.204	16679
913.318	16721
913.431	16801
913.545	16759
913.659	16759
913.772	16744
913.886	16523
914	16500
914.113	16569
914.226	16664
914.34	16527
914.453	16428
914.566	16588
914.68	16424
914.793	16234
914.906	16071
915.019	16082
915.132	16017
915.245	15994
915.358	16055
915.47	16135
915.583	16071
915.696	16078
915.809	16124
915.921	16185
916.034	16036
916.146	15994
916.259	15930
916.371	16021
916.483	15934
916.595	15903
916.708	15781
916.82	15983
916.932	15865
917.044	15846
917.156	15846
917.268	15701
917.38	15743
917.491	15648
917.603	15690
917.715	15660
917.826	15778
917.938	15462
918.049	15511
918.161	15572
918.272	15686
918.384	15694
918.495	15557
918.606	15412
918.717	15268
918.828	15424
918.939	15450
919.05	15428
919.161	15458
919.272	15287
919.383	15245
919.494	15412
919.604	15580
919.715	15450
919.826	15389
919.936	15351
920.047	15477
920.157	15359
920.267	15599
920.378	15450
920.488	15336
920.598	15515
920.708	15705
920.818	15515
920.928	15469
921.038	15675
921.148	15622
921.258	15294
921.368	15180
921.477	15123
921.587	15081
921.697	14929
921.806	15100
921.916	14910
922.025	14758
922.134	14762
922.244	14598
922.353	14697
922.462	14564
922.571	14473
922.68	14339
922.789	14336
922.898	14377
923.007	14244
923.116	14347
923.224	14271
923.333	14336
923.442	14259
923.55	14130
923.659	14153
923.767	14313
923.876	14145
923.984	14218
924.092	14001
924.201	14157
924.309	14123
924.417	14046
924.525	14008
924.633	13989
924.741	14986
924.849	13811
924.956	13917
925.064	13712
925.172	13662
925.279	13734
925.387	13746
925.494	13727
925.602	13780
925.709	13704
925.816	13571
925.924	13643
926.031	13719
926.138	13590
926.245	13757
926.352	13533
926.459	13712
926.566	13696
926.673	13590
926.779	13495
926.886	13457
926.993	13369
927.099	13327
927.206	13259
927.312	13213
927.419	13263
927.525	13259
927.631	13244
927.737	13129
927.843	13187
927.95	13008
928.056	13053
928.162	13080
928.267	13236
928.373	13689
928.479	13160
928.585	12829
928.69	13015
928.796	13015
928.901	12989
929.007	12817
929.112	12916
929.218	12909
929.323	12791
929.428	12840
929.533	12962
929.638	12650
929.743	12795
929.848	12741
929.953	12677
930.058	12589
930.163	12479
930.267	12407
930.372	12540
930.477	12414
930.581	12696
930.685	12506
930.79	12281
930.894	12289
930.998	12251
931.103	12380
931.207	12060
931.311	11999
931.415	11855
931.519	11688
931.623	11733
