Data from test_V78500241_2370.txt Node
Date: Fri Mar 25 15:58:13 CST 2022
User: usil
Spectrometer: V785-0024
Trigger mode: 0
Integration Time (sec): 4.000000E-1
Scans to average: 1
Nonlinearity correction enabled: false
Boxcar width: 0
Storing dark spectrum: false
XAxis mode: Wavelengths
Number of Pixels in Spectrum: 1024
>>>>>Begin Spectral Data<<<<<
801.071	28752
801.214	28771
801.356	28531
801.499	28523
801.641	28325
801.783	28394
801.926	28360
802.068	28352
802.211	28341
802.353	28242
802.496	28185
802.638	28207
802.78	27975
802.923	28029
803.065	27975
803.208	28021
803.35	28200
803.492	28185
803.635	28314
803.777	28207
803.919	28367
804.061	28542
804.204	28363
804.346	28246
804.488	28185
804.63	28280
804.773	28166
804.915	28470
805.057	28569
805.199	28367
805.341	28413
805.483	28428
805.626	28398
805.768	28299
805.91	28440
806.052	28440
806.194	28386
806.336	28653
806.478	28577
806.62	28466
806.762	28653
806.904	28816
807.046	28980
807.188	28976
807.33	29033
807.472	28987
807.614	29029
807.756	29052
807.898	28759
808.04	28660
808.182	28820
808.324	28759
808.465	28866
808.607	28987
808.749	29128
808.891	29216
809.033	29315
809.174	29303
809.316	29178
809.458	29109
809.6	29117
809.741	29246
809.883	29391
810.025	29535
810.166	29478
810.308	29391
810.45	29334
810.591	29368
810.733	29242
810.875	29288
811.016	29094
811.158	29128
811.299	29330
811.441	29421
811.582	29406
811.724	29204
811.865	29200
812.007	29143
812.148	29349
812.29	29242
812.431	29478
812.573	29589
812.714	29630
812.855	29733
812.997	29920
813.138	29999
813.279	29771
813.421	29771
813.562	29520
813.703	29554
813.845	29391
813.986	29216
814.127	29037
814.268	28892
814.41	28896
814.551	28831
814.692	28850
814.833	28915
814.974	28835
815.115	28957
815.256	28843
815.397	28691
815.539	28839
815.68	28763
815.821	28656
815.962	28866
816.103	28580
816.244	28706
816.385	28470
816.526	28489
816.666	28333
816.807	28143
816.948	28303
817.089	28333
817.23	28246
817.371	28219
817.512	28192
817.653	28223
817.793	28147
817.934	28211
818.075	28234
818.216	28310
818.356	28059
818.497	28116
818.638	27869
818.778	28006
818.919	27907
819.06	28109
819.2	28166
819.341	28166
819.481	28131
819.622	28413
819.762	28489
819.903	28497
820.043	28421
820.184	28337
820.324	28322
820.465	28523
820.605	28386
820.746	28284
820.886	28230
821.026	28451
821.167	28329
821.307	28485
821.447	28280
821.588	28230
821.728	28078
821.868	27937
822.008	27827
822.149	27743
822.289	27679
822.429	27523
822.569	27443
822.709	27450
822.849	27260
822.99	27294
823.13	27283
823.27	27245
823.41	27085
823.55	27013
823.69	27119
823.83	26998
823.97	27032
824.11	26933
824.25	26853
824.389	26815
824.529	26994
824.669	26868
824.809	26960
824.949	26842
825.089	26921
825.228	26971
825.368	26655
825.508	26762
825.648	26785
825.787	26746
825.927	26804
826.067	26777
826.206	26792
826.346	26811
826.485	26864
826.625	26670
826.765	26804
826.904	26750
827.044	26404
827.183	26564
827.323	26370
827.462	26579
827.601	26469
827.741	26404
827.88	26469
828.02	26393
828.159	26514
828.298	26560
828.437	26526
828.577	26301
828.716	26453
828.855	26301
828.994	26145
829.134	26290
829.273	26301
829.412	26278
829.551	26031
829.69	26084
829.829	26111
829.968	26050
830.107	26130
830.246	26100
830.385	26107
830.524	26084
830.663	25913
830.802	25811
830.941	25719
831.08	25746
831.219	25833
831.357	25902
831.496	25921
831.635	25772
831.774	25738
831.913	25552
832.051	25624
832.19	25567
832.329	25506
832.467	25400
832.606	25392
832.744	25312
832.883	25426
833.022	25407
833.16	25426
833.299	25445
833.437	25582
833.576	25556
833.714	25563
833.852	25563
833.991	25483
834.129	25616
834.267	25540
834.406	25438
834.544	25563
834.682	25575
834.821	25407
834.959	25639
835.097	25506
835.235	25586
835.373	25540
835.511	25419
835.65	25327
835.788	25297
835.926	25217
836.064	25091
836.202	25240
836.34	25419
836.478	25354
836.615	25308
836.753	25358
836.891	25335
837.029	25362
837.167	25187
837.305	25274
837.443	25247
837.58	25031
837.718	25099
837.856	25137
837.993	25015
838.131	25133
838.269	25015
838.406	24939
838.544	24776
838.681	24901
838.819	24795
838.956	24555
839.094	24696
839.231	24623
839.369	24814
839.506	24932
839.643	24798
839.781	24646
839.918	24555
840.055	24684
840.193	24509
840.33	24604
840.467	24525
840.604	24589
840.742	24848
840.879	24467
841.016	24391
841.153	24418
841.29	24563
841.427	24388
841.564	24532
841.701	24334
841.838	24426
841.975	24388
842.112	24342
842.249	24315
842.385	24197
842.522	24559
842.659	24277
842.796	24300
842.933	24228
843.069	24197
843.206	24136
843.343	24258
843.479	24380
843.616	24232
843.752	24144
843.889	23980
844.025	23984
844.162	23950
844.298	24167
844.435	23939
844.571	23923
844.708	24102
844.844	24072
844.98	24174
845.117	24220
845.253	23840
845.389	23805
845.525	23866
845.661	23809
845.798	23653
845.934	23802
846.07	23646
846.206	23764
846.342	23817
846.478	23676
846.614	23524
846.75	23429
846.886	23512
847.022	23539
847.158	23551
847.294	23444
847.429	23478
847.565	23448
847.701	23619
847.837	23185
847.972	23189
848.108	23181
848.244	23368
848.379	23162
848.515	23113
848.65	23052
848.786	23018
848.921	23075
849.057	23151
849.192	23197
849.328	23189
849.463	23041
849.598	23044
849.734	22965
849.869	22801
850.004	22885
850.14	22889
850.275	22694
850.41	22664
850.545	22755
850.68	22755
850.815	22820
850.95	22919
851.085	22987
851.22	22908
851.355	22900
851.49	22847
851.625	22744
851.76	22831
851.895	22767
852.03	22679
852.165	22892
852.299	22763
852.434	22862
852.569	22774
852.703	22713
852.838	22873
852.973	22892
853.107	22774
853.242	22752
853.376	22752
853.511	22550
853.645	22447
853.78	22668
853.914	22687
854.048	22618
854.183	22561
854.317	22675
854.451	22828
854.585	22736
854.72	22660
854.854	22717
854.988	22664
855.122	22717
855.256	22542
855.39	22523
855.524	22736
855.658	22702
855.792	22698
855.926	22615
856.06	22611
856.194	22858
856.327	22664
856.461	22462
856.595	22546
856.729	22618
856.862	22702
856.996	22599
857.13	22710
857.263	22892
857.397	22694
857.53	22626
857.664	22588
857.797	22752
857.931	22721
858.064	22710
858.197	22793
858.331	22660
858.464	22603
858.597	22588
858.731	22679
858.864	22493
858.997	22679
859.13	22748
859.263	22489
859.396	22729
859.529	22660
859.662	22596
859.795	22573
859.928	22653
860.061	22866
860.194	22866
860.327	22767
860.46	22801
860.592	22809
860.725	22778
860.858	22725
860.99	22782
861.123	22580
861.256	22649
861.388	22706
861.521	23288
861.653	22516
861.786	22424
861.918	22443
862.05	22519
862.183	22546
862.315	22577
862.447	22615
862.58	22580
862.712	22371
862.844	22348
862.976	22428
863.108	22447
863.24	22877
863.372	22386
863.504	22390
863.636	22348
863.768	22371
863.9	22234
864.032	22325
864.164	22303
864.296	22394
864.428	22394
864.559	22443
864.691	22455
864.823	22329
864.954	22470
865.086	22280
865.217	22360
865.349	22143
865.48	22246
865.612	22322
865.743	22421
865.875	22409
866.006	22299
866.137	22226
866.269	22333
866.4	22268
866.531	22242
866.662	22135
866.793	22150
866.924	22086
867.055	22223
867.186	22223
867.317	22207
867.448	21934
867.579	22139
867.71	22112
867.841	22017
867.972	22207
868.103	22109
868.233	22242
868.364	22120
868.495	22249
868.625	22341
868.756	22645
868.886	22246
869.017	22382
869.147	22523
869.278	22557
869.408	22485
869.539	22394
869.669	22478
869.799	22603
869.929	22462
870.06	22451
870.19	22812
870.32	22618
870.45	22835
870.58	22805
870.71	22812
870.84	22786
870.97	22725
871.1	22778
871.23	22961
871.36	22984
871.489	22786
871.619	22976
871.749	22968
871.879	23048
872.008	23136
872.138	23029
872.267	22968
872.397	22968
872.526	22869
872.656	22847
872.785	22862
872.915	23003
873.044	23022
873.173	22987
873.303	23090
873.432	23033
873.561	23193
873.69	23128
873.819	22999
873.948	23235
874.077	22991
874.206	23098
874.335	23029
874.464	23102
874.593	23231
874.722	23322
874.851	23250
874.979	23242
875.108	23220
875.237	23185
875.365	23109
875.494	23250
875.623	23269
875.751	23246
875.88	23155
876.008	23280
876.136	23349
876.265	23779
876.393	23638
876.521	23695
876.65	23668
876.778	23611
876.906	23501
877.034	23627
877.162	23551
877.29	23425
877.418	23570
877.546	23444
877.674	23509
877.802	23520
877.93	23512
878.058	23592
878.185	23326
878.313	23528
878.441	23543
878.568	23452
878.696	23425
878.824	23535
878.951	23718
879.079	23733
879.206	23832
879.333	23726
879.461	23573
879.588	23638
879.715	23687
879.842	23802
879.97	23649
880.097	23311
880.224	23395
880.351	23402
880.478	23414
880.605	23345
880.732	23383
880.859	23577
880.986	23364
881.112	23353
881.239	23303
881.366	23185
881.493	22991
881.619	22927
881.746	22968
881.872	23075
881.999	22850
882.125	22850
882.252	22991
882.378	22885
882.505	22965
882.631	22793
882.757	22641
882.883	22790
883.01	22584
883.136	22512
883.262	22561
883.388	22500
883.514	22459
883.64	22649
883.766	22466
883.892	22390
884.018	22440
884.143	22504
884.269	22546
884.395	22287
884.52	22272
884.646	22325
884.772	22154
884.897	22158
885.023	22322
885.148	22485
885.274	22341
885.399	22363
885.524	22188
885.65	22344
885.775	22306
885.9	22116
886.025	22440
886.15	22291
886.275	22074
886.4	22048
886.525	22280
886.65	22082
886.775	22124
886.9	22306
887.025	22470
887.149	22120
887.274	22059
887.399	22040
887.523	22051
887.648	21911
887.773	22029
887.897	22105
888.021	22093
888.146	21876
888.27	22158
888.395	22067
888.519	22139
888.643	21975
888.767	22044
888.891	21937
889.015	21789
889.139	21892
889.263	21709
889.387	21892
889.511	22013
889.635	21941
889.759	21709
889.883	21762
890.006	21747
890.13	21812
890.254	21755
890.377	21694
890.501	21583
890.624	21538
890.748	21561
890.871	21412
890.995	21382
891.118	21268
891.241	21355
891.364	21230
891.488	21557
891.611	21431
891.734	21272
891.857	21351
891.98	21367
892.103	21359
892.226	21252
892.349	21211
892.471	21112
892.594	21283
892.717	21260
892.839	21230
892.962	21222
893.085	21329
893.207	21321
893.33	20982
893.452	21096
893.575	21291
893.697	21192
893.819	21504
893.941	21401
894.064	21268
894.186	21176
894.308	21150
894.43	21420
894.552	21348
894.674	21310
894.796	21195
894.918	21207
895.04	21272
895.161	21279
895.283	21218
895.405	21214
895.526	21195
895.648	21138
895.769	21173
895.891	21260
896.012	21230
896.134	21218
896.255	21222
896.376	21093
896.498	21222
896.619	21291
896.74	21329
896.861	21237
896.982	21462
897.103	21660
897.224	21450
897.345	21401
897.466	21405
897.587	21481
897.708	21564
897.828	21450
897.949	21370
898.07	21222
898.19	21370
898.311	21507
898.431	21367
898.552	21428
898.672	21485
898.792	21416
898.913	21469
899.033	21355
899.153	21222
899.273	21127
899.393	21047
899.513	21074
899.633	21051
899.753	21096
899.873	21074
899.993	21249
900.113	20956
900.232	21039
900.352	20960
900.472	21013
900.591	20914
900.711	20876
900.83	21001
900.95	20933
901.069	21024
901.189	20765
901.308	20545
901.427	20454
901.546	20423
901.665	20511
901.784	20454
901.904	20317
902.023	20210
902.141	19993
902.26	19951
902.379	20077
902.498	20020
902.617	20073
902.735	20020
902.854	19868
902.973	19913
903.091	19567
903.21	19643
903.328	19563
903.446	19525
903.565	19460
903.683	19460
903.801	19354
903.919	19457
904.038	19327
904.156	19221
904.274	19187
904.392	19244
904.51	19126
904.627	19168
904.745	19095
904.863	19198
904.981	18901
905.098	18791
905.216	18867
905.334	18989
905.451	18852
905.569	18798
905.686	18970
905.803	18814
905.921	18585
906.038	18673
906.155	18604
906.272	18521
906.389	18502
906.506	18357
906.623	18338
906.74	18289
906.857	18216
906.974	18285
907.091	18426
907.208	18407
907.324	18334
907.441	18224
907.557	17992
907.674	18174
907.79	17931
907.907	18022
908.023	17988
908.139	17961
908.256	18095
908.372	17954
908.488	17840
908.604	17927
908.72	17817
908.836	17783
908.952	17821
909.068	17901
909.184	17802
909.3	17722
909.415	17733
909.531	17752
909.647	17570
909.762	17490
909.878	17478
909.993	17512
910.108	17471
910.224	17486
910.339	17467
910.454	17318
910.57	17235
910.685	17193
910.8	17433
910.915	17436
911.03	17220
911.145	17056
911.259	16965
911.374	17006
911.489	16915
911.604	16904
911.718	16679
911.833	16748
911.947	16809
912.062	16622
912.176	16809
912.291	16717
912.405	16824
912.519	16961
912.633	16930
912.748	16816
912.862	16831
912.976	16561
913.09	16417
913.204	16527
913.318	16622
913.431	16698
913.545	16664
913.659	16771
913.772	16596
913.886	16398
914	16352
914.113	16500
914.226	16451
914.34	16402
914.453	16226
914.566	16390
914.68	16200
914.793	16242
914.906	16147
915.019	16040
915.132	15876
915.245	15918
915.358	15964
915.47	15926
915.583	15884
915.696	15968
915.809	16055
915.921	16086
916.034	15903
916.146	15895
916.259	15808
916.371	15892
916.483	15842
916.595	15861
916.708	15743
916.82	15770
916.932	15762
917.044	15648
917.156	15762
917.268	15584
917.38	15542
917.491	15580
917.603	15542
917.715	15629
917.826	15637
917.938	15523
918.049	15401
918.161	15439
918.272	15606
918.384	15641
918.495	15587
918.606	15492
918.717	15355
918.828	15458
918.939	15431
919.05	15157
919.161	15416
919.272	15188
919.383	15203
919.494	15310
919.604	15549
919.715	15344
919.826	15211
919.936	15192
920.047	15344
920.157	15329
920.267	15447
920.378	15283
920.488	15237
920.598	15450
920.708	15557
920.818	15401
920.928	15405
921.038	15526
921.148	15507
921.258	15199
921.368	15146
921.477	14933
921.587	14975
921.697	14918
921.806	15070
921.916	14838
922.025	14735
922.134	14594
922.244	14568
922.353	14568
922.462	14537
922.571	14408
922.68	14275
922.789	14286
922.898	14320
923.007	14221
923.116	14358
923.224	14286
923.333	14115
923.442	14088
923.55	14043
923.659	14115
923.767	14244
923.876	14024
923.984	14062
924.092	14027
924.201	13989
924.309	13986
924.417	13921
924.525	13955
924.633	13887
924.741	14834
924.849	13639
924.956	13902
925.064	13677
925.172	13559
925.279	13582
925.387	13696
925.494	13590
925.602	13738
925.709	13765
925.816	13540
925.924	13552
926.031	13632
926.138	13578
926.245	13540
926.352	13529
926.459	13636
926.566	13734
926.673	13525
926.779	13441
926.886	13362
926.993	13221
927.099	13293
927.206	13152
927.312	13080
927.419	13156
927.525	13168
927.631	13213
927.737	13076
927.843	13069
927.95	12939
928.056	13000
928.162	12981
928.267	13034
928.373	13727
928.479	13057
928.585	12882
928.69	12875
928.796	12970
928.901	12852
929.007	12772
929.112	12844
929.218	12795
929.323	12745
929.428	12730
929.533	12897
929.638	12604
929.743	12650
929.848	12658
929.953	12650
930.058	12490
930.163	12376
930.267	12437
930.372	12471
930.477	12285
930.581	12536
930.685	12388
930.79	12338
930.894	12247
930.998	12175
931.103	12361
931.207	11946
931.311	11935
931.415	11802
931.519	11562
931.623	11680
