Data from test_V78500241_3586.txt Node
Date: Fri Mar 25 16:06:38 CST 2022
User: usil
Spectrometer: V785-0024
Trigger mode: 0
Integration Time (sec): 4.000000E-1
Scans to average: 1
Nonlinearity correction enabled: false
Boxcar width: 0
Storing dark spectrum: false
XAxis mode: Wavelengths
Number of Pixels in Spectrum: 1024
>>>>>Begin Spectral Data<<<<<
801.071	28713
801.214	28767
801.356	28401
801.499	28398
801.641	28306
801.783	28291
801.926	28424
802.068	28219
802.211	28325
802.353	28223
802.496	28040
802.638	28082
802.78	27991
802.923	27991
803.065	27888
803.208	27926
803.35	27930
803.492	28128
803.635	28268
803.777	28162
803.919	28284
804.061	28527
804.204	28257
804.346	28318
804.488	28040
804.63	28135
804.773	28200
804.915	28276
805.057	28360
805.199	28192
805.341	28268
805.483	28325
805.626	28295
805.768	28333
805.91	28413
806.052	28440
806.194	28398
806.336	28626
806.478	28314
806.62	28405
806.762	28519
806.904	28634
807.046	28984
807.188	28816
807.33	28797
807.472	29014
807.614	28736
807.756	28915
807.898	28797
808.04	28736
808.182	28740
808.324	28812
808.465	28820
808.607	28980
808.749	29044
808.891	29178
809.033	29296
809.174	29136
809.316	29185
809.458	29124
809.6	28991
809.741	29113
809.883	29311
810.025	29375
810.166	29242
810.308	29410
810.45	29421
810.591	29341
810.733	29136
810.875	29159
811.016	29212
811.158	29014
811.299	29246
811.441	29284
811.582	29242
811.724	29200
811.865	29151
812.007	29220
812.148	29193
812.29	29136
812.431	29372
812.573	29406
812.714	29562
812.855	29714
812.997	29805
813.138	29855
813.279	29722
813.421	29771
813.562	29566
813.703	29417
813.845	29448
813.986	29010
814.127	29014
814.268	28736
814.41	29025
814.551	28759
814.692	28858
814.833	28824
814.974	28831
815.115	28653
815.256	28706
815.397	28790
815.539	28702
815.68	28596
815.821	28615
815.962	28687
816.103	28626
816.244	28481
816.385	28394
816.526	28409
816.666	28249
816.807	28097
816.948	28185
817.089	28166
817.23	28181
817.371	28226
817.512	28044
817.653	28097
817.793	28048
817.934	28112
818.075	28166
818.216	28135
818.356	28097
818.497	28044
818.638	27911
818.778	27876
818.919	28036
819.06	27949
819.2	28010
819.341	28150
819.481	28101
819.622	28219
819.762	28557
819.903	28413
820.043	28306
820.184	28325
820.324	28242
820.465	28527
820.605	28219
820.746	28150
820.886	28032
821.026	28181
821.167	28147
821.307	28257
821.447	28120
821.588	27994
821.728	28040
821.868	27869
822.008	27625
822.149	27759
822.289	27564
822.429	27237
822.569	27363
822.709	27340
822.849	27127
822.99	27096
823.13	27169
823.27	27203
823.41	26826
823.55	26804
823.69	26963
823.83	26925
823.97	27058
824.11	26743
824.25	26716
824.389	26773
824.529	26849
824.669	26746
824.809	26963
824.949	26967
825.089	26765
825.228	26876
825.368	26602
825.508	26659
825.648	26792
825.787	26579
825.927	26678
826.067	26682
826.206	26697
826.346	26792
826.485	26800
826.625	26682
826.765	26807
826.904	26906
827.044	26499
827.183	26530
827.323	26370
827.462	26324
827.601	26450
827.741	26427
827.88	26412
828.02	26267
828.159	26332
828.298	26305
828.437	26393
828.577	26351
828.716	26374
828.855	26263
828.994	26176
829.134	26054
829.273	26168
829.412	25978
829.551	26024
829.69	26077
829.829	26138
829.968	26214
830.107	26031
830.246	26046
830.385	26039
830.524	26012
830.663	25837
830.802	25837
830.941	25685
831.08	25533
831.219	25822
831.357	25780
831.496	26092
831.635	25719
831.774	25556
831.913	25609
832.051	25495
832.19	25472
832.329	25422
832.467	25400
832.606	25289
832.744	25324
832.883	25457
833.022	25339
833.16	25434
833.299	25400
833.437	25460
833.576	25449
833.714	25422
833.852	25415
833.991	25460
834.129	25457
834.267	25419
834.406	25464
834.544	25567
834.682	25365
834.821	25460
834.959	25567
835.097	25240
835.235	25472
835.373	25308
835.511	25304
835.65	25331
835.788	25320
835.926	25072
836.064	25122
836.202	24928
836.34	25187
836.478	25293
836.615	25274
836.753	25316
836.891	25247
837.029	25168
837.167	25156
837.305	25137
837.443	25145
837.58	25187
837.718	25076
837.856	25122
837.993	25012
838.131	25103
838.269	25023
838.406	24992
838.544	24867
838.681	24745
838.819	24726
838.956	24604
839.094	24623
839.231	24631
839.369	24684
839.506	24958
839.643	24821
839.781	24521
839.918	24426
840.055	24623
840.193	24433
840.33	24532
840.467	24467
840.604	24574
840.742	24669
840.879	24342
841.016	24361
841.153	24216
841.29	24494
841.427	24357
841.564	24361
841.701	24448
841.838	24270
841.975	24270
842.112	24391
842.249	24232
842.385	24182
842.522	24338
842.659	24232
842.796	24224
842.933	24072
843.069	24098
843.206	24148
843.343	24281
843.479	24216
843.616	24171
843.752	24030
843.889	23973
844.025	24098
844.162	23920
844.298	24057
844.435	23939
844.571	23870
844.708	24106
844.844	24148
844.98	24079
845.117	24136
845.253	23893
845.389	23748
845.525	23866
845.661	23843
845.798	23851
845.934	23707
846.07	23748
846.206	23707
846.342	23866
846.478	23627
846.614	23505
846.75	23398
846.886	23322
847.022	23376
847.158	23387
847.294	23402
847.429	23440
847.565	23345
847.701	23589
847.837	23159
847.972	23064
848.108	23250
848.244	23155
848.379	23037
848.515	22904
848.65	23022
848.786	23014
848.921	23041
849.057	23018
849.192	23090
849.328	23193
849.463	22885
849.598	22980
849.734	22942
849.869	22946
850.004	22793
850.14	22793
850.275	22721
850.41	22748
850.545	22771
850.68	22809
850.815	22790
850.95	22801
851.085	23124
851.22	22809
851.355	22816
851.49	22675
851.625	22630
851.76	22816
851.895	22630
852.03	22744
852.165	22725
852.299	22664
852.434	22961
852.569	22862
852.703	22873
852.838	22793
852.973	22809
853.107	23037
853.242	22854
853.376	22641
853.511	22481
853.645	22485
853.78	22580
853.914	22618
854.048	22565
854.183	22641
854.317	22557
854.451	22809
854.585	22634
854.72	22538
854.854	22710
854.988	22645
855.122	22717
855.256	22382
855.39	22538
855.524	22421
855.658	22573
855.792	22733
855.926	22565
856.06	22611
856.194	22668
856.327	22557
856.461	22485
856.595	22512
856.729	22516
856.862	22774
856.996	22531
857.13	22519
857.263	22687
857.397	22675
857.53	22611
857.664	22660
857.797	22626
857.931	22790
858.064	22615
858.197	22630
858.331	22618
858.464	22573
858.597	22481
858.731	22554
858.864	22554
858.997	22565
859.13	22580
859.263	22717
859.396	22717
859.529	22660
859.662	22577
859.795	22546
859.928	22679
860.061	22778
860.194	22771
860.327	22599
860.46	22618
860.592	22740
860.725	22752
860.858	22740
860.99	22546
861.123	22436
861.256	22554
861.388	22672
861.521	23277
861.653	22382
861.786	22459
861.918	22386
862.05	22508
862.183	22531
862.315	22683
862.447	22660
862.58	22592
862.712	22246
862.844	22360
862.976	22333
863.108	22367
863.24	22847
863.372	22166
863.504	22299
863.636	22299
863.768	22356
863.9	22390
864.032	22253
864.164	22223
864.296	22272
864.428	22413
864.559	22375
864.691	22386
864.823	22230
864.954	22337
865.086	22253
865.217	22223
865.349	22154
865.48	22215
865.612	22257
865.743	22333
865.875	22207
866.006	22002
866.137	22158
866.269	22200
866.4	22090
866.531	22162
866.662	22105
866.793	22059
866.924	22181
867.055	22143
867.186	22135
867.317	21930
867.448	21960
867.579	22128
867.71	22162
867.841	22097
867.972	22070
868.103	22063
868.233	22093
868.364	22143
868.495	22291
868.625	22329
868.756	22508
868.886	22234
869.017	22268
869.147	22459
869.278	22405
869.408	22405
869.539	22382
869.669	22443
869.799	22440
869.929	22508
870.06	22497
870.19	22542
870.32	22672
870.45	22748
870.58	22725
870.71	22752
870.84	22786
870.97	22698
871.1	22927
871.23	22900
871.36	23044
871.489	22782
871.619	22942
871.749	22995
871.879	22889
872.008	23090
872.138	22953
872.267	22942
872.397	22885
872.526	22847
872.656	22687
872.785	22778
872.915	22930
873.044	23109
873.173	22938
873.303	23029
873.432	23018
873.561	23029
873.69	22904
873.819	22911
873.948	23067
874.077	22946
874.206	22911
874.335	23006
874.464	23227
874.593	23189
874.722	23006
874.851	23303
874.979	23166
875.108	23261
875.237	23178
875.365	23147
875.494	23083
875.623	23216
875.751	23174
875.88	23353
876.008	23261
876.136	23337
876.265	23600
876.393	23741
876.521	23630
876.65	23680
876.778	23642
876.906	23516
877.034	23436
877.162	23551
877.29	23528
877.418	23691
877.546	23543
877.674	23573
877.802	23474
877.93	23592
878.058	23436
878.185	23436
878.313	23493
878.441	23455
878.568	23341
878.696	23531
878.824	23562
878.951	23463
879.079	23707
879.206	23802
879.333	23600
879.461	23512
879.588	23653
879.715	23741
879.842	23790
879.97	23596
880.097	23360
880.224	23440
880.351	23280
880.478	23402
880.605	23277
880.732	23383
880.859	23459
880.986	23311
881.112	23376
881.239	23258
881.366	23170
881.493	22919
881.619	22919
881.746	22889
881.872	22915
881.999	22892
882.125	22949
882.252	22835
882.378	22809
882.505	22847
882.631	22569
882.757	22550
882.883	22805
883.01	22451
883.136	22573
883.262	22535
883.388	22337
883.514	22584
883.64	22462
883.766	22538
883.892	22443
884.018	22363
884.143	22542
884.269	22550
884.395	22207
884.52	22215
884.646	22265
884.772	22185
884.897	22097
885.023	22211
885.148	22318
885.274	22261
885.399	22265
885.524	22143
885.65	22265
885.775	22234
885.9	22185
886.025	22356
886.15	22306
886.275	22055
886.4	22082
886.525	22128
886.65	22040
886.775	22215
886.9	22276
887.025	22341
887.149	22090
887.274	21937
887.399	21895
887.523	21987
887.648	21915
887.773	21926
887.897	22036
888.021	21956
888.146	21781
888.27	22059
888.395	22032
888.519	22036
888.643	22006
888.767	21960
888.891	21861
889.015	21789
889.139	21804
889.263	21705
889.387	21922
889.511	21930
889.635	21876
889.759	21724
889.883	21709
890.006	21785
890.13	21762
890.254	21599
890.377	21637
890.501	21637
890.624	21435
890.748	21530
890.871	21374
890.995	21321
891.118	21222
891.241	21332
891.364	21405
891.488	21466
891.611	21367
891.734	21344
891.857	21260
891.98	21382
892.103	21450
892.226	21222
892.349	21249
892.471	21127
892.594	21230
892.717	21294
892.839	21230
892.962	21195
893.085	21192
893.207	21188
893.33	21127
893.452	21100
893.575	21165
893.697	21222
893.819	21310
893.941	21462
894.064	21252
894.186	21237
894.308	21047
894.43	21245
894.552	21321
894.674	21325
894.796	21112
894.918	21226
895.04	21188
895.161	21245
895.283	21184
895.405	21112
895.526	21081
895.648	21070
895.769	21245
895.891	21184
896.012	21249
896.134	21142
896.255	21192
896.376	21020
896.498	21176
896.619	21230
896.74	20994
896.861	21207
896.982	21538
897.103	21610
897.224	21340
897.345	21370
897.466	21359
897.587	21256
897.708	21439
897.828	21431
897.949	21405
898.07	21169
898.19	21268
898.311	21435
898.431	21287
898.552	21336
898.672	21405
898.792	21405
898.913	21367
899.033	21283
899.153	21123
899.273	21131
899.393	21009
899.513	21043
899.633	21047
899.753	21062
899.873	21001
899.993	21138
900.113	21001
900.232	21085
900.352	20982
900.472	20941
900.591	20914
900.711	20891
900.83	20910
900.95	20887
901.069	20891
901.189	20682
901.308	20495
901.427	20469
901.546	20404
901.665	20366
901.784	20537
901.904	20282
902.023	20176
902.141	20092
902.26	20073
902.379	19986
902.498	19947
902.617	19765
902.735	19925
902.854	20031
902.973	19814
903.091	19571
903.21	19544
903.328	19613
903.446	19407
903.565	19369
903.683	19422
903.801	19354
903.919	19403
904.038	19445
904.156	19228
904.274	19194
904.392	19103
904.51	19095
904.627	19141
904.745	19107
904.863	19240
904.981	18970
905.098	18772
905.216	18711
905.334	18764
905.451	18810
905.569	18760
905.686	18783
905.803	18787
905.921	18620
906.038	18616
906.155	18563
906.272	18525
906.389	18547
906.506	18323
906.623	18391
906.74	18247
906.857	18228
906.974	18228
907.091	18350
907.208	18513
907.324	18353
907.441	18083
907.557	18060
907.674	18117
907.79	17988
907.907	18030
908.023	18121
908.139	18007
908.256	17996
908.372	17988
908.488	17870
908.604	17745
908.72	17741
908.836	17866
908.952	17786
909.068	17832
909.184	17897
909.3	17714
909.415	17802
909.531	17809
909.647	17471
909.762	17425
909.878	17497
909.993	17425
910.108	17364
910.224	17330
910.339	17429
910.454	17326
910.57	17307
910.685	17181
910.8	17463
910.915	17334
911.03	17204
911.145	17056
911.259	17132
911.374	16953
911.489	17010
911.604	16953
911.718	16771
911.833	16767
911.947	16626
912.062	16512
912.176	16790
912.291	16858
912.405	16862
912.519	16850
912.633	16843
912.748	16786
912.862	16774
912.976	16615
913.09	16329
913.204	16481
913.318	16649
913.431	16679
913.545	16592
913.659	16687
913.772	16474
913.886	16398
914	16344
914.113	16504
914.226	16402
914.34	16409
914.453	16272
914.566	16455
914.68	16181
914.793	16120
914.906	15968
915.019	15953
915.132	15930
915.245	15911
915.358	15911
915.47	15991
915.583	15945
915.696	15892
915.809	16032
915.921	16086
916.034	15854
916.146	15797
916.259	15720
916.371	15956
916.483	15903
916.595	15846
916.708	15679
916.82	15747
916.932	15774
917.044	15663
917.156	15667
917.268	15576
917.38	15549
917.491	15557
917.603	15561
917.715	15660
917.826	15641
917.938	15477
918.049	15298
918.161	15454
918.272	15610
918.384	15542
918.495	15519
918.606	15268
918.717	15287
918.828	15313
918.939	15325
919.05	15287
919.161	15294
919.272	15112
919.383	15066
919.494	15302
919.604	15473
919.715	15329
919.826	15108
919.936	15146
920.047	15367
920.157	15195
920.267	15443
920.378	15313
920.488	15214
920.598	15428
920.708	15534
920.818	15378
920.928	15523
921.038	15500
921.148	15416
921.258	15169
921.368	15157
921.477	15070
921.587	14998
921.697	14804
921.806	14971
921.916	14765
922.025	14648
922.134	14613
922.244	14640
922.353	14621
922.462	14495
922.571	14412
922.68	14244
922.789	14317
922.898	14183
923.007	14237
923.116	14275
923.224	14229
923.333	14202
923.442	14031
923.55	13967
923.659	14157
923.767	14161
923.876	13932
923.984	14168
924.092	13936
924.201	13944
924.309	13902
924.417	13951
924.525	13856
924.633	13898
924.741	14811
924.849	13742
924.956	13791
925.064	13578
925.172	13628
925.279	13636
925.387	13655
925.494	13594
925.602	13814
925.709	13597
925.816	13510
925.924	13544
926.031	13655
926.138	13571
926.245	13518
926.352	13495
926.459	13639
926.566	13563
926.673	13472
926.779	13358
926.886	13327
926.993	13236
927.099	13164
927.206	13103
927.312	13149
927.419	13202
927.525	13118
927.631	13133
927.737	13088
927.843	13042
927.95	12875
928.056	12894
928.162	12989
928.267	12897
928.373	13651
928.479	13012
928.585	12749
928.69	12905
928.796	12939
928.901	12939
929.007	12703
929.112	12783
929.218	12764
929.323	12692
929.428	12646
929.533	12856
929.638	12700
929.743	12551
929.848	12612
929.953	12604
930.058	12540
930.163	12357
930.267	12346
930.372	12544
930.477	12258
930.581	12620
930.685	12448
930.79	12289
930.894	12292
930.998	12292
931.103	12391
931.207	11851
931.311	11901
931.415	11843
931.519	11516
931.623	11554
