Data from test_V78500241_667.txt Node
Date: Fri Mar 25 15:46:25 CST 2022
User: usil
Spectrometer: V785-0024
Trigger mode: 0
Integration Time (sec): 4.000000E-1
Scans to average: 1
Nonlinearity correction enabled: false
Boxcar width: 0
Storing dark spectrum: false
XAxis mode: Wavelengths
Number of Pixels in Spectrum: 1024
>>>>>Begin Spectral Data<<<<<
801.071	27184
801.214	27260
801.356	26921
801.499	26933
801.641	26765
801.783	26708
801.926	26857
802.068	26758
802.211	26682
802.353	26621
802.496	26568
802.638	26549
802.78	26484
802.923	26434
803.065	26480
803.208	26377
803.35	26442
803.492	26396
803.635	26701
803.777	26453
803.919	26648
804.061	26788
804.204	26621
804.346	26583
804.488	26377
804.63	26579
804.773	26431
804.915	26640
805.057	26750
805.199	26632
805.341	26689
805.483	26785
805.626	26701
805.768	26545
805.91	26731
806.052	26659
806.194	26640
806.336	26785
806.478	26659
806.62	26644
806.762	26826
806.904	27043
807.046	27161
807.188	27173
807.33	26982
807.472	27146
807.614	27104
807.756	26994
807.898	26990
808.04	26990
808.182	26792
808.324	26895
808.465	27043
808.607	27116
808.749	27275
808.891	27561
809.033	27439
809.174	27397
809.316	27363
809.458	27329
809.6	27340
809.741	27485
809.883	27416
810.025	27511
810.166	27587
810.308	27553
810.45	27549
810.591	27530
810.733	27142
810.875	27283
811.016	27214
811.158	27336
811.299	27439
811.441	27504
811.582	27557
811.724	27329
811.865	27268
812.007	27268
812.148	27355
812.29	27302
812.431	27443
812.573	27599
812.714	27720
812.855	27835
812.997	27960
813.138	28055
813.279	27987
813.421	27907
813.562	27831
813.703	27724
813.845	27439
813.986	27340
814.127	27135
814.268	26895
814.41	26986
814.551	26845
814.692	27089
814.833	27032
814.974	27009
815.115	26918
815.256	26796
815.397	26815
815.539	26750
815.68	26754
815.821	26587
815.962	26842
816.103	26693
816.244	26651
816.385	26617
816.526	26533
816.666	26453
816.807	26294
816.948	26389
817.089	26309
817.23	26134
817.371	26294
817.512	26134
817.653	26339
817.793	26278
817.934	26343
818.075	26244
818.216	26305
818.356	26161
818.497	26103
818.638	25982
818.778	25917
818.919	26027
819.06	26161
819.2	26176
819.341	26122
819.481	26210
819.622	26412
819.762	26648
819.903	26518
820.043	26286
820.184	26298
820.324	26290
820.465	26461
820.605	26290
820.746	26339
820.886	26100
821.026	26324
821.167	26252
821.307	26381
821.447	26381
821.588	26115
821.728	26005
821.868	25894
822.008	25753
822.149	25590
822.289	25700
822.429	25495
822.569	25537
822.709	25369
822.849	25126
822.99	25152
823.13	25255
823.27	25118
823.41	24966
823.55	25053
823.69	25061
823.83	25038
823.97	24951
824.11	24901
824.25	24871
824.389	24962
824.529	24939
824.669	24909
824.809	24985
824.949	25031
825.089	24920
825.228	24966
825.368	24719
825.508	24730
825.648	24658
825.787	24768
825.927	24730
826.067	24589
826.206	24650
826.346	24867
826.485	24665
826.625	24711
826.765	24753
826.904	24661
827.044	24532
827.183	24555
827.323	24350
827.462	24498
827.601	24555
827.741	24342
827.88	24505
828.02	24190
828.159	24464
828.298	24479
828.437	24308
828.577	24479
828.716	24399
828.855	24319
828.994	24079
829.134	24087
829.273	24178
829.412	24106
829.551	24072
829.69	24201
829.829	24182
829.968	24174
830.107	24319
830.246	24117
830.385	24182
830.524	24003
830.663	23935
830.802	23821
830.941	23733
831.08	23657
831.219	23794
831.357	23885
831.496	23965
831.635	23634
831.774	23528
831.913	23672
832.051	23528
832.19	23406
832.329	23421
832.467	23379
832.606	23421
832.744	23493
832.883	23360
833.022	23444
833.16	23223
833.299	23398
833.437	23398
833.576	23623
833.714	23516
833.852	23330
833.991	23402
834.129	23600
834.267	23398
834.406	23345
834.544	23471
834.682	23383
834.821	23368
834.959	23585
835.097	23391
835.235	23452
835.373	23501
835.511	23433
835.65	23254
835.788	23261
835.926	23200
836.064	23121
836.202	23155
836.34	23417
836.478	23345
836.615	23227
836.753	23197
836.891	23387
837.029	23223
837.167	23147
837.305	23231
837.443	23143
837.58	23136
837.718	23136
837.856	23231
837.993	23025
838.131	23227
838.269	23086
838.406	23033
838.544	22904
838.681	22873
838.819	22698
838.956	22694
839.094	22622
839.231	22622
839.369	22752
839.506	23094
839.643	22660
839.781	22664
839.918	22470
840.055	22611
840.193	22546
840.33	22405
840.467	22607
840.604	22607
840.742	22839
840.879	22447
841.016	22447
841.153	22363
841.29	22569
841.427	22603
841.564	22588
841.701	22504
841.838	22459
841.975	22413
842.112	22413
842.249	22303
842.385	22116
842.522	22584
842.659	22249
842.796	22310
842.933	22276
843.069	22280
843.206	22242
843.343	22284
843.479	22379
843.616	22219
843.752	22013
843.889	22109
844.025	22223
844.162	22048
844.298	22188
844.435	22070
844.571	21983
844.708	22219
844.844	22226
844.98	22215
845.117	22230
845.253	22078
845.389	21850
845.525	21903
845.661	21854
845.798	21804
845.934	21918
846.07	21831
846.206	21739
846.342	21892
846.478	21724
846.614	21610
846.75	21439
846.886	21519
847.022	21656
847.158	21545
847.294	21454
847.429	21576
847.565	21526
847.701	21701
847.837	21291
847.972	21359
848.108	21393
848.244	21329
848.379	21123
848.515	21123
848.65	21062
848.786	21150
848.921	21135
849.057	21127
849.192	21184
849.328	21275
849.463	21169
849.598	20982
849.734	21104
849.869	20986
850.004	20975
850.14	20948
850.275	20868
850.41	20826
850.545	20804
850.68	20876
850.815	20994
850.95	20971
851.085	21123
851.22	21013
851.355	20883
851.49	20883
851.625	20796
851.76	20834
851.895	20899
852.03	20819
852.165	20830
852.299	20982
852.434	20998
852.569	20880
852.703	20925
852.838	21013
852.973	21032
853.107	20963
853.242	20765
853.376	20792
853.511	20583
853.645	20651
853.78	20902
853.914	20788
854.048	20682
854.183	20792
854.317	20655
854.451	20933
854.585	20667
854.72	20724
854.854	20716
854.988	20701
855.122	20663
855.256	20583
855.39	20674
855.524	20819
855.658	20815
855.792	20667
855.926	20720
856.06	20788
856.194	20678
856.327	20731
856.461	20682
856.595	20735
856.729	20556
856.862	20788
856.996	20735
857.13	20811
857.263	20910
857.397	20762
857.53	20682
857.664	20762
857.797	20777
857.931	20864
858.064	20823
858.197	20811
858.331	20693
858.464	20689
858.597	20663
858.731	20739
858.864	20720
858.997	20568
859.13	20686
859.263	20583
859.396	20727
859.529	20712
859.662	20686
859.795	20632
859.928	20773
860.061	20823
860.194	20979
860.327	20609
860.46	20560
860.592	20864
860.725	20750
860.858	20849
860.99	20735
861.123	20644
861.256	20670
861.388	20655
861.521	21389
861.653	20522
861.786	20533
861.918	20682
862.05	20560
862.183	20613
862.315	20674
862.447	20613
862.58	20587
862.712	20568
862.844	20370
862.976	20503
863.108	20476
863.24	20807
863.372	20305
863.504	20431
863.636	20385
863.768	20560
863.9	20522
864.032	20275
864.164	20427
864.296	20457
864.428	20484
864.559	20518
864.691	20552
864.823	20438
864.954	20377
865.086	20396
865.217	20431
865.349	20324
865.48	20275
865.612	20457
865.743	20518
865.875	20278
866.006	20343
866.137	20366
866.269	20305
866.4	20328
866.531	20278
866.662	20263
866.793	20381
866.924	20259
867.055	20313
867.186	20263
867.317	20309
867.448	20233
867.579	20248
867.71	20286
867.841	20282
867.972	20313
868.103	20225
868.233	20332
868.364	20343
868.495	20305
868.625	20476
868.756	20708
868.886	20355
869.017	20450
869.147	20583
869.278	20682
869.408	20583
869.539	20511
869.669	20545
869.799	20518
869.929	20621
870.06	20750
870.19	20804
870.32	20811
870.45	20838
870.58	20933
870.71	21028
870.84	21100
870.97	20834
871.1	20979
871.23	21009
871.36	21241
871.489	21032
871.619	21173
871.749	21081
871.879	21192
872.008	21245
872.138	21085
872.267	21241
872.397	20845
872.526	21017
872.656	20861
872.785	20990
872.915	21100
873.044	21176
873.173	21081
873.303	21169
873.432	21214
873.561	21298
873.69	21180
873.819	21157
873.948	21241
874.077	21077
874.206	21020
874.335	21135
874.464	21294
874.593	21367
874.722	21294
874.851	21378
874.979	21447
875.108	21515
875.237	21363
875.365	21279
875.494	21294
875.623	21435
875.751	21431
875.88	21488
876.008	21549
876.136	21591
876.265	21865
876.393	21907
876.521	21713
876.65	21857
876.778	21876
876.906	21903
877.034	21770
877.162	21827
877.29	21736
877.418	21793
877.546	21785
877.674	21835
877.802	21823
877.93	21770
878.058	21656
878.185	21583
878.313	21679
878.441	21835
878.568	21557
878.696	21694
878.824	21861
878.951	21660
879.079	21880
879.206	22090
879.333	22051
879.461	21736
879.588	21892
879.715	21979
879.842	21850
879.97	21861
880.097	21538
880.224	21530
880.351	21496
880.478	21675
880.605	21599
880.732	21576
880.859	21785
880.986	21500
881.112	21583
881.239	21359
881.366	21180
881.493	21176
881.619	21123
881.746	21264
881.872	21116
881.999	21157
882.125	21138
882.252	21211
882.378	21165
882.505	21332
882.631	20998
882.757	20944
882.883	20994
883.01	20826
883.136	20857
883.262	20705
883.388	20674
883.514	20857
883.64	20796
883.766	20754
883.892	20537
884.018	20583
884.143	20815
884.269	20857
884.395	20625
884.52	20488
884.646	20393
884.772	20442
884.897	20514
885.023	20564
885.148	20568
885.274	20765
885.399	20579
885.524	20530
885.65	20587
885.775	20686
885.9	20484
886.025	20579
886.15	20663
886.275	20442
886.4	20377
886.525	20503
886.65	20526
886.775	20469
886.9	20667
887.025	20606
887.149	20484
887.274	20347
887.399	20389
887.523	20473
887.648	20400
887.773	20278
887.897	20495
888.021	20313
888.146	20225
888.27	20385
888.395	20480
888.519	20381
888.643	20282
888.767	20324
888.891	20199
889.015	20172
889.139	20256
889.263	20119
889.387	20271
889.511	20343
889.635	20252
889.759	20138
889.883	20206
890.006	20180
890.13	20050
890.254	19982
890.377	20073
890.501	19784
890.624	19902
890.748	19875
890.871	19746
890.995	19674
891.118	19658
891.241	19723
891.364	19776
891.488	19860
891.611	19613
891.734	19639
891.857	19750
891.98	19708
892.103	19677
892.226	19662
892.349	19601
892.471	19506
892.594	19742
892.717	19620
892.839	19696
892.962	19620
893.085	19742
893.207	19597
893.33	19468
893.452	19544
893.575	19681
893.697	19563
893.819	19757
893.941	19833
894.064	19742
894.186	19559
894.308	19578
894.43	19689
894.552	19776
894.674	19655
894.796	19502
894.918	19651
895.04	19514
895.161	19643
895.283	19670
895.405	19499
895.526	19552
895.648	19533
895.769	19609
895.891	19620
896.012	19689
896.134	19715
896.255	19597
896.376	19639
896.498	19582
896.619	19666
896.74	19609
896.861	19647
896.982	19997
897.103	20027
897.224	19849
897.345	19845
897.466	19784
897.587	19818
897.708	20005
897.828	19921
897.949	19772
898.07	19742
898.19	19830
898.311	19944
898.431	19753
898.552	19818
898.672	19868
898.792	19967
898.913	19879
899.033	19788
899.153	19696
899.273	19556
899.393	19681
899.513	19635
899.633	19620
899.753	19639
899.873	19533
899.993	19597
900.113	19480
900.232	19483
900.352	19556
900.472	19453
900.591	19373
900.711	19369
900.83	19381
900.95	19495
901.069	19563
901.189	19228
901.308	19019
901.427	19023
901.546	19061
901.665	19004
901.784	19019
901.904	18882
902.023	18787
902.141	18536
902.26	18631
902.379	18555
902.498	18517
902.617	18536
902.735	18498
902.854	18475
902.973	18365
903.091	18323
903.21	18186
903.328	18190
903.446	17988
903.565	18003
903.683	18011
903.801	17878
903.919	17920
904.038	17931
904.156	17687
904.274	17878
904.392	17748
904.51	17665
904.627	17764
904.745	17824
904.863	17912
904.981	17421
905.098	17493
905.216	17406
905.334	17547
905.451	17414
905.569	17372
905.686	17467
905.803	17486
905.921	17284
906.038	17315
906.155	17242
906.272	17102
906.389	17174
906.506	16999
906.623	16984
906.74	16911
906.857	16839
906.974	16850
907.091	17079
907.208	17025
907.324	16915
907.441	16942
907.557	16675
907.674	16748
907.79	16672
907.907	16603
908.023	16740
908.139	16694
908.256	16519
908.372	16523
908.488	16497
908.604	16489
908.72	16352
908.836	16413
908.952	16348
909.068	16470
909.184	16424
909.3	16432
909.415	16394
909.531	16337
909.647	16204
909.762	16158
909.878	16101
909.993	16086
910.108	16010
910.224	16109
910.339	16082
910.454	16025
910.57	15991
910.685	15884
910.8	16173
910.915	16131
911.03	15895
911.145	15808
911.259	15713
911.374	15717
911.489	15637
911.604	15523
911.718	15492
911.833	15458
911.947	15340
912.062	15363
912.176	15534
912.291	15526
912.405	15534
912.519	15644
912.633	15675
912.748	15553
912.862	15557
912.976	15325
913.09	15154
913.204	15214
913.318	15336
913.431	15462
913.545	15279
913.659	15488
913.772	15264
913.886	15142
914	15028
914.113	15108
914.226	15207
914.34	15188
914.453	14963
914.566	15226
914.68	14986
914.793	14826
914.906	14826
915.019	14716
915.132	14712
915.245	14667
915.358	14743
915.47	14731
915.583	14811
915.696	14689
915.809	14826
915.921	14921
916.034	14800
916.146	14613
916.259	14640
916.371	14739
916.483	14579
916.595	14583
916.708	14583
916.82	14526
916.932	14476
917.044	14556
917.156	14469
917.268	14313
917.38	14377
917.491	14320
917.603	14423
917.715	14469
917.826	14415
917.938	14423
918.049	14183
918.161	14419
918.272	14366
918.384	14469
918.495	14374
918.606	14313
918.717	14027
918.828	14218
918.939	14183
919.05	14058
919.161	14164
919.272	14027
919.383	14096
919.494	14126
919.604	14434
919.715	14130
919.826	14111
919.936	14103
920.047	14115
920.157	14054
920.267	14305
920.378	14202
920.488	14092
920.598	14282
920.708	14393
920.818	14301
920.928	14294
921.038	14492
921.148	14396
921.258	14081
921.368	13997
921.477	13856
921.587	13887
921.697	13731
921.806	13932
921.916	13731
922.025	13624
922.134	13514
922.244	13499
922.353	13571
922.462	13521
922.571	13331
922.68	13274
922.789	13259
922.898	13194
923.007	13084
923.116	13213
923.224	13217
923.333	13129
923.442	13103
923.55	13012
923.659	13069
923.767	13149
923.876	13015
923.984	12970
924.092	12962
924.201	12947
924.309	12916
924.417	12909
924.525	12886
924.633	12886
924.741	13616
924.849	12620
924.956	12787
925.064	12631
925.172	12593
925.279	12642
925.387	12692
925.494	12646
925.602	12738
925.709	12696
925.816	12547
925.924	12597
926.031	12620
926.138	12547
926.245	12616
926.352	12445
926.459	12559
926.566	12635
926.673	12483
926.779	12357
926.886	12365
926.993	12224
927.099	12167
927.206	12190
927.312	12190
927.419	12243
927.525	12216
927.631	12247
927.737	12182
927.843	12041
927.95	11973
928.056	11977
928.162	12022
928.267	12106
928.373	12650
928.479	12076
928.585	11916
928.69	11961
928.796	12011
928.901	11885
929.007	11703
929.112	11824
929.218	11870
929.323	11855
929.428	11775
929.533	11798
929.638	11767
929.743	11767
929.848	11752
929.953	11752
930.058	11611
930.163	11532
930.267	11501
930.372	11623
930.477	11379
930.581	11668
930.685	11425
930.79	11303
930.894	11322
930.998	11318
931.103	11459
931.207	11098
931.311	10961
931.415	10942
931.519	10812
931.623	10771
