Data from test_V78500241_704.txt Node
Date: Fri Mar 25 15:46:40 CST 2022
User: usil
Spectrometer: V785-0024
Trigger mode: 0
Integration Time (sec): 4.000000E-1
Scans to average: 1
Nonlinearity correction enabled: false
Boxcar width: 0
Storing dark spectrum: false
XAxis mode: Wavelengths
Number of Pixels in Spectrum: 1024
>>>>>Begin Spectral Data<<<<<
801.071	27869
801.214	27812
801.356	27682
801.499	27329
801.641	27378
801.783	27447
801.926	27355
802.068	27431
802.211	27275
802.353	27363
802.496	27142
802.638	27100
802.78	27123
802.923	27081
803.065	26994
803.208	27066
803.35	27233
803.492	27302
803.635	27188
803.777	27317
803.919	27321
804.061	27637
804.204	27230
804.346	27233
804.488	27169
804.63	27195
804.773	27249
804.915	27302
805.057	27450
805.199	27173
805.341	27336
805.483	27325
805.626	27336
805.768	27313
805.91	27454
806.052	27515
806.194	27317
806.336	27538
806.478	27378
806.62	27389
806.762	27515
806.904	27606
807.046	28010
807.188	27922
807.33	27774
807.472	27895
807.614	27778
807.756	27728
807.898	27599
808.04	27530
808.182	27561
808.324	27724
808.465	27583
808.607	27865
808.749	28025
808.891	28067
809.033	28360
809.174	28135
809.316	28090
809.458	28131
809.6	28010
809.741	28147
809.883	28230
810.025	28261
810.166	28424
810.308	28249
810.45	28261
810.591	28253
810.733	28090
810.875	28059
811.016	27975
811.158	27922
811.299	28116
811.441	28238
811.582	28337
811.724	27953
811.865	28124
812.007	28150
812.148	28059
812.29	28063
812.431	28261
812.573	28428
812.714	28519
812.855	28504
812.997	28603
813.138	28797
813.279	28569
813.421	28493
813.562	28497
813.703	28413
813.845	28284
813.986	28029
814.127	27755
814.268	27743
814.41	27854
814.551	27739
814.692	27785
814.833	27629
814.974	27724
815.115	27717
815.256	27652
815.397	27618
815.539	27728
815.68	27515
815.821	27435
815.962	27595
816.103	27618
816.244	27370
816.385	27408
816.526	27329
816.666	27039
816.807	26990
816.948	27157
817.089	27226
817.23	27116
817.371	26956
817.512	27013
817.653	27138
817.793	27051
817.934	27150
818.075	26971
818.216	26902
818.356	26921
818.497	26883
818.638	26674
818.778	26842
818.919	26773
819.06	26864
819.2	26724
819.341	27024
819.481	27001
819.622	27066
819.762	27203
819.903	27207
820.043	27275
820.184	27036
820.324	27020
820.465	27245
820.605	27093
820.746	27272
820.886	26967
821.026	27131
821.167	27085
821.307	27165
821.447	26933
821.588	26948
821.728	26842
821.868	26731
822.008	26583
822.149	26507
822.289	26358
822.429	26237
822.569	26233
822.709	26233
822.849	25963
822.99	26142
823.13	25974
823.27	25917
823.41	25803
823.55	25635
823.69	25807
823.83	25868
823.97	25750
824.11	25647
824.25	25674
824.389	25495
824.529	25715
824.669	25658
824.809	25784
824.949	25753
825.089	25727
825.228	25677
825.368	25567
825.508	25483
825.648	25502
825.787	25556
825.927	25552
826.067	25495
826.206	25403
826.346	25582
826.485	25544
826.625	25605
826.765	25521
826.904	25476
827.044	25148
827.183	25107
827.323	25168
827.462	25278
827.601	25152
827.741	25110
827.88	25251
828.02	25084
828.159	25259
828.298	25065
828.437	25327
828.577	25156
828.716	25339
828.855	25152
828.994	24878
829.134	24966
829.273	24943
829.412	24730
829.551	24844
829.69	24848
829.829	24951
829.968	24947
830.107	24928
830.246	24901
830.385	24829
830.524	24882
830.663	24787
830.802	24642
830.941	24585
831.08	24528
831.219	24719
831.357	24639
831.496	24753
831.635	24536
831.774	24369
831.913	24407
832.051	24460
832.19	24388
832.329	24315
832.467	24273
832.606	24205
832.744	24072
832.883	24171
833.022	24258
833.16	24239
833.299	24289
833.437	24258
833.576	24224
833.714	24197
833.852	24262
833.991	24441
834.129	24319
834.267	24258
834.406	24205
834.544	24350
834.682	24254
834.821	24323
834.959	24479
835.097	24129
835.235	24239
835.373	24186
835.511	24197
835.65	24190
835.788	24038
835.926	24034
836.064	23851
836.202	23866
836.34	24022
836.478	24209
836.615	24125
836.753	24083
836.891	24163
837.029	24026
837.167	24152
837.305	23980
837.443	23973
837.58	24018
837.718	23927
837.856	23901
837.993	23946
838.131	23882
838.269	23752
838.406	23996
838.544	23802
838.681	23558
838.819	23577
838.956	23421
839.094	23345
839.231	23539
839.369	23516
839.506	23752
839.643	23611
839.781	23391
839.918	23356
840.055	23398
840.193	23280
840.33	23356
840.467	23277
840.604	23356
840.742	23589
840.879	23185
841.016	23311
841.153	23220
841.29	23330
841.427	23315
841.564	23440
841.701	23379
841.838	23258
841.975	23128
842.112	23220
842.249	23208
842.385	23056
842.522	23387
842.659	23216
842.796	23124
842.933	23105
843.069	23014
843.206	23003
843.343	23189
843.479	23105
843.616	22957
843.752	22858
843.889	22858
844.025	22984
844.162	22885
844.298	22904
844.435	22877
844.571	22778
844.708	22877
844.844	23010
844.98	22999
845.117	23060
845.253	22706
845.389	22786
845.525	22668
845.661	22706
845.798	22630
845.934	22687
846.07	22538
846.206	22679
846.342	22687
846.478	22615
846.614	22344
846.75	22265
846.886	22230
847.022	22386
847.158	22379
847.294	22402
847.429	22318
847.565	22295
847.701	22512
847.837	22101
847.972	22032
848.108	22154
848.244	22128
848.379	21968
848.515	21876
848.65	21873
848.786	21804
848.921	21713
849.057	21972
849.192	22116
849.328	21983
849.463	21949
849.598	21964
849.734	21785
849.869	21827
850.004	21606
850.14	21686
850.275	21701
850.41	21469
850.545	21622
850.68	21701
850.815	21709
850.95	21599
851.085	21800
851.22	21736
851.355	21747
851.49	21732
851.625	21610
851.76	21663
851.895	21580
852.03	21648
852.165	21587
852.299	21701
852.434	21800
852.569	21637
852.703	21667
852.838	21660
852.973	21717
853.107	21846
853.242	21591
853.376	21530
853.511	21450
853.645	21542
853.78	21568
853.914	21515
854.048	21450
854.183	21576
854.317	21435
854.451	21625
854.585	21542
854.72	21393
854.854	21526
854.988	21416
855.122	21492
855.256	21382
855.39	21408
855.524	21458
855.658	21530
855.792	21481
855.926	21549
856.06	21443
856.194	21557
856.327	21492
856.461	21450
856.595	21473
856.729	21443
856.862	21561
856.996	21492
857.13	21583
857.263	21713
857.397	21591
857.53	21496
857.664	21542
857.797	21496
857.931	21656
858.064	21534
858.197	21496
858.331	21504
858.464	21351
858.597	21378
858.731	21454
858.864	21431
858.997	21469
859.13	21408
859.263	21576
859.396	21580
859.529	21523
859.662	21389
859.795	21561
859.928	21473
860.061	21477
860.194	21618
860.327	21488
860.46	21553
860.592	21583
860.725	21641
860.858	21698
860.99	21450
861.123	21408
861.256	21428
861.388	21481
861.521	22150
861.653	21367
861.786	21173
861.918	21207
862.05	21313
862.183	21416
862.315	21454
862.447	21405
862.58	21298
862.712	21241
862.844	21195
862.976	21195
863.108	21207
863.24	21751
863.372	21020
863.504	21173
863.636	21233
863.768	21218
863.9	21173
864.032	21135
864.164	21104
864.296	21135
864.428	21313
864.559	21294
864.691	21203
864.823	21336
864.954	21249
865.086	21074
865.217	21108
865.349	21039
865.48	21165
865.612	21028
865.743	21302
865.875	21089
866.006	21055
866.137	21036
866.269	21062
866.4	21116
866.531	21032
866.662	20960
866.793	21066
866.924	21100
867.055	21028
867.186	21096
867.317	21020
867.448	20960
867.579	20876
867.71	20902
867.841	20872
867.972	21051
868.103	21001
868.233	20994
868.364	20887
868.495	21070
868.625	21192
868.756	21370
868.886	21184
869.017	21233
869.147	21401
869.278	21420
869.408	21283
869.539	21218
869.669	21325
869.799	21374
869.929	21363
870.06	21321
870.19	21572
870.32	21595
870.45	21545
870.58	21720
870.71	21816
870.84	21717
870.97	21686
871.1	21591
871.23	21842
871.36	21759
871.489	21686
871.619	21774
871.749	21934
871.879	21930
872.008	21968
872.138	21846
872.267	21934
872.397	21751
872.526	21705
872.656	21580
872.785	21603
872.915	21892
873.044	22013
873.173	21918
873.303	22010
873.432	21918
873.561	21975
873.69	21842
873.819	21857
873.948	22013
874.077	21873
874.206	21869
874.335	21812
874.464	21994
874.593	22143
874.722	21953
874.851	22124
874.979	22070
875.108	22048
875.237	22048
875.365	22002
875.494	22112
875.623	22158
875.751	22063
875.88	22188
876.008	22280
876.136	22333
876.265	22592
876.393	22733
876.521	22618
876.65	22607
876.778	22459
876.906	22462
877.034	22402
877.162	22367
877.29	22344
877.418	22421
877.546	22512
877.674	22470
877.802	22466
877.93	22546
878.058	22466
878.185	22207
878.313	22398
878.441	22405
878.568	22272
878.696	22344
878.824	22474
878.951	22440
879.079	22687
879.206	22649
879.333	22580
879.461	22443
879.588	22538
879.715	22675
879.842	22645
879.97	22577
880.097	22306
880.224	22367
880.351	22455
880.478	22234
880.605	22287
880.732	22306
880.859	22470
880.986	22310
881.112	22177
881.239	22139
881.366	22048
881.493	21983
881.619	21907
881.746	21934
881.872	21903
881.999	21808
882.125	21755
882.252	21850
882.378	21728
882.505	21911
882.631	21717
882.757	21568
882.883	21728
883.01	21519
883.136	21545
883.262	21405
883.388	21500
883.514	21538
883.64	21519
883.766	21564
883.892	21344
884.018	21367
884.143	21473
884.269	21572
884.395	21233
884.52	21165
884.646	21218
884.772	21222
884.897	20998
885.023	21150
885.148	21222
885.274	21359
885.399	21313
885.524	21226
885.65	21135
885.775	21169
885.9	21066
886.025	21321
886.15	21279
886.275	21036
886.4	21173
886.525	21077
886.65	21146
886.775	21104
886.9	21203
887.025	21500
887.149	21192
887.274	21089
887.399	20971
887.523	20929
887.648	20929
887.773	20777
887.897	21009
888.021	20986
888.146	20975
888.27	21024
888.395	21051
888.519	20960
888.643	21058
888.767	21112
888.891	20937
889.015	20705
889.139	20781
889.263	20701
889.387	20785
889.511	21001
889.635	20838
889.759	20689
889.883	20792
890.006	20830
890.13	20785
890.254	20746
890.377	20678
890.501	20598
890.624	20427
890.748	20575
890.871	20385
890.995	20237
891.118	20240
891.241	20313
891.364	20396
891.488	20427
891.611	20324
891.734	20305
891.857	20233
891.98	20404
892.103	20336
892.226	20187
892.349	20313
892.471	20130
892.594	20248
892.717	20248
892.839	20221
892.962	20275
893.085	20317
893.207	20278
893.33	20199
893.452	20149
893.575	20225
893.697	20149
893.819	20332
893.941	20427
894.064	20305
894.186	20115
894.308	20145
894.43	20396
894.552	20309
894.674	20252
894.796	20096
894.918	20115
895.04	20221
895.161	20210
895.283	20309
895.405	20081
895.526	20282
895.648	20157
895.769	20298
895.891	20275
896.012	20218
896.134	20381
896.255	20221
896.376	20119
896.498	20206
896.619	20256
896.74	20317
896.861	20229
896.982	20514
897.103	20632
897.224	20423
897.345	20473
897.466	20484
897.587	20450
897.708	20621
897.828	20564
897.949	20442
898.07	20313
898.19	20423
898.311	20507
898.431	20427
898.552	20507
898.672	20499
898.792	20518
898.913	20393
899.033	20442
899.153	20275
899.273	20206
899.393	20183
899.513	20317
899.633	20191
899.753	20259
899.873	20237
899.993	20100
900.113	20244
900.232	20157
900.352	20176
900.472	20096
900.591	19928
900.711	19959
900.83	19932
900.95	20176
901.069	20043
901.189	19841
901.308	19616
901.427	19632
901.546	19624
901.665	19597
901.784	19601
901.904	19449
902.023	19388
902.141	19148
902.26	19099
902.379	19240
902.498	19156
902.617	19008
902.735	19110
902.854	19213
902.973	19061
903.091	18848
903.21	18772
903.328	18814
903.446	18684
903.565	18551
903.683	18570
903.801	18521
903.919	18616
904.038	18471
904.156	18418
904.274	18498
904.392	18353
904.51	18353
904.627	18338
904.745	18323
904.863	18372
904.981	18106
905.098	17939
905.216	17973
905.334	18091
905.451	18072
905.569	17920
905.686	18003
905.803	17973
905.921	17771
906.038	17843
906.155	17847
906.272	17805
906.389	17779
906.506	17543
906.623	17452
906.74	17501
906.857	17353
906.974	17448
907.091	17516
907.208	17680
907.324	17482
907.441	17421
907.557	17318
907.674	17277
907.79	17181
907.907	17193
908.023	17216
908.139	17265
908.256	17140
908.372	17064
908.488	17010
908.604	16873
908.72	16923
908.836	16991
908.952	16946
909.068	17018
909.184	17113
909.3	16877
909.415	16942
909.531	16946
909.647	16774
909.762	16645
909.878	16656
909.993	16656
910.108	16717
910.224	16664
910.339	16615
910.454	16558
910.57	16474
910.685	16394
910.8	16573
910.915	16592
911.03	16356
911.145	16291
911.259	16257
911.374	16238
911.489	16314
911.604	16253
911.718	16032
911.833	16025
911.947	15861
912.062	15895
912.176	16021
912.291	16055
912.405	16162
912.519	16242
912.633	16139
912.748	16097
912.862	15907
912.976	15808
913.09	15709
913.204	15770
913.318	15770
913.431	15895
913.545	15899
913.659	15937
913.772	15766
913.886	15663
914	15606
914.113	15709
914.226	15739
914.34	15663
914.453	15519
914.566	15637
914.68	15496
914.793	15557
914.906	15279
915.019	15256
915.132	15135
915.245	15184
915.358	15279
915.47	15245
915.583	15211
915.696	15291
915.809	15363
915.921	15283
916.034	15195
916.146	15043
916.259	15188
916.371	15203
916.483	15195
916.595	15108
916.708	15089
916.82	15097
916.932	15001
917.044	14967
917.156	15001
917.268	14876
917.38	14948
917.491	14895
917.603	14838
917.715	14895
917.826	14906
917.938	14785
918.049	14731
918.161	14830
918.272	14895
918.384	14826
918.495	14781
918.606	14625
918.717	14617
918.828	14651
918.939	14579
919.05	14476
919.161	14583
919.272	14408
919.383	14419
919.494	14739
919.604	14842
919.715	14693
919.826	14602
919.936	14590
920.047	14659
920.157	14640
920.267	14796
920.378	14655
920.488	14629
920.598	14712
920.708	14906
920.818	14716
920.928	14708
921.038	14895
921.148	14773
921.258	14469
921.368	14438
921.477	14328
921.587	14256
921.697	14221
921.806	14362
921.916	14210
922.025	13997
922.134	13970
922.244	13940
922.353	13982
922.462	13951
922.571	13887
922.68	13651
922.789	13689
922.898	13563
923.007	13620
923.116	13594
923.224	13632
923.333	13544
923.442	13567
923.55	13453
923.659	13362
923.767	13533
923.876	13388
923.984	13552
924.092	13415
924.201	13293
924.309	13369
924.417	13453
924.525	13225
924.633	13331
924.741	14221
924.849	13141
924.956	13266
925.064	13133
925.172	13038
925.279	13038
925.387	13046
925.494	12989
925.602	13145
925.709	13099
925.816	12886
925.924	13038
926.031	13133
926.138	12916
926.245	13019
926.352	12856
926.459	12962
926.566	12989
926.673	12951
926.779	12814
926.886	12783
926.993	12593
927.099	12574
927.206	12521
927.312	12627
927.419	12593
927.525	12578
927.631	12555
927.737	12513
927.843	12494
927.95	12334
928.056	12445
928.162	12479
928.267	12547
928.373	13088
928.479	12418
928.585	12289
928.69	12403
928.796	12410
928.901	12277
929.007	12155
929.112	12361
929.218	12216
929.323	12182
929.428	12178
929.533	12330
929.638	12045
929.743	12091
929.848	12114
929.953	12144
930.058	12041
930.163	11817
930.267	11851
930.372	12038
930.477	11851
930.581	11988
930.685	11863
930.79	11745
930.894	11710
930.998	11642
931.103	11843
931.207	11543
931.311	11364
931.415	11265
931.519	11155
931.623	11056
