Data from test_V78500241_2496.txt Node
Date: Fri Mar 25 15:59:05 CST 2022
User: usil
Spectrometer: V785-0024
Trigger mode: 0
Integration Time (sec): 4.000000E-1
Scans to average: 1
Nonlinearity correction enabled: false
Boxcar width: 0
Storing dark spectrum: false
XAxis mode: Wavelengths
Number of Pixels in Spectrum: 1024
>>>>>Begin Spectral Data<<<<<
801.071	28706
801.214	28584
801.356	28341
801.499	28390
801.641	28215
801.783	28173
801.926	28143
802.068	28200
802.211	28246
802.353	28226
802.496	27972
802.638	27918
802.78	27892
802.923	27766
803.065	27751
803.208	27800
803.35	27842
803.492	28154
803.635	28166
803.777	27968
803.919	28051
804.061	28455
804.204	28215
804.346	28048
804.488	28082
804.63	28036
804.773	28131
804.915	28173
805.057	28287
805.199	28188
805.341	28318
805.483	28200
805.626	28314
805.768	28128
805.91	28318
806.052	28348
806.194	28169
806.336	28401
806.478	28215
806.62	28291
806.762	28485
806.904	28500
807.046	28824
807.188	28702
807.33	28542
807.472	28816
807.614	28694
807.756	28672
807.898	28691
808.04	28538
808.182	28405
808.324	28573
808.465	28660
808.607	28835
808.749	28999
808.891	29014
809.033	29109
809.174	29025
809.316	28892
809.458	28984
809.6	29029
809.741	29166
809.883	29227
810.025	29170
810.166	29254
810.308	29349
810.45	29189
810.591	29151
810.733	29071
810.875	29018
811.016	28919
811.158	28835
811.299	29079
811.441	29170
811.582	29151
811.724	28995
811.865	29003
812.007	28946
812.148	28991
812.29	28968
812.431	29296
812.573	29223
812.714	29482
812.855	29463
812.997	29589
813.138	29714
813.279	29649
813.421	29535
813.562	29360
813.703	29429
813.845	29170
813.986	28961
814.127	28763
814.268	28679
814.41	28668
814.551	28717
814.692	28786
814.833	28630
814.974	28721
815.115	28725
815.256	28611
815.397	28603
815.539	28577
815.68	28542
815.821	28535
815.962	28660
816.103	28500
816.244	28607
816.385	28291
816.526	28246
816.666	28158
816.807	28078
816.948	28078
817.089	28105
817.23	28090
817.371	28029
817.512	28040
817.653	27873
817.793	27869
817.934	28044
818.075	28158
818.216	28078
818.356	27937
818.497	27956
818.638	27709
818.778	27793
818.919	27827
819.06	27816
819.2	27884
819.341	27945
819.481	28124
819.622	28219
819.762	28478
819.903	28310
820.043	28261
820.184	28226
820.324	28131
820.465	28055
820.605	28120
820.746	28219
820.886	28040
821.026	28185
821.167	28063
821.307	28211
821.447	28082
821.588	28063
821.728	27930
821.868	27663
822.008	27713
822.149	27523
822.289	27477
822.429	27173
822.569	27203
822.709	27230
822.849	27138
822.99	27112
823.13	27001
823.27	26994
823.41	26960
823.55	26792
823.69	26807
823.83	26838
823.97	26918
824.11	26689
824.25	26697
824.389	26670
824.529	26617
824.669	26686
824.809	26872
824.949	26804
825.089	26773
825.228	26765
825.368	26617
825.508	26564
825.648	26514
825.787	26655
825.927	26594
826.067	26526
826.206	26545
826.346	26560
826.485	26518
826.625	26583
826.765	26686
826.904	26556
827.044	26339
827.183	26278
827.323	26252
827.462	26278
827.601	26214
827.741	26317
827.88	26263
828.02	26252
828.159	26317
828.298	26309
828.437	26362
828.577	26138
828.716	26374
828.855	26138
828.994	26016
829.134	25974
829.273	26088
829.412	25887
829.551	25890
829.69	25890
829.829	25993
829.968	26100
830.107	26046
830.246	25879
830.385	25970
830.524	25723
830.663	25670
830.802	25761
830.941	25514
831.08	25529
831.219	25632
831.357	25613
831.496	25715
831.635	25559
831.774	25487
831.913	25411
832.051	25335
832.19	25346
832.329	25320
832.467	25331
832.606	25156
832.744	25156
832.883	25225
833.022	25164
833.16	25312
833.299	25278
833.437	25301
833.576	25270
833.714	25282
833.852	25362
833.991	25377
834.129	25381
834.267	25430
834.406	25255
834.544	25441
834.682	25175
834.821	25278
834.959	25400
835.097	25126
835.235	25301
835.373	25209
835.511	25194
835.65	25110
835.788	25057
835.926	25023
836.064	24875
836.202	24973
836.34	25027
836.478	25137
836.615	25061
836.753	25107
836.891	25168
837.029	25107
837.167	25118
837.305	25050
837.443	25065
837.58	24859
837.718	25053
837.856	24932
837.993	24890
838.131	25004
838.269	24787
838.406	24882
838.544	24741
838.681	24642
838.819	24566
838.956	24483
839.094	24372
839.231	24486
839.369	24593
839.506	24787
839.643	24608
839.781	24414
839.918	24281
840.055	24410
840.193	24426
840.33	24254
840.467	24308
840.604	24300
840.742	24612
840.879	24140
841.016	24342
841.153	24353
841.29	24327
841.427	24365
841.564	24251
841.701	24281
841.838	24251
841.975	24129
842.112	24262
842.249	24159
842.385	24125
842.522	24292
842.659	24190
842.796	24053
842.933	24144
843.069	23980
843.206	23954
843.343	24144
843.479	24041
843.616	24064
843.752	23961
843.889	23958
844.025	24018
844.162	23851
844.298	23824
844.435	23897
844.571	23828
844.708	23847
844.844	23980
844.98	23923
845.117	23885
845.253	23798
845.389	23676
845.525	23722
845.661	23680
845.798	23623
845.934	23562
846.07	23592
846.206	23551
846.342	23691
846.478	23497
846.614	23364
846.75	23402
846.886	23223
847.022	23463
847.158	23391
847.294	23250
847.429	23482
847.565	23326
847.701	23493
847.837	23037
847.972	23090
848.108	23102
848.244	23128
848.379	22869
848.515	22843
848.65	22915
848.786	22877
848.921	22831
849.057	22980
849.192	23048
849.328	22847
849.463	22930
849.598	22892
849.734	22774
849.869	22675
850.004	22626
850.14	22660
850.275	22580
850.41	22675
850.545	22630
850.68	22557
850.815	22592
850.95	22668
851.085	22778
851.22	22816
851.355	22637
851.49	22687
851.625	22580
851.76	22527
851.895	22466
852.03	22535
852.165	22577
852.299	22801
852.434	22771
852.569	22626
852.703	22656
852.838	22763
852.973	22759
853.107	22683
853.242	22561
853.376	22546
853.511	22310
853.645	22424
853.78	22592
853.914	22565
854.048	22421
854.183	22459
854.317	22478
854.451	22615
854.585	22523
854.72	22500
854.854	22607
854.988	22337
855.122	22466
855.256	22440
855.39	22481
855.524	22554
855.658	22607
855.792	22535
855.926	22478
856.06	22489
856.194	22592
856.327	22421
856.461	22295
856.595	22253
856.729	22432
856.862	22542
856.996	22535
857.13	22474
857.263	22675
857.397	22538
857.53	22360
857.664	22577
857.797	22538
857.931	22679
858.064	22474
858.197	22561
858.331	22565
858.464	22436
858.597	22363
858.731	22428
858.864	22405
858.997	22489
859.13	22428
859.263	22432
859.396	22470
859.529	22557
859.662	22333
859.795	22325
859.928	22352
860.061	22573
860.194	22672
860.327	22554
860.46	22382
860.592	22596
860.725	22626
860.858	22637
860.99	22382
861.123	22409
861.256	22344
861.388	22478
861.521	23124
861.653	22360
861.786	22333
861.918	22238
862.05	22310
862.183	22341
862.315	22462
862.447	22504
862.58	22481
862.712	22116
862.844	22090
862.976	22215
863.108	22150
863.24	22443
863.372	22078
863.504	22200
863.636	22181
863.768	22120
863.9	22124
864.032	22135
864.164	22135
864.296	22299
864.428	22280
864.559	22272
864.691	22204
864.823	22101
864.954	22257
865.086	22131
865.217	21987
865.349	21789
865.48	22055
865.612	22025
865.743	22044
865.875	22090
866.006	22036
866.137	21884
866.269	22063
866.4	21926
866.531	22032
866.662	21956
866.793	21918
866.924	21949
867.055	21972
867.186	21937
867.317	22051
867.448	22002
867.579	21926
867.71	21800
867.841	21895
867.972	21987
868.103	21876
868.233	21960
868.364	21979
868.495	22120
868.625	22169
868.756	22238
868.886	22116
869.017	22082
869.147	22363
869.278	22272
869.408	22356
869.539	22154
869.669	22223
869.799	22265
869.929	22344
870.06	22314
870.19	22554
870.32	22615
870.45	22588
870.58	22516
870.71	22706
870.84	22847
870.97	22573
871.1	22634
871.23	22691
871.36	22797
871.489	22698
871.619	22702
871.749	22797
871.879	22664
872.008	22911
872.138	22698
872.267	22774
872.397	22630
872.526	22630
872.656	22645
872.785	22577
872.915	22805
873.044	23006
873.173	22869
873.303	22987
873.432	22953
873.561	22854
873.69	22961
873.819	22816
873.948	22980
874.077	22805
874.206	22790
874.335	22869
874.464	23048
874.593	22987
874.722	22892
874.851	23067
874.979	23029
875.108	23056
875.237	22923
875.365	22892
875.494	23075
875.623	22984
875.751	22965
875.88	22953
876.008	23151
876.136	23246
876.265	23391
876.393	23562
876.521	23497
876.65	23539
876.778	23516
876.906	23258
877.034	23349
877.162	23444
877.29	23315
877.418	23379
877.546	23353
877.674	23315
877.802	23334
877.93	23417
878.058	23345
878.185	23235
878.313	23311
878.441	23410
878.568	23220
878.696	23307
878.824	23391
878.951	23440
879.079	23478
879.206	23554
879.333	23619
879.461	23383
879.588	23558
879.715	23585
879.842	23604
879.97	23478
880.097	23223
880.224	23159
880.351	23307
880.478	23090
880.605	23250
880.732	23121
880.859	23554
880.986	23159
881.112	23189
881.239	22942
881.366	23006
881.493	22877
881.619	22987
881.746	22763
881.872	22729
881.999	22767
882.125	22721
882.252	22713
882.378	22752
882.505	22942
882.631	22630
882.757	22382
882.883	22447
883.01	22523
883.136	22333
883.262	22261
883.388	22341
883.514	22459
883.64	22512
883.766	22238
883.892	22322
884.018	22207
884.143	22443
884.269	22333
884.395	22032
884.52	22021
884.646	22109
884.772	22120
884.897	22048
885.023	22086
885.148	22101
885.274	22230
885.399	22143
885.524	22109
885.65	22021
885.775	22093
885.9	22067
886.025	22074
886.15	22105
886.275	21968
886.4	21960
886.525	22036
886.65	21968
886.775	21991
886.9	22131
887.025	22318
887.149	22078
887.274	21846
887.399	21751
887.523	21816
887.648	21766
887.773	21747
887.897	21819
888.021	21918
888.146	21766
888.27	21850
888.395	21968
888.519	21850
888.643	21861
888.767	21846
888.891	21800
889.015	21545
889.139	21580
889.263	21701
889.387	21614
889.511	21766
889.635	21728
889.759	21682
889.883	21599
890.006	21728
890.13	21717
890.254	21545
890.377	21534
890.501	21386
890.624	21199
890.748	21424
890.871	21329
890.995	21214
891.118	21150
891.241	21249
891.364	21233
891.488	21344
891.611	21173
891.734	21032
891.857	21287
891.98	21093
892.103	21230
892.226	21195
892.349	21161
892.471	20944
892.594	21074
892.717	21214
892.839	21017
892.962	21131
893.085	20986
893.207	21112
893.33	20880
893.452	20982
893.575	21100
893.697	20971
893.819	21211
893.941	21241
894.064	21138
894.186	20990
894.308	20895
894.43	21062
894.552	21180
894.674	21184
894.796	20971
894.918	20998
895.04	20921
895.161	21142
895.283	21017
895.405	20979
895.526	21093
895.648	20914
895.769	21096
895.891	21055
896.012	21062
896.134	21081
896.255	21089
896.376	20994
896.498	21077
896.619	21074
896.74	20971
896.861	20975
896.982	21222
897.103	21511
897.224	21226
897.345	21047
897.466	21233
897.587	21214
897.708	21477
897.828	21237
897.949	21142
898.07	21020
898.19	21146
898.311	21214
898.431	21199
898.552	21264
898.672	21252
898.792	21351
898.913	21154
899.033	21112
899.153	21039
899.273	20963
899.393	20921
899.513	21119
899.633	20921
899.753	20868
899.873	20830
899.993	20982
900.113	20899
900.232	20948
900.352	20967
900.472	20849
900.591	20746
900.711	20849
900.83	20640
900.95	20792
901.069	20777
901.189	20670
901.308	20393
901.427	20332
901.546	20275
901.665	20442
901.784	20202
901.904	20267
902.023	20062
902.141	19715
902.26	19932
902.379	19955
902.498	19898
902.617	19658
902.735	19849
902.854	19818
902.973	19830
903.091	19525
903.21	19514
903.328	19514
903.446	19460
903.565	19381
903.683	19289
903.801	19228
903.919	19236
904.038	19179
904.156	19187
904.274	19099
904.392	19148
904.51	19080
904.627	19023
904.745	19099
904.863	18954
904.981	18802
905.098	18738
905.216	18608
905.334	18776
905.451	18715
905.569	18681
905.686	18601
905.803	18585
905.921	18498
906.038	18513
906.155	18490
906.272	18422
906.389	18410
906.506	18323
906.623	18182
906.74	18209
906.857	18171
906.974	18114
907.091	18319
907.208	18300
907.324	18243
907.441	18232
907.557	17920
907.674	17935
907.79	17843
907.907	17969
908.023	17946
908.139	18022
908.256	17824
908.372	17840
908.488	17775
908.604	17649
908.72	17630
908.836	17752
908.952	17657
909.068	17722
909.184	17775
909.3	17653
909.415	17668
909.531	17600
909.647	17402
909.762	17254
909.878	17280
909.993	17379
910.108	17277
910.224	17326
910.339	17258
910.454	17246
910.57	17090
910.685	17128
910.8	17311
910.915	17284
911.03	17185
911.145	16938
911.259	16908
911.374	16984
911.489	16797
911.604	16839
911.718	16729
911.833	16675
911.947	16603
912.062	16523
912.176	16626
912.291	16698
912.405	16615
912.519	16889
912.633	16869
912.748	16733
912.862	16561
912.976	16489
913.09	16356
913.204	16455
913.318	16577
913.431	16546
913.545	16447
913.659	16535
913.772	16413
913.886	16215
914	16265
914.113	16363
914.226	16440
914.34	16234
914.453	16010
914.566	16188
914.68	16131
914.793	16128
914.906	15884
915.019	15762
915.132	15945
915.245	15755
915.358	15812
915.47	15812
915.583	15827
915.696	15823
915.809	15926
915.921	16044
916.034	15827
916.146	15701
916.259	15690
916.371	15759
916.483	15819
916.595	15606
916.708	15614
916.82	15542
916.932	15580
917.044	15610
917.156	15530
917.268	15447
917.38	15599
917.491	15523
917.603	15447
917.715	15500
917.826	15481
917.938	15321
918.049	15351
918.161	15348
918.272	15412
918.384	15496
918.495	15382
918.606	15146
918.717	15146
918.828	15150
918.939	15222
919.05	15116
919.161	15032
919.272	14994
919.383	14990
919.494	15146
919.604	15374
919.715	15176
919.826	15039
919.936	15138
920.047	15207
920.157	15154
920.267	15363
920.378	15195
920.488	15081
920.598	15302
920.708	15378
920.818	15142
920.928	15180
921.038	15420
921.148	15355
921.258	15089
921.368	15051
921.477	14910
921.587	14853
921.697	14659
921.806	14952
921.916	14655
922.025	14613
922.134	14552
922.244	14469
922.353	14564
922.462	14389
922.571	14374
922.68	14233
922.789	14111
922.898	14206
923.007	13997
923.116	14221
923.224	14157
923.333	14058
923.442	13940
923.55	13921
923.659	13944
923.767	13967
923.876	13947
923.984	13932
924.092	13902
924.201	14016
924.309	13917
924.417	13879
924.525	13776
924.633	13677
924.741	14590
924.849	13605
924.956	13750
925.064	13605
925.172	13445
925.279	13529
925.387	13609
925.494	13594
925.602	13597
925.709	13537
925.816	13483
925.924	13502
926.031	13476
926.138	13434
926.245	13483
926.352	13350
926.459	13563
926.566	13521
926.673	13335
926.779	13247
926.886	13266
926.993	13137
927.099	13091
927.206	13027
927.312	13015
927.419	13004
927.525	13149
927.631	13076
927.737	12958
927.843	12924
927.95	12806
928.056	12916
928.162	12894
928.267	12932
928.373	13571
928.479	13004
928.585	12730
928.69	12901
928.796	12913
928.901	12810
929.007	12566
929.112	12738
929.218	12677
929.323	12700
929.428	12604
929.533	12696
929.638	12574
929.743	12521
929.848	12616
929.953	12551
930.058	12448
930.163	12270
930.267	12247
930.372	12391
930.477	12239
930.581	12486
930.685	12350
930.79	12140
930.894	12194
930.998	12136
931.103	12262
931.207	11980
931.311	11893
931.415	11672
931.519	11547
931.623	11520
