Data from test_V78500241_754.txt Node
Date: Fri Mar 25 15:47:01 CST 2022
User: usil
Spectrometer: V785-0024
Trigger mode: 0
Integration Time (sec): 4.000000E-1
Scans to average: 1
Nonlinearity correction enabled: false
Boxcar width: 0
Storing dark spectrum: false
XAxis mode: Wavelengths
Number of Pixels in Spectrum: 1024
>>>>>Begin Spectral Data<<<<<
801.071	28143
801.214	27960
801.356	27701
801.499	27526
801.641	27538
801.783	27656
801.926	27656
802.068	27572
802.211	27576
802.353	27439
802.496	27302
802.638	27237
802.78	27207
802.923	27252
803.065	27077
803.208	27222
803.35	27135
803.492	27321
803.635	27351
803.777	27226
803.919	27294
804.061	27583
804.204	27405
804.346	27321
804.488	27401
804.63	27382
804.773	27340
804.915	27329
805.057	27458
805.199	27420
805.341	27485
805.483	27488
805.626	27572
805.768	27397
805.91	27485
806.052	27481
806.194	27462
806.336	27778
806.478	27580
806.62	27523
806.762	27766
806.904	27747
807.046	28093
807.188	27895
807.33	27998
807.472	27975
807.614	27899
807.756	27838
807.898	27720
808.04	27800
808.182	27842
808.324	27770
808.465	27876
808.607	28147
808.749	28150
808.891	28390
809.033	28333
809.174	28287
809.316	28181
809.458	28166
809.6	28242
809.741	28356
809.883	28348
810.025	28554
810.166	28493
810.308	28577
810.45	28436
810.591	28466
810.733	28226
810.875	28185
811.016	28177
811.158	28303
811.299	28360
811.441	28379
811.582	28398
811.724	28322
811.865	28150
812.007	28242
812.148	28215
812.29	28379
812.431	28459
812.573	28573
812.714	28649
812.855	28744
812.997	28850
813.138	29033
813.279	28934
813.421	28710
813.562	28797
813.703	28478
813.845	28390
813.986	28204
814.127	28006
814.268	27865
814.41	27766
814.551	27831
814.692	28025
814.833	28021
814.974	27850
815.115	27884
815.256	27686
815.397	27591
815.539	27747
815.68	27762
815.821	27622
815.962	27709
816.103	27785
816.244	27523
816.385	27393
816.526	27580
816.666	27291
816.807	27252
816.948	27249
817.089	27260
817.23	27218
817.371	27313
817.512	27207
817.653	27093
817.793	27142
817.934	27188
818.075	27161
818.216	27112
818.356	27157
818.497	27176
818.638	26986
818.778	26914
818.919	26998
819.06	27047
819.2	27081
819.341	27275
819.481	27211
819.622	27264
819.762	27599
819.903	27504
820.043	27298
820.184	27283
820.324	27211
820.465	27378
820.605	27302
820.746	27313
820.886	27256
821.026	27157
821.167	27135
821.307	27207
821.447	27264
821.588	27108
821.728	27074
821.868	26823
822.008	26758
822.149	26587
822.289	26632
822.429	26434
822.569	26351
822.709	26419
822.849	26252
822.99	26153
823.13	26237
823.27	26145
823.41	26081
823.55	25928
823.69	25974
823.83	26065
823.97	25955
824.11	25845
824.25	25788
824.389	25791
824.529	25902
824.669	25712
824.809	25921
824.949	25986
825.089	26058
825.228	25807
825.368	25746
825.508	25559
825.648	25594
825.787	25845
825.927	25693
826.067	25597
826.206	25719
826.346	25780
826.485	25845
826.625	25632
826.765	25833
826.904	25693
827.044	25548
827.183	25449
827.323	25396
827.462	25453
827.601	25331
827.741	25327
827.88	25445
828.02	25339
828.159	25392
828.298	25297
828.437	25403
828.577	25293
828.716	25624
828.855	25396
828.994	25213
829.134	25164
829.273	25251
829.412	24970
829.551	25004
829.69	25027
829.829	25183
829.968	25152
830.107	25194
830.246	25168
830.385	25114
830.524	24996
830.663	24939
830.802	24715
830.941	24730
831.08	24677
831.219	24779
831.357	24825
831.496	25091
831.635	24810
831.774	24601
831.913	24597
832.051	24467
832.19	24517
832.329	24395
832.467	24304
832.606	24429
832.744	24350
832.883	24239
833.022	24300
833.16	24422
833.299	24418
833.437	24475
833.576	24490
833.714	24460
833.852	24471
833.991	24582
834.129	24578
834.267	24627
834.406	24448
834.544	24483
834.682	24540
834.821	24509
834.959	24589
835.097	24418
835.235	24464
835.373	24475
835.511	24448
835.65	24319
835.788	24384
835.926	24228
836.064	24079
836.202	24201
836.34	24376
836.478	24338
836.615	24304
836.753	24342
836.891	24308
837.029	24216
837.167	24148
837.305	24102
837.443	24106
837.58	24216
837.718	24220
837.856	24171
837.993	24152
838.131	24057
838.269	24049
838.406	24018
838.544	23920
838.681	23771
838.819	23680
838.956	23524
839.094	23589
839.231	23653
839.369	23832
839.506	23988
839.643	23855
839.781	23463
839.918	23562
840.055	23581
840.193	23634
840.33	23566
840.467	23444
840.604	23539
840.742	23783
840.879	23322
841.016	23322
841.153	23330
841.29	23634
841.427	23425
841.564	23455
841.701	23531
841.838	23463
841.975	23493
842.112	23406
842.249	23353
842.385	23216
842.522	23440
842.659	23395
842.796	23261
842.933	23277
843.069	23022
843.206	23265
843.343	23299
843.479	23220
843.616	23269
843.752	22953
843.889	23105
844.025	23109
844.162	23094
844.298	23098
844.435	23094
844.571	23014
844.708	23102
844.844	23075
844.98	23117
845.117	22995
845.253	22930
845.389	22885
845.525	22957
845.661	22748
845.798	22854
845.934	22854
846.07	22763
846.206	22577
846.342	22980
846.478	22790
846.614	22538
846.75	22508
846.886	22466
847.022	22538
847.158	22451
847.294	22394
847.429	22466
847.565	22402
847.701	22698
847.837	22284
847.972	22287
848.108	22280
848.244	22325
848.379	22074
848.515	21964
848.65	21983
848.786	22112
848.921	22109
849.057	22166
849.192	22200
849.328	22200
849.463	22086
849.598	22010
849.734	21945
849.869	21926
850.004	21804
850.14	21827
850.275	21846
850.41	21736
850.545	21812
850.68	21781
850.815	21865
850.95	21892
851.085	22124
851.22	21895
851.355	21842
851.49	21755
851.625	21831
851.76	21766
851.895	21755
852.03	21804
852.165	21854
852.299	21770
852.434	21865
852.569	21869
852.703	21934
852.838	21945
852.973	22124
853.107	22006
853.242	21854
853.376	21610
853.511	21587
853.645	21599
853.78	21671
853.914	21739
854.048	21595
854.183	21694
854.317	21671
854.451	21903
854.585	21568
854.72	21610
854.854	21766
854.988	21587
855.122	21724
855.256	21557
855.39	21614
855.524	21720
855.658	21705
855.792	21568
855.926	21629
856.06	21568
856.194	21701
856.327	21660
856.461	21603
856.595	21439
856.729	21739
856.862	21850
856.996	21751
857.13	21671
857.263	21800
857.397	21793
857.53	21675
857.664	21743
857.797	21781
857.931	21705
858.064	21644
858.197	21747
858.331	21679
858.464	21648
858.597	21606
858.731	21568
858.864	21618
858.997	21591
859.13	21675
859.263	21675
859.396	21755
859.529	21500
859.662	21675
859.795	21736
859.928	21641
860.061	21895
860.194	21998
860.327	21622
860.46	21686
860.592	21816
860.725	21812
860.858	21660
860.99	21774
861.123	21580
861.256	21774
861.388	21751
861.521	22253
861.653	21507
861.786	21504
861.918	21477
862.05	21519
862.183	21549
862.315	21641
862.447	21686
862.58	21492
862.712	21408
862.844	21351
862.976	21504
863.108	21401
863.24	21831
863.372	21408
863.504	21340
863.636	21378
863.768	21408
863.9	21249
864.032	21287
864.164	21237
864.296	21374
864.428	21321
864.559	21382
864.691	21454
864.823	21401
864.954	21405
865.086	21359
865.217	21321
865.349	21340
865.48	21150
865.612	21393
865.743	21405
865.875	21329
866.006	21306
866.137	21157
866.269	21260
866.4	21203
866.531	21207
866.662	21165
866.793	21192
866.924	21127
867.055	21291
867.186	21150
867.317	21211
867.448	21138
867.579	21203
867.71	21051
867.841	21070
867.972	21066
868.103	21127
868.233	21142
868.364	21226
868.495	21218
868.625	21496
868.756	21500
868.886	21325
869.017	21488
869.147	21405
869.278	21557
869.408	21389
869.539	21310
869.669	21492
869.799	21603
869.929	21549
870.06	21477
870.19	21819
870.32	21656
870.45	21637
870.58	21812
870.71	21797
870.84	21876
870.97	21842
871.1	21857
871.23	22025
871.36	22051
871.489	21949
871.619	22055
871.749	21911
871.879	22101
872.008	22112
872.138	21930
872.267	21991
872.397	21846
872.526	21918
872.656	21884
872.785	21884
872.915	22059
873.044	22128
873.173	21983
873.303	22086
873.432	22097
873.561	22112
873.69	22078
873.819	22063
873.948	22067
874.077	21903
874.206	21915
874.335	22029
874.464	22143
874.593	22215
874.722	22257
874.851	22329
874.979	22356
875.108	22207
875.237	22112
875.365	22131
875.494	22223
875.623	22360
875.751	22314
875.88	22352
876.008	22371
876.136	22424
876.265	22721
876.393	22824
876.521	22771
876.65	22786
876.778	22713
876.906	22565
877.034	22523
877.162	22729
877.29	22592
877.418	22653
877.546	22641
877.674	22630
877.802	22607
877.93	22580
878.058	22554
878.185	22478
878.313	22493
878.441	22637
878.568	22436
878.696	22356
878.824	22634
878.951	22706
879.079	22752
879.206	22889
879.333	22831
879.461	22637
879.588	22717
879.715	22744
879.842	22915
879.97	22675
880.097	22500
880.224	22413
880.351	22561
880.478	22474
880.605	22344
880.732	22413
880.859	22698
880.986	22455
881.112	22424
881.239	22348
881.366	22173
881.493	22097
881.619	21953
881.746	22063
881.872	22166
881.999	21930
882.125	21937
882.252	22070
882.378	22010
882.505	22109
882.631	21819
882.757	21747
882.883	21823
883.01	21747
883.136	21625
883.262	21739
883.388	21690
883.514	21603
883.64	21739
883.766	21618
883.892	21405
884.018	21633
884.143	21663
884.269	21709
884.395	21492
884.52	21287
884.646	21264
884.772	21374
884.897	21249
885.023	21351
885.148	21545
885.274	21496
885.399	21473
885.524	21317
885.65	21348
885.775	21298
885.9	21226
886.025	21439
886.15	21359
886.275	21313
886.4	21192
886.525	21237
886.65	21268
886.775	21245
886.9	21454
887.025	21450
887.149	21302
887.274	21252
887.399	21047
887.523	21089
887.648	20979
887.773	20990
887.897	21237
888.021	21203
888.146	21070
888.27	20994
888.395	21260
888.519	21047
888.643	21260
888.767	21165
888.891	21043
889.015	20937
889.139	20921
889.263	20982
889.387	21005
889.511	21047
889.635	21009
889.759	20921
889.883	20880
890.006	20910
890.13	21070
890.254	20834
890.377	20887
890.501	20625
890.624	20674
890.748	20708
890.871	20530
890.995	20400
891.118	20484
891.241	20476
891.364	20434
891.488	20587
891.611	20419
891.734	20328
891.857	20370
891.98	20507
892.103	20518
892.226	20469
892.349	20370
892.471	20157
892.594	20298
892.717	20400
892.839	20358
892.962	20389
893.085	20374
893.207	20404
893.33	20267
893.452	20199
893.575	20381
893.697	20336
893.819	20549
893.941	20617
894.064	20457
894.186	20313
894.308	20183
894.43	20339
894.552	20419
894.674	20507
894.796	20298
894.918	20263
895.04	20339
895.161	20366
895.283	20385
895.405	20362
895.526	20404
895.648	20339
895.769	20461
895.891	20301
896.012	20415
896.134	20358
896.255	20370
896.376	20351
896.498	20339
896.619	20469
896.74	20358
896.861	20419
896.982	20686
897.103	20826
897.224	20598
897.345	20492
897.466	20533
897.587	20518
897.708	20667
897.828	20629
897.949	20518
898.07	20427
898.19	20583
898.311	20636
898.431	20537
898.552	20533
898.672	20640
898.792	20556
898.913	20499
899.033	20541
899.153	20419
899.273	20248
899.393	20282
899.513	20282
899.633	20339
899.753	20339
899.873	20309
899.993	20355
900.113	20221
900.232	20389
900.352	20229
900.472	20115
900.591	20024
900.711	20122
900.83	20103
900.95	20069
901.069	20107
901.189	19947
901.308	19818
901.427	19696
901.546	19643
901.665	19723
901.784	19685
901.904	19510
902.023	19453
902.141	19373
902.26	19247
902.379	19240
902.498	19164
902.617	19145
902.735	19232
902.854	19084
902.973	19160
903.091	18973
903.21	18924
903.328	18768
903.446	18783
903.565	18635
903.683	18684
903.801	18494
903.919	18578
904.038	18608
904.156	18399
904.274	18498
904.392	18376
904.51	18410
904.627	18456
904.745	18506
904.863	18498
904.981	18228
905.098	18155
905.216	17977
905.334	18045
905.451	18114
905.569	18064
905.686	18068
905.803	18038
905.921	17832
906.038	18049
906.155	17828
906.272	17752
906.389	17783
906.506	17604
906.623	17691
906.74	17691
906.857	17509
906.974	17668
907.091	17718
907.208	17737
907.324	17661
907.441	17493
907.557	17455
907.674	17372
907.79	17246
907.907	17322
908.023	17246
908.139	17406
908.256	17337
908.372	17242
908.488	17200
908.604	17071
908.72	16972
908.836	17056
908.952	16984
909.068	17083
909.184	17140
909.3	17079
909.415	17067
909.531	16995
909.647	16831
909.762	16809
909.878	16771
909.993	16889
910.108	16778
910.224	16782
910.339	16637
910.454	16664
910.57	16573
910.685	16538
910.8	16797
910.915	16641
911.03	16599
911.145	16421
911.259	16295
911.374	16398
911.489	16295
911.604	16166
911.718	16021
911.833	16006
911.947	16036
912.062	16051
912.176	16097
912.291	16238
912.405	16139
912.519	16265
912.633	16219
912.748	16082
912.862	16021
912.976	15926
913.09	15835
913.204	15838
913.318	15861
913.431	15983
913.545	15994
913.659	15994
913.772	15857
913.886	15785
914	15652
914.113	15861
914.226	15732
914.34	15739
914.453	15599
914.566	15819
914.68	15599
914.793	15504
914.906	15382
915.019	15348
915.132	15245
915.245	15302
915.358	15233
915.47	15291
915.583	15279
915.696	15378
915.809	15412
915.921	15515
916.034	15203
916.146	15214
916.259	15233
916.371	15230
916.483	15233
916.595	15077
916.708	15081
916.82	15085
916.932	15173
917.044	15116
917.156	15077
917.268	14910
917.38	14883
917.491	14830
917.603	14929
917.715	14975
917.826	15070
917.938	14830
918.049	14883
918.161	14906
918.272	15005
918.384	14990
918.495	14857
918.606	14693
918.717	14697
918.828	14754
918.939	14834
919.05	14788
919.161	14670
919.272	14575
919.383	14533
919.494	14682
919.604	14975
919.715	14754
919.826	14590
919.936	14705
920.047	14731
920.157	14533
920.267	14769
920.378	14682
920.488	14655
920.598	14743
920.708	14937
920.818	14781
920.928	14792
921.038	14941
921.148	14857
921.258	14670
921.368	14621
921.477	14488
921.587	14438
921.697	14278
921.806	14381
921.916	14427
922.025	14157
922.134	14119
922.244	13993
922.353	14123
922.462	14008
922.571	13852
922.68	13693
922.789	13636
922.898	13757
923.007	13601
923.116	13643
923.224	13780
923.333	13636
923.442	13537
923.55	13487
923.659	13491
923.767	13578
923.876	13434
923.984	13575
924.092	13297
924.201	13525
924.309	13403
924.417	13422
924.525	13274
924.633	13453
924.741	14305
924.849	13217
924.956	13270
925.064	13183
925.172	13027
925.279	13050
925.387	13126
925.494	13057
925.602	13240
925.709	13156
925.816	13012
925.924	13031
926.031	13088
926.138	13046
926.245	13110
926.352	12875
926.459	13053
926.566	13050
926.673	12901
926.779	12890
926.886	12897
926.993	12677
927.099	12646
927.206	12604
927.312	12604
927.419	12635
927.525	12681
927.631	12673
927.737	12566
927.843	12475
927.95	12338
928.056	12456
928.162	12490
928.267	12513
928.373	13084
928.479	12551
928.585	12353
928.69	12353
928.796	12464
928.901	12285
929.007	12201
929.112	12254
929.218	12270
929.323	12216
929.428	12201
929.533	12319
929.638	12171
929.743	12148
929.848	12216
929.953	12110
930.058	12060
930.163	11783
930.267	11916
930.372	12038
930.477	11783
930.581	12110
930.685	11954
930.79	11786
930.894	11817
930.998	11710
931.103	11836
931.207	11482
931.311	11463
931.415	11315
931.519	11189
931.623	11121
