Data from test_V78500241_710.txt Node
Date: Fri Mar 25 15:46:43 CST 2022
User: usil
Spectrometer: V785-0024
Trigger mode: 0
Integration Time (sec): 4.000000E-1
Scans to average: 1
Nonlinearity correction enabled: false
Boxcar width: 0
Storing dark spectrum: false
XAxis mode: Wavelengths
Number of Pixels in Spectrum: 1024
>>>>>Begin Spectral Data<<<<<
801.071	27854
801.214	27629
801.356	27424
801.499	27260
801.641	27252
801.783	27272
801.926	27370
802.068	27294
802.211	27237
802.353	27108
802.496	26998
802.638	26834
802.78	26868
802.923	27036
803.065	26872
803.208	26899
803.35	26929
803.492	27218
803.635	27116
803.777	26925
803.919	27119
804.061	27481
804.204	27138
804.346	26998
804.488	27024
804.63	27150
804.773	27066
804.915	27039
805.057	27203
805.199	27138
805.341	27062
805.483	27096
805.626	27154
805.768	27066
805.91	27226
806.052	27252
806.194	27032
806.336	27294
806.478	27336
806.62	27230
806.762	27355
806.904	27561
807.046	27720
807.188	27743
807.33	27728
807.472	27736
807.614	27583
807.756	27618
807.898	27351
808.04	27526
808.182	27443
808.324	27519
808.465	27538
808.607	27644
808.749	27743
808.891	27888
809.033	28086
809.174	27972
809.316	27895
809.458	27907
809.6	27854
809.741	28036
809.883	28029
810.025	28105
810.166	28112
810.308	28120
810.45	28044
810.591	27861
810.733	27934
810.875	27808
811.016	27770
811.158	27778
811.299	28074
811.441	28059
811.582	27911
811.724	27945
811.865	27789
812.007	27926
812.148	27934
812.29	27968
812.431	28188
812.573	28291
812.714	28390
812.855	28474
812.997	28356
813.138	28531
813.279	28504
813.421	28535
813.562	28421
813.703	28268
813.845	28143
813.986	27720
814.127	27728
814.268	27523
814.41	27660
814.551	27549
814.692	27599
814.833	27458
814.974	27648
815.115	27564
815.256	27420
815.397	27397
815.539	27496
815.68	27268
815.821	27359
815.962	27469
816.103	27496
816.244	27329
816.385	27184
816.526	27298
816.666	26857
816.807	26773
816.948	26952
817.089	26933
817.23	26979
817.371	26849
817.512	26796
817.653	26853
817.793	26708
817.934	26819
818.075	26963
818.216	26899
818.356	26845
818.497	26667
818.638	26640
818.778	26598
818.919	26575
819.06	26739
819.2	26754
819.341	26891
819.481	26906
819.622	26971
819.762	27325
819.903	27138
820.043	27100
820.184	26880
820.324	26826
820.465	27104
820.605	27009
820.746	26937
820.886	26952
821.026	26937
821.167	26826
821.307	27009
821.447	26921
821.588	26727
821.728	26682
821.868	26404
822.008	26503
822.149	26271
822.289	26256
822.429	25989
822.569	25955
822.709	26031
822.849	25715
822.99	25826
823.13	25849
823.27	25677
823.41	25704
823.55	25544
823.69	25693
823.83	25601
823.97	25491
824.11	25457
824.25	25445
824.389	25472
824.529	25605
824.669	25571
824.809	25548
824.949	25525
825.089	25609
825.228	25430
825.368	25293
825.508	25293
825.648	25331
825.787	25388
825.927	25400
826.067	25358
826.206	25266
826.346	25464
826.485	25373
826.625	25301
826.765	25426
826.904	25373
827.044	25076
827.183	25012
827.323	24939
827.462	25175
827.601	25103
827.741	24928
827.88	25027
828.02	24932
828.159	24973
828.298	25088
828.437	25015
828.577	24920
828.716	25015
828.855	24928
828.994	24608
829.134	24646
829.273	24814
829.412	24654
829.551	24677
829.69	24833
829.829	24703
829.968	24703
830.107	24821
830.246	24738
830.385	24513
830.524	24544
830.663	24608
830.802	24467
830.941	24350
831.08	24350
831.219	24388
831.357	24369
831.496	24494
831.635	24300
831.774	24232
831.913	24174
832.051	24205
832.19	24155
832.329	24178
832.467	24003
832.606	23802
832.744	24057
832.883	23969
833.022	23931
833.16	24007
833.299	23897
833.437	23901
833.576	24228
833.714	24095
833.852	24091
833.991	24148
834.129	24095
834.267	24098
834.406	24110
834.544	24106
834.682	24121
834.821	24015
834.959	24277
835.097	24057
835.235	24060
835.373	24007
835.511	24133
835.65	23946
835.788	23954
835.926	23859
836.064	23794
836.202	23752
836.34	23942
836.478	24133
836.615	23741
836.753	23870
836.891	23965
837.029	24038
837.167	23843
837.305	23855
837.443	23676
837.58	23714
837.718	23798
837.856	23764
837.993	23710
838.131	23661
838.269	23531
838.406	23630
838.544	23417
838.681	23402
838.819	23353
838.956	23212
839.094	23136
839.231	23311
839.369	23341
839.506	23691
839.643	23509
839.781	23254
839.918	23102
840.055	23273
840.193	23239
840.33	23098
840.467	23094
840.604	23216
840.742	23474
840.879	22972
841.016	23056
841.153	22915
841.29	23284
841.427	23109
841.564	23170
841.701	23071
841.838	23022
841.975	23083
842.112	22987
842.249	22957
842.385	22980
842.522	23052
842.659	22900
842.796	22968
842.933	22908
843.069	22835
843.206	22911
843.343	22938
843.479	22850
843.616	22938
843.752	22557
843.889	22660
844.025	22782
844.162	22672
844.298	22649
844.435	22622
844.571	22698
844.708	22698
844.844	22740
844.98	22786
845.117	22828
845.253	22607
845.389	22573
845.525	22596
845.661	22497
845.798	22348
845.934	22367
846.07	22284
846.206	22417
846.342	22531
846.478	22398
846.614	22261
846.75	22181
846.886	22150
847.022	22188
847.158	22204
847.294	22078
847.429	22090
847.565	22074
847.701	22280
847.837	21861
847.972	21827
848.108	22101
848.244	21911
848.379	21838
848.515	21694
848.65	21614
848.786	21732
848.921	21774
849.057	21694
849.192	21819
849.328	21800
849.463	21652
849.598	21728
849.734	21694
849.869	21572
850.004	21504
850.14	21557
850.275	21439
850.41	21363
850.545	21408
850.68	21477
850.815	21462
850.95	21424
851.085	21694
851.22	21572
851.355	21580
851.49	21447
851.625	21359
851.76	21561
851.895	21389
852.03	21443
852.165	21405
852.299	21542
852.434	21595
852.569	21393
852.703	21428
852.838	21564
852.973	21576
853.107	21553
853.242	21485
853.376	21268
853.511	21165
853.645	21192
853.78	21393
853.914	21329
854.048	21207
854.183	21272
854.317	21466
854.451	21538
854.585	21302
854.72	21154
854.854	21287
854.988	21203
855.122	21176
855.256	21218
855.39	21241
855.524	21374
855.658	21344
855.792	21325
855.926	21264
856.06	21329
856.194	21351
856.327	21199
856.461	21367
856.595	21355
856.729	21233
856.862	21443
856.996	21367
857.13	21439
857.263	21359
857.397	21359
857.53	21249
857.664	21348
857.797	21317
857.931	21268
858.064	21294
858.197	21405
858.331	21233
858.464	21157
858.597	21165
858.731	21348
858.864	21348
858.997	21279
859.13	21397
859.263	21355
859.396	21367
859.529	21264
859.662	21199
859.795	21165
859.928	21203
860.061	21538
860.194	21447
860.327	21329
860.46	21252
860.592	21485
860.725	21435
860.858	21363
860.99	21306
861.123	21287
861.256	21268
861.388	21340
861.521	21880
861.653	21268
861.786	21180
861.918	21116
862.05	21116
862.183	21154
862.315	21214
862.447	21218
862.58	21116
862.712	20979
862.844	21024
862.976	21062
863.108	21058
863.24	21488
863.372	21077
863.504	21055
863.636	21024
863.768	20990
863.9	21032
864.032	20906
864.164	20937
864.296	21047
864.428	21055
864.559	20990
864.691	21039
864.823	21039
864.954	20979
865.086	21024
865.217	20876
865.349	20891
865.48	20960
865.612	20921
865.743	20971
865.875	20960
866.006	20906
866.137	20906
866.269	20830
866.4	20918
866.531	20960
866.662	20785
866.793	20899
866.924	20739
867.055	20891
867.186	20895
867.317	20857
867.448	20876
867.579	20629
867.71	20864
867.841	20663
867.972	20864
868.103	20815
868.233	20853
868.364	20929
868.495	20982
868.625	21009
868.756	21214
868.886	20990
869.017	21161
869.147	21203
869.278	21176
869.408	21085
869.539	21032
869.669	21184
869.799	21066
869.929	21119
870.06	21131
870.19	21329
870.32	21389
870.45	21534
870.58	21466
870.71	21519
870.84	21660
870.97	21492
871.1	21523
871.23	21717
871.36	21747
871.489	21580
871.619	21595
871.749	21530
871.879	21720
872.008	21724
872.138	21812
872.267	21838
872.397	21519
872.526	21523
872.656	21618
872.785	21603
872.915	21800
873.044	21781
873.173	21724
873.303	21747
873.432	21633
873.561	21827
873.69	21778
873.819	21633
873.948	21660
874.077	21724
874.206	21671
874.335	21667
874.464	21751
874.593	21972
874.722	21873
874.851	21956
874.979	21937
875.108	21884
875.237	21903
875.365	21854
875.494	21964
875.623	22055
875.751	21869
875.88	21930
876.008	22021
876.136	22029
876.265	22318
876.393	22325
876.521	22428
876.65	22451
876.778	22356
876.906	22394
877.034	22150
877.162	22379
877.29	22166
877.418	22287
877.546	22306
877.674	22272
877.802	22200
877.93	22310
878.058	22200
878.185	22143
878.313	22257
878.441	22154
878.568	22109
878.696	22268
878.824	22356
878.951	22424
879.079	22500
879.206	22607
879.333	22489
879.461	22390
879.588	22402
879.715	22443
879.842	22516
879.97	22291
880.097	22093
880.224	22154
880.351	22128
880.478	22074
880.605	22078
880.732	22150
880.859	22382
880.986	22173
881.112	22021
881.239	22013
881.366	21857
881.493	21667
881.619	21652
881.746	21690
881.872	21576
881.999	21568
882.125	21576
882.252	21698
882.378	21671
882.505	21747
882.631	21519
882.757	21378
882.883	21450
883.01	21348
883.136	21275
883.262	21249
883.388	21222
883.514	21412
883.64	21317
883.766	21298
883.892	21131
884.018	21157
884.143	21317
884.269	21378
884.395	21020
884.52	21032
884.646	21119
884.772	20948
884.897	20834
885.023	20910
885.148	21249
885.274	21104
885.399	21070
885.524	20998
885.65	21047
885.775	21051
885.9	21032
886.025	21043
886.15	21123
886.275	20914
886.4	20906
886.525	21157
886.65	20952
886.775	20960
886.9	21089
887.025	21348
887.149	20952
887.274	20834
887.399	20807
887.523	20758
887.648	20693
887.773	20773
887.897	20853
888.021	20796
888.146	20800
888.27	20845
888.395	20853
888.519	20769
888.643	20773
888.767	20849
888.891	20530
889.015	20590
889.139	20579
889.263	20629
889.387	20762
889.511	20853
889.635	20785
889.759	20606
889.883	20522
890.006	20625
890.13	20640
890.254	20476
890.377	20526
890.501	20385
890.624	20374
890.748	20320
890.871	20282
890.995	20191
891.118	20145
891.241	20157
891.364	20111
891.488	20298
891.611	20103
891.734	20218
891.857	20317
891.98	20092
892.103	20290
892.226	20210
892.349	20077
892.471	19955
892.594	20096
892.717	20180
892.839	20126
892.962	20012
893.085	20077
893.207	20134
893.33	19947
893.452	20008
893.575	20012
893.697	20001
893.819	20218
893.941	20138
894.064	20206
894.186	19982
894.308	20016
894.43	20119
894.552	20237
894.674	20187
894.796	19932
894.918	19986
895.04	19997
895.161	20142
895.283	20065
895.405	19974
895.526	20016
895.648	20092
895.769	20092
895.891	20005
896.012	20202
896.134	19993
896.255	20020
896.376	20096
896.498	20005
896.619	20031
896.74	20138
896.861	20202
896.982	20358
897.103	20442
897.224	20389
897.345	20240
897.466	20328
897.587	20328
897.708	20324
897.828	20275
897.949	20202
898.07	20134
898.19	20164
898.311	20381
898.431	20225
898.552	20301
898.672	20320
898.792	20358
898.913	20221
899.033	20130
899.153	20069
899.273	20024
899.393	20092
899.513	20122
899.633	20111
899.753	20096
899.873	19955
899.993	20077
900.113	19967
900.232	19982
900.352	19993
900.472	19997
900.591	19898
900.711	19795
900.83	19818
900.95	19913
901.069	19890
901.189	19757
901.308	19464
901.427	19339
901.546	19441
901.665	19510
901.784	19422
901.904	19289
902.023	19145
902.141	18962
902.26	18920
902.379	18996
902.498	18814
902.617	18939
902.735	18939
902.854	18852
902.973	18882
903.091	18661
903.21	18578
903.328	18631
903.446	18620
903.565	18407
903.683	18422
903.801	18262
903.919	18281
904.038	18251
904.156	18106
904.274	18182
904.392	18079
904.51	18060
904.627	18182
904.745	18239
904.863	18228
904.981	17980
905.098	17726
905.216	17764
905.334	17874
905.451	17821
905.569	17798
905.686	17779
905.803	17786
905.921	17619
906.038	17832
906.155	17642
906.272	17482
906.389	17505
906.506	17356
906.623	17368
906.74	17425
906.857	17273
906.974	17307
907.091	17528
907.208	17467
907.324	17410
907.441	17296
907.557	17094
907.674	17090
907.79	16930
907.907	17033
908.023	17121
908.139	17109
908.256	17025
908.372	16957
908.488	16949
908.604	16831
908.72	16816
908.836	16797
908.952	16793
909.068	16831
909.184	16889
909.3	16790
909.415	16877
909.531	16736
909.647	16451
909.762	16493
909.878	16550
909.993	16455
910.108	16497
910.224	16470
910.339	16440
910.454	16234
910.57	16268
910.685	16173
910.8	16470
910.915	16360
911.03	16246
911.145	16173
911.259	16025
911.374	16173
911.489	16082
911.604	16013
911.718	15918
911.833	15812
911.947	15724
912.062	15671
912.176	15804
912.291	15907
912.405	15842
912.519	16059
912.633	16105
912.748	15911
912.862	15854
912.976	15705
913.09	15549
913.204	15568
913.318	15576
913.431	15781
913.545	15755
913.659	15785
913.772	15595
913.886	15504
914	15496
914.113	15549
914.226	15447
914.34	15629
914.453	15348
914.566	15477
914.68	15386
914.793	15287
914.906	15154
915.019	15032
915.132	14971
915.245	15089
915.358	15089
915.47	15081
915.583	15062
915.696	15138
915.809	15112
915.921	15173
916.034	15032
916.146	14998
916.259	14960
916.371	15127
916.483	14963
916.595	14857
916.708	15001
916.82	14929
916.932	14838
917.044	14914
917.156	14845
917.268	14758
917.38	14727
917.491	14708
917.603	14735
917.715	14830
917.826	14796
917.938	14670
918.049	14568
918.161	14697
918.272	14811
918.384	14781
918.495	14651
918.606	14594
918.717	14370
918.828	14545
918.939	14503
919.05	14366
919.161	14457
919.272	14263
919.383	14305
919.494	14522
919.604	14693
919.715	14450
919.826	14370
919.936	14492
920.047	14590
920.157	14514
920.267	14613
920.378	14492
920.488	14400
920.598	14560
920.708	14693
920.818	14598
920.928	14564
921.038	14788
921.148	14735
921.258	14461
921.368	14244
921.477	14282
921.587	14244
921.697	14081
921.806	14172
921.916	14008
922.025	13906
922.134	13921
922.244	13772
922.353	13890
922.462	13700
922.571	13689
922.68	13525
922.789	13533
922.898	13525
923.007	13438
923.116	13540
923.224	13525
923.333	13567
923.442	13278
923.55	13259
923.659	13270
923.767	13415
923.876	13304
923.984	13335
924.092	13133
924.201	13183
924.309	13194
924.417	13164
924.525	13107
924.633	13190
924.741	14031
924.849	12859
924.956	13034
925.064	12871
925.172	12798
925.279	12913
925.387	12958
925.494	12878
925.602	12981
925.709	12989
925.816	12795
925.924	12844
926.031	13031
926.138	12871
926.245	12798
926.352	12772
926.459	12856
926.566	12970
926.673	12779
926.779	12578
926.886	12601
926.993	12479
927.099	12544
927.206	12414
927.312	12395
927.419	12475
927.525	12574
927.631	12547
927.737	12315
927.843	12281
927.95	12228
928.056	12327
928.162	12277
928.267	12285
928.373	12894
928.479	12391
928.585	12159
928.69	12308
928.796	12235
928.901	12121
929.007	12007
929.112	12110
929.218	12049
929.323	12045
929.428	12034
929.533	12205
929.638	11931
929.743	12007
929.848	12098
929.953	12003
930.058	11859
930.163	11756
930.267	11699
930.372	11904
930.477	11676
930.581	11920
930.685	11680
930.79	11589
930.894	11653
930.998	11554
931.103	11668
931.207	11417
931.311	11288
931.415	11201
931.519	10995
931.623	10987
