Data from test_V78500241_3165.txt Node
Date: Fri Mar 25 16:03:43 CST 2022
User: usil
Spectrometer: V785-0024
Trigger mode: 0
Integration Time (sec): 4.000000E-1
Scans to average: 1
Nonlinearity correction enabled: false
Boxcar width: 0
Storing dark spectrum: false
XAxis mode: Wavelengths
Number of Pixels in Spectrum: 1024
>>>>>Begin Spectral Data<<<<<
801.071	28401
801.214	28417
801.356	28169
801.499	28169
801.641	28090
801.783	27994
801.926	28124
802.068	27987
802.211	27876
802.353	27911
802.496	27835
802.638	27797
802.78	27698
802.923	27675
803.065	27610
803.208	27641
803.35	27774
803.492	27918
803.635	27907
803.777	27762
803.919	27914
804.061	28272
804.204	27987
804.346	27914
804.488	27934
804.63	27888
804.773	27861
804.915	28021
805.057	28135
805.199	27956
805.341	28063
805.483	27945
805.626	28051
805.768	28032
805.91	27991
806.052	28177
806.194	28093
806.336	28303
806.478	28112
806.62	28185
806.762	28329
806.904	28299
807.046	28664
807.188	28546
807.33	28512
807.472	28607
807.614	28656
807.756	28462
807.898	28390
808.04	28287
808.182	28398
808.324	28462
808.465	28379
808.607	28504
808.749	28828
808.891	28949
809.033	28896
809.174	28923
809.316	28717
809.458	28778
809.6	28736
809.741	28881
809.883	28915
810.025	28987
810.166	29086
810.308	29136
810.45	29056
810.591	28938
810.733	28793
810.875	28820
811.016	28881
811.158	28721
811.299	28911
811.441	28923
811.582	28816
811.724	28862
811.865	28801
812.007	28790
812.148	28729
812.29	28904
812.431	28888
812.573	29185
812.714	29349
812.855	29356
812.997	29395
813.138	29619
813.279	29478
813.421	29284
813.562	29299
813.703	29075
813.845	28991
813.986	28774
814.127	28596
814.268	28462
814.41	28516
814.551	28459
814.692	28637
814.833	28451
814.974	28386
815.115	28535
815.256	28405
815.397	28325
815.539	28379
815.68	28303
815.821	28249
815.962	28211
816.103	28344
816.244	28166
816.385	28086
816.526	28010
816.666	27926
816.807	27732
816.948	27812
817.089	27907
817.23	27934
817.371	27774
817.512	27899
817.653	27747
817.793	27823
817.934	27800
818.075	27835
818.216	27842
818.356	27759
818.497	27648
818.638	27542
818.778	27519
818.919	27447
819.06	27583
819.2	27648
819.341	27808
819.481	27842
819.622	28029
819.762	28135
819.903	28131
820.043	28006
820.184	27880
820.324	27945
820.465	27945
820.605	27994
820.746	27861
820.886	27819
821.026	27846
821.167	27903
821.307	27922
821.447	27842
821.588	27835
821.728	27618
821.868	27599
822.008	27321
822.149	27279
822.289	27169
822.429	26929
822.569	26990
822.709	27051
822.849	26769
822.99	26807
823.13	26739
823.27	26617
823.41	26602
823.55	26488
823.69	26533
823.83	26556
823.97	26511
824.11	26450
824.25	26381
824.389	26495
824.529	26602
824.669	26389
824.809	26644
824.949	26689
825.089	26621
825.228	26545
825.368	26172
825.508	26298
825.648	26332
825.787	26336
825.927	26362
826.067	26385
826.206	26366
826.346	26362
826.485	26457
826.625	26320
826.765	26495
826.904	26465
827.044	26282
827.183	26081
827.323	26046
827.462	26111
827.601	26084
827.741	26039
827.88	26161
828.02	25989
828.159	25936
828.298	25947
828.437	25913
828.577	26008
828.716	26027
828.855	25887
828.994	25727
829.134	25753
829.273	25742
829.412	25666
829.551	25685
829.69	25830
829.829	25780
829.968	25780
830.107	25795
830.246	25799
830.385	25635
830.524	25761
830.663	25575
830.802	25392
830.941	25312
831.08	25312
831.219	25289
831.357	25289
831.496	25548
831.635	25362
831.774	25198
831.913	25232
832.051	25103
832.19	25122
832.329	25084
832.467	25008
832.606	24901
832.744	24909
832.883	24901
833.022	24924
833.16	24981
833.299	24951
833.437	25061
833.576	25042
833.714	24954
833.852	24973
833.991	25000
834.129	25160
834.267	25156
834.406	25133
834.544	25225
834.682	25042
834.821	25168
834.959	25251
835.097	24833
835.235	25084
835.373	25050
835.511	24992
835.65	25015
835.788	24878
835.926	24878
836.064	24639
836.202	24760
836.34	24924
836.478	25042
836.615	24867
836.753	24882
836.891	24954
837.029	24833
837.167	24722
837.305	24783
837.443	24798
837.58	24661
837.718	24772
837.856	24852
837.993	24840
838.131	24749
838.269	24490
838.406	24597
838.544	24521
838.681	24418
838.819	24273
838.956	24140
839.094	24129
839.231	24247
839.369	24521
839.506	24635
839.643	24403
839.781	24315
839.918	24136
840.055	24083
840.193	24076
840.33	24140
840.467	24121
840.604	24026
840.742	24296
840.879	24102
841.016	24201
841.153	23912
841.29	24057
841.427	24133
841.564	24106
841.701	24087
841.838	23973
841.975	23920
842.112	23984
842.249	23889
842.385	23798
842.522	24087
842.659	24144
842.796	23889
842.933	23927
843.069	23752
843.206	23786
843.343	23897
843.479	23779
843.616	23878
843.752	23657
843.889	23642
844.025	23748
844.162	23611
844.298	23684
844.435	23684
844.571	23611
844.708	23653
844.844	23638
844.98	23859
845.117	23726
845.253	23512
845.389	23512
845.525	23543
845.661	23459
845.798	23341
845.934	23379
846.07	23349
846.206	23406
846.342	23459
846.478	23337
846.614	23189
846.75	22984
846.886	23155
847.022	23128
847.158	23239
847.294	23159
847.429	23086
847.565	23170
847.701	23269
847.837	22805
847.972	22847
848.108	22873
848.244	22968
848.379	22843
848.515	22603
848.65	22641
848.786	22721
848.921	22664
849.057	22706
849.192	22721
849.328	22717
849.463	22653
849.598	22668
849.734	22637
849.869	22398
850.004	22447
850.14	22489
850.275	22424
850.41	22409
850.545	22310
850.68	22333
850.815	22481
850.95	22421
851.085	22565
851.22	22573
851.355	22474
851.49	22440
851.625	22443
851.76	22382
851.895	22226
852.03	22348
852.165	22413
852.299	22337
852.434	22481
852.569	22512
852.703	22474
852.838	22485
852.973	22542
853.107	22459
853.242	22402
853.376	22265
853.511	22139
853.645	22162
853.78	22409
853.914	22238
854.048	22306
854.183	22386
854.317	22303
854.451	22516
854.585	22341
854.72	22295
854.854	22226
854.988	22181
855.122	22242
855.256	22215
855.39	22310
855.524	22318
855.658	22318
855.792	22314
855.926	22329
856.06	22280
856.194	22337
856.327	22173
856.461	22310
856.595	22295
856.729	22173
856.862	22341
856.996	22230
857.13	22291
857.263	22318
857.397	22527
857.53	22303
857.664	22409
857.797	22382
857.931	22405
858.064	22287
858.197	22268
858.331	22272
858.464	22257
858.597	22074
858.731	22280
858.864	22112
858.997	22185
859.13	22242
859.263	22246
859.396	22299
859.529	22234
859.662	22093
859.795	22158
859.928	22215
860.061	22379
860.194	22451
860.327	22432
860.46	22417
860.592	22310
860.725	22379
860.858	22402
860.99	22295
861.123	22196
861.256	22196
861.388	22295
861.521	22862
861.653	22086
861.786	22082
861.918	22029
862.05	22158
862.183	22306
862.315	22223
862.447	22219
862.58	22253
862.712	21991
862.844	21945
862.976	22128
863.108	22059
863.24	22379
863.372	21892
863.504	22029
863.636	21880
863.768	22010
863.9	21949
864.032	21850
864.164	21945
864.296	22002
864.428	22025
864.559	22029
864.691	22131
864.823	22002
864.954	21903
865.086	21968
865.217	21823
865.349	21785
865.48	21899
865.612	21861
865.743	21953
865.875	21945
866.006	21778
866.137	21865
866.269	21838
866.4	21831
866.531	21857
866.662	21778
866.793	21838
866.924	21785
867.055	21903
867.186	21717
867.317	21686
867.448	21637
867.579	21705
867.71	21694
867.841	21736
867.972	21743
868.103	21637
868.233	21770
868.364	21728
868.495	21892
868.625	21983
868.756	22223
868.886	22013
869.017	22013
869.147	22166
869.278	22143
869.408	22082
869.539	22017
869.669	22101
869.799	22128
869.929	22166
870.06	22101
870.19	22390
870.32	22253
870.45	22554
870.58	22386
870.71	22474
870.84	22424
870.97	22428
871.1	22405
871.23	22565
871.36	22516
871.489	22504
871.619	22637
871.749	22618
871.879	22649
872.008	22782
872.138	22713
872.267	22622
872.397	22622
872.526	22443
872.656	22493
872.785	22493
872.915	22668
873.044	22790
873.173	22615
873.303	22828
873.432	22660
873.561	22854
873.69	22580
873.819	22607
873.948	22721
874.077	22717
874.206	22630
874.335	22618
874.464	22759
874.593	22961
874.722	22793
874.851	22873
874.979	22835
875.108	22908
875.237	22713
875.365	22854
875.494	22843
875.623	22949
875.751	22892
875.88	23037
876.008	23136
876.136	23052
876.265	23288
876.393	23356
876.521	23345
876.65	23429
876.778	23246
876.906	23223
877.034	23246
877.162	23197
877.29	23143
877.418	23223
877.546	23090
877.674	23227
877.802	23227
877.93	23200
878.058	23181
878.185	23060
878.313	23239
878.441	23159
878.568	22976
878.696	23189
878.824	23117
878.951	23307
879.079	23372
879.206	23455
879.333	23421
879.461	23147
879.588	23391
879.715	23368
879.842	23497
879.97	23337
880.097	23075
880.224	23048
880.351	23067
880.478	23003
880.605	23098
880.732	23079
880.859	23242
880.986	23067
881.112	23117
881.239	22995
881.366	22744
881.493	22713
881.619	22721
881.746	22687
881.872	22565
881.999	22599
882.125	22577
882.252	22694
882.378	22565
882.505	22748
882.631	22363
882.757	22325
882.883	22337
883.01	22246
883.136	22284
883.262	22101
883.388	22063
883.514	22230
883.64	22261
883.766	22093
883.892	22074
884.018	22109
884.143	22314
884.269	22314
884.395	22048
884.52	22025
884.646	21964
884.772	21960
884.897	21854
885.023	21972
885.148	22025
885.274	22044
885.399	21998
885.524	21854
885.65	21895
885.775	21930
885.9	21759
886.025	21975
886.15	21964
886.275	21797
886.4	21823
886.525	21880
886.65	21869
886.775	21884
886.9	21922
887.025	22093
887.149	21880
887.274	21660
887.399	21648
887.523	21652
887.648	21637
887.773	21599
887.897	21751
888.021	21755
888.146	21614
888.27	21739
888.395	21682
888.519	21759
888.643	21671
888.767	21660
888.891	21469
889.015	21603
889.139	21500
889.263	21504
889.387	21564
889.511	21679
889.635	21526
889.759	21420
889.883	21485
890.006	21477
890.13	21450
890.254	21291
890.377	21408
890.501	21252
890.624	21173
890.748	21214
890.871	21055
890.995	21104
891.118	20925
891.241	21085
891.364	21013
891.488	21135
891.611	21039
891.734	20967
891.857	21081
891.98	20982
892.103	21123
892.226	20994
892.349	20963
892.471	20804
892.594	20883
892.717	20975
892.839	20876
892.962	20975
893.085	20937
893.207	20944
893.33	20739
893.452	20834
893.575	20883
893.697	20815
893.819	20990
893.941	21112
894.064	21032
894.186	20857
894.308	20838
894.43	20921
894.552	21032
894.674	20948
894.796	20834
894.918	21009
895.04	20861
895.161	20971
895.283	20914
895.405	20857
895.526	20929
895.648	20952
895.769	20967
895.891	20979
896.012	20914
896.134	20933
896.255	20876
896.376	20849
896.498	20861
896.619	20883
896.74	20815
896.861	21005
896.982	21283
897.103	21367
897.224	21116
897.345	21154
897.466	20887
897.587	21173
897.708	21165
897.828	21077
897.949	21070
898.07	20944
898.19	21051
898.311	21108
898.431	21058
898.552	21028
898.672	21203
898.792	21089
898.913	21085
899.033	21058
899.153	20853
899.273	20929
899.393	20720
899.513	20914
899.633	20910
899.753	20925
899.873	20743
899.993	20899
900.113	20769
900.232	20823
900.352	20693
900.472	20663
900.591	20552
900.711	20556
900.83	20598
900.95	20689
901.069	20583
901.189	20507
901.308	20278
901.427	20206
901.546	20126
901.665	20164
901.784	20210
901.904	20122
902.023	19864
902.141	19658
902.26	19731
902.379	19715
902.498	19715
902.617	19537
902.735	19689
902.854	19586
902.973	19594
903.091	19354
903.21	19327
903.328	19324
903.446	19225
903.565	19126
903.683	19152
903.801	18970
903.919	19118
904.038	19008
904.156	18962
904.274	18939
904.392	18852
904.51	18954
904.627	18848
904.745	18920
904.863	18856
904.981	18688
905.098	18639
905.216	18445
905.334	18673
905.451	18574
905.569	18563
905.686	18681
905.803	18559
905.921	18304
906.038	18361
906.155	18361
906.272	18190
906.389	18281
906.506	18091
906.623	18091
906.74	18174
906.857	17988
906.974	18076
907.091	18140
907.208	18098
907.324	17954
907.441	18049
907.557	17832
907.674	17851
907.79	17748
907.907	17809
908.023	17855
908.139	17901
908.256	17646
908.372	17676
908.488	17722
908.604	17604
908.72	17509
908.836	17512
908.952	17425
909.068	17615
909.184	17608
909.3	17581
909.415	17570
909.531	17417
909.647	17398
909.762	17288
909.878	17185
909.993	17239
910.108	17212
910.224	17155
910.339	17132
910.454	17140
910.57	17037
910.685	17010
910.8	17269
910.915	17166
911.03	16984
911.145	16835
911.259	16771
911.374	16778
911.489	16771
911.604	16660
911.718	16554
911.833	16516
911.947	16421
912.062	16413
912.176	16470
912.291	16527
912.405	16599
912.519	16706
912.633	16653
912.748	16630
912.862	16546
912.976	16356
913.09	16242
913.204	16322
913.318	16405
913.431	16459
913.545	16306
913.659	16462
913.772	16360
913.886	16139
914	16109
914.113	16196
914.226	16215
914.34	16128
914.453	15945
914.566	16124
914.68	16032
914.793	15975
914.906	15835
915.019	15739
915.132	15694
915.245	15713
915.358	15816
915.47	15709
915.583	15713
915.696	15835
915.809	15861
915.921	15816
916.034	15679
916.146	15610
916.259	15614
916.371	15755
916.483	15599
916.595	15378
916.708	15549
916.82	15477
916.932	15469
917.044	15473
917.156	15454
917.268	15443
917.38	15374
917.491	15344
917.603	15275
917.715	15466
917.826	15420
917.938	15233
918.049	15142
918.161	15351
918.272	15389
918.384	15424
918.495	15283
918.606	15207
918.717	15043
918.828	15135
918.939	15077
919.05	15032
919.161	15074
919.272	14914
919.383	14887
919.494	15085
919.604	15150
919.715	15100
919.826	14998
919.936	15017
920.047	14986
920.157	14998
920.267	15230
920.378	15070
920.488	14952
920.598	15176
920.708	15298
920.818	15218
920.928	15192
921.038	15260
921.148	15233
921.258	15020
921.368	14891
921.477	14811
921.587	14735
921.697	14705
921.806	14754
921.916	14743
922.025	14423
922.134	14358
922.244	14389
922.353	14328
922.462	14278
922.571	14313
922.68	13993
922.789	14069
922.898	14058
923.007	14065
923.116	14103
923.224	14130
923.333	14054
923.442	13837
923.55	13818
923.659	13936
923.767	13951
923.876	13814
923.984	13826
924.092	13727
924.201	13822
924.309	13849
924.417	13826
924.525	13655
924.633	13704
924.741	14473
924.849	13559
924.956	13582
925.064	13506
925.172	13369
925.279	13407
925.387	13430
925.494	13434
925.602	13616
925.709	13381
925.816	13407
925.924	13358
926.031	13400
926.138	13324
926.245	13400
926.352	13183
926.459	13354
926.566	13419
926.673	13255
926.779	13221
926.886	13209
926.993	13065
927.099	12916
927.206	12791
927.312	13008
927.419	12993
927.525	13015
927.631	13019
927.737	12890
927.843	12791
927.95	12711
928.056	12837
928.162	12890
928.267	12901
928.373	13407
928.479	12825
928.585	12646
928.69	12795
928.796	12825
928.901	12711
929.007	12502
929.112	12623
929.218	12627
929.323	12650
929.428	12509
929.533	12616
929.638	12452
929.743	12536
929.848	12544
929.953	12441
930.058	12384
930.163	12140
930.267	12114
930.372	12304
930.477	12175
930.581	12369
930.685	12289
930.79	12076
930.894	12106
930.998	12095
931.103	12220
931.207	11893
931.311	11783
931.415	11699
931.519	11448
931.623	11398
