Data from test_V78500241_106.txt Node
Date: Fri Mar 25 15:42:32 CST 2022
User: usil
Spectrometer: V785-0024
Trigger mode: 0
Integration Time (sec): 4.000000E-1
Scans to average: 1
Nonlinearity correction enabled: false
Boxcar width: 0
Storing dark spectrum: false
XAxis mode: Wavelengths
Number of Pixels in Spectrum: 1024
>>>>>Begin Spectral Data<<<<<
801.071	29162
801.214	28976
801.356	28831
801.499	28793
801.641	28653
801.783	28626
801.926	28698
802.068	28615
802.211	28508
802.353	28360
802.496	28360
802.638	28204
802.78	28257
802.923	28139
803.065	28158
803.208	28120
803.35	28204
803.492	28303
803.635	28466
803.777	28219
803.919	28390
804.061	28767
804.204	28413
804.346	28215
804.488	28310
804.63	28299
804.773	28040
804.915	28272
805.057	28341
805.199	28249
805.341	28375
805.483	28504
805.626	28379
805.768	28287
805.91	28451
806.052	28352
806.194	28310
806.336	28649
806.478	28246
806.62	28299
806.762	28478
806.904	28618
807.046	28816
807.188	28759
807.33	28645
807.472	28824
807.614	28615
807.756	28622
807.898	28664
808.04	28504
808.182	28580
808.324	28474
808.465	28512
808.607	28706
808.749	28786
808.891	28953
809.033	29231
809.174	29052
809.316	28869
809.458	28797
809.6	28866
809.741	28900
809.883	28949
810.025	29151
810.166	29220
810.308	29037
810.45	29060
810.591	29064
810.733	28824
810.875	28755
811.016	28782
811.158	28721
811.299	28824
811.441	29086
811.582	29029
811.724	28713
811.865	28691
812.007	28691
812.148	28839
812.29	28873
812.431	28984
812.573	29124
812.714	29079
812.855	29227
812.997	29505
813.138	29417
813.279	29452
813.421	29128
813.562	29265
813.703	29098
813.845	28866
813.986	28710
814.127	28550
814.268	28360
814.41	28462
814.551	28394
814.692	28554
814.833	28440
814.974	28177
815.115	28394
815.256	28101
815.397	28196
815.539	28124
815.68	28101
815.821	28067
815.962	28017
816.103	28086
816.244	27873
816.385	27869
816.526	27838
816.666	27709
816.807	27572
816.948	27534
817.089	27629
817.23	27504
817.371	27580
817.512	27504
817.653	27332
817.793	27553
817.934	27420
818.075	27481
818.216	27458
818.356	27427
818.497	27325
818.638	27138
818.778	27062
818.919	27135
819.06	27348
819.2	27367
819.341	27401
819.481	27408
819.622	27549
819.762	27785
819.903	27633
820.043	27473
820.184	27458
820.324	27389
820.465	27625
820.605	27515
820.746	27500
820.886	27176
821.026	27397
821.167	27351
821.307	27458
821.447	27313
821.588	27287
821.728	27062
821.868	26807
822.008	26952
822.149	26811
822.289	26796
822.429	26602
822.569	26484
822.709	26598
822.849	26465
822.99	26282
823.13	26119
823.27	26134
823.41	26164
823.55	25944
823.69	26016
823.83	26115
823.97	26039
824.11	25814
824.25	25894
824.389	25753
824.529	25864
824.669	25811
824.809	25974
824.949	26084
825.089	25871
825.228	25894
825.368	25635
825.508	25681
825.648	25674
825.787	25616
825.927	25727
826.067	25647
826.206	25731
826.346	25780
826.485	25628
826.625	25670
826.765	25750
826.904	25708
827.044	25358
827.183	25396
827.323	25270
827.462	25308
827.601	25331
827.741	25377
827.88	25274
828.02	25251
828.159	25301
828.298	25358
828.437	25426
828.577	25206
828.716	25373
828.855	25187
828.994	24890
829.134	24943
829.273	25095
829.412	24856
829.551	24932
829.69	24886
829.829	24928
829.968	25053
830.107	25126
830.246	24939
830.385	24852
830.524	24871
830.663	24779
830.802	24642
830.941	24513
831.08	24631
831.219	24563
831.357	24532
831.496	24646
831.635	24372
831.774	24372
831.913	24266
832.051	24304
832.19	24281
832.329	24258
832.467	24159
832.606	23996
832.744	24125
832.883	24148
833.022	24003
833.16	24110
833.299	24091
833.437	24125
833.576	24148
833.714	24102
833.852	24182
833.991	24171
834.129	24072
834.267	24197
834.406	24076
834.544	24125
834.682	24083
834.821	23999
834.959	24338
835.097	23969
835.235	24034
835.373	23942
835.511	24079
835.65	23939
835.788	23950
835.926	23904
836.064	23821
836.202	23695
836.34	23916
836.478	24053
836.615	23965
836.753	23999
836.891	23874
837.029	23973
837.167	23840
837.305	23882
837.443	23855
837.58	23866
837.718	23775
837.856	23745
837.993	23657
838.131	23908
838.269	23760
838.406	23661
838.544	23566
838.681	23455
838.819	23246
838.956	23064
839.094	23117
839.231	23189
839.369	23356
839.506	23471
839.643	23364
839.781	23147
839.918	22984
840.055	23094
840.193	23098
840.33	23117
840.467	23067
840.604	22930
840.742	23315
840.879	22930
841.016	22980
841.153	22896
841.29	23204
841.427	23014
841.564	23037
841.701	22987
841.838	23098
841.975	22915
842.112	23010
842.249	22896
842.385	22774
842.522	23018
842.659	22752
842.796	22622
842.933	22580
843.069	22733
843.206	22660
843.343	22839
843.479	22702
843.616	22793
843.752	22375
843.889	22409
844.025	22459
844.162	22447
844.298	22470
844.435	22432
844.571	22314
844.708	22413
844.844	22584
844.98	22546
845.117	22474
845.253	22382
845.389	22204
845.525	22242
845.661	22253
845.798	22185
845.934	22185
846.07	22059
846.206	22169
846.342	22284
846.478	22086
846.614	22059
846.75	21808
846.886	21751
847.022	22021
847.158	21953
847.294	21857
847.429	21888
847.565	21842
847.701	21975
847.837	21587
847.972	21473
848.108	21652
848.244	21625
848.379	21458
848.515	21298
848.65	21382
848.786	21500
848.921	21325
849.057	21526
849.192	21374
849.328	21393
849.463	21450
849.598	21363
849.734	21313
849.869	21313
850.004	21154
850.14	21077
850.275	21100
850.41	21081
850.545	21142
850.68	21188
850.815	21218
850.95	21260
851.085	21298
851.22	21218
851.355	21104
851.49	21104
851.625	20967
851.76	21089
851.895	21013
852.03	21047
852.165	21009
852.299	21154
852.434	21157
852.569	20937
852.703	21077
852.838	21043
852.973	21264
853.107	21150
853.242	20956
853.376	20990
853.511	20758
853.645	20914
853.78	21093
853.914	20910
854.048	20857
854.183	20906
854.317	20975
854.451	21127
854.585	20921
854.72	20857
854.854	20979
854.988	20823
855.122	20891
855.256	20834
855.39	20960
855.524	20952
855.658	20944
855.792	20937
855.926	21013
856.06	20895
856.194	20971
856.327	20921
856.461	20914
856.595	20785
856.729	20857
856.862	20944
856.996	20861
857.13	20979
857.263	20990
857.397	20986
857.53	20876
857.664	20944
857.797	20998
857.931	20941
858.064	20956
858.197	21017
858.331	20857
858.464	20800
858.597	20644
858.731	20777
858.864	20765
858.997	20853
859.13	20857
859.263	20853
859.396	20864
859.529	20750
859.662	20811
859.795	20777
859.928	20910
860.061	20952
860.194	21085
860.327	20933
860.46	20872
860.592	20880
860.725	20902
860.858	20963
860.99	20750
861.123	20629
861.256	20735
861.388	20758
861.521	21348
861.653	20678
861.786	20636
861.918	20712
862.05	20735
862.183	20899
862.315	20899
862.447	20910
862.58	20872
862.712	20632
862.844	20492
862.976	20575
863.108	20575
863.24	20925
863.372	20419
863.504	20499
863.636	20537
863.768	20431
863.9	20583
864.032	20355
864.164	20492
864.296	20423
864.428	20602
864.559	20549
864.691	20571
864.823	20560
864.954	20514
865.086	20511
865.217	20393
865.349	20400
865.48	20465
865.612	20469
865.743	20530
865.875	20499
866.006	20339
866.137	20514
866.269	20419
866.4	20381
866.531	20438
866.662	20324
866.793	20423
866.924	20309
867.055	20442
867.186	20370
867.317	20313
867.448	20240
867.579	20366
867.71	20214
867.841	20362
867.972	20332
868.103	20286
868.233	20370
868.364	20423
868.495	20393
868.625	20560
868.756	20617
868.886	20621
869.017	20587
869.147	20640
869.278	20830
869.408	20613
869.539	20495
869.669	20670
869.799	20617
869.929	20670
870.06	20629
870.19	20891
870.32	20902
870.45	20986
870.58	20971
870.71	21081
870.84	21154
870.97	20914
871.1	20921
871.23	21131
871.36	21104
871.489	21058
871.619	21214
871.749	21233
871.879	21230
872.008	21226
872.138	21192
872.267	21268
872.397	21093
872.526	20921
872.656	21036
872.785	20937
872.915	21184
873.044	21275
873.173	21135
873.303	21256
873.432	21203
873.561	21283
873.69	21275
873.819	21184
873.948	21252
874.077	21089
874.206	21226
874.335	21169
874.464	21367
874.593	21431
874.722	21401
874.851	21519
874.979	21439
875.108	21485
875.237	21386
875.365	21283
875.494	21329
875.623	21564
875.751	21382
875.88	21542
876.008	21538
876.136	21641
876.265	21850
876.393	21823
876.521	21915
876.65	22082
876.778	21953
876.906	21778
877.034	21816
877.162	21759
877.29	21679
877.418	21781
877.546	21694
877.674	21766
877.802	21781
877.93	21838
878.058	21766
878.185	21625
878.313	21629
878.441	21770
878.568	21614
878.696	21690
878.824	21907
878.951	21816
879.079	21869
879.206	22021
879.333	21937
879.461	21960
879.588	21892
879.715	22040
879.842	22101
879.97	21770
880.097	21622
880.224	21682
880.351	21618
880.478	21660
880.605	21545
880.732	21614
880.859	21861
880.986	21675
881.112	21591
881.239	21580
881.366	21408
881.493	21359
881.619	21256
881.746	21233
881.872	21157
881.999	21146
882.125	21070
882.252	21119
882.378	21306
882.505	21374
882.631	21074
882.757	20994
882.883	20933
883.01	20990
883.136	20864
883.262	20800
883.388	20807
883.514	20956
883.64	20967
883.766	20838
883.892	20830
884.018	20724
884.143	20990
884.269	21009
884.395	20739
884.52	20549
884.646	20609
884.772	20484
884.897	20530
885.023	20613
885.148	20727
885.274	20552
885.399	20682
885.524	20556
885.65	20556
885.775	20670
885.9	20564
886.025	20716
886.15	20613
886.275	20640
886.4	20507
886.525	20473
886.65	20454
886.775	20450
886.9	20712
887.025	20758
887.149	20575
887.274	20381
887.399	20355
887.523	20355
887.648	20259
887.773	20221
887.897	20248
888.021	20423
888.146	20229
888.27	20419
888.395	20336
888.519	20438
888.643	20328
888.767	20370
888.891	20195
889.015	20122
889.139	20115
889.263	19921
889.387	20282
889.511	20324
889.635	20153
889.759	20161
889.883	20058
890.006	20024
890.13	20138
890.254	19928
890.377	20069
890.501	19841
890.624	19795
890.748	19902
890.871	19662
890.995	19750
891.118	19715
891.241	19647
891.364	19757
891.488	19693
891.611	19750
891.734	19685
891.857	19750
891.98	19746
892.103	19719
892.226	19647
892.349	19613
892.471	19559
892.594	19662
892.717	19670
892.839	19624
892.962	19613
893.085	19639
893.207	19495
893.33	19533
893.452	19483
893.575	19689
893.697	19624
893.819	19734
893.941	19753
894.064	19655
894.186	19441
894.308	19563
894.43	19544
894.552	19788
894.674	19719
894.796	19609
894.918	19445
895.04	19605
895.161	19715
895.283	19693
895.405	19586
895.526	19635
895.648	19738
895.769	19620
895.891	19597
896.012	19696
896.134	19666
896.255	19647
896.376	19700
896.498	19651
896.619	19700
896.74	19582
896.861	19795
896.982	19936
897.103	20202
897.224	19917
897.345	19894
897.466	19890
897.587	19887
897.708	20058
897.828	19913
897.949	19757
898.07	19727
898.19	19811
898.311	20024
898.431	19776
898.552	19837
898.672	19887
898.792	19753
898.913	19982
899.033	19742
899.153	19628
899.273	19483
899.393	19540
899.513	19556
899.633	19487
899.753	19567
899.873	19472
899.993	19567
900.113	19388
900.232	19514
900.352	19445
900.472	19540
900.591	19255
900.711	19358
900.83	19327
900.95	19426
901.069	19407
901.189	19209
901.308	19091
901.427	18935
901.546	18814
901.665	18935
901.784	18939
901.904	18779
902.023	18730
902.141	18578
902.26	18460
902.379	18547
902.498	18357
902.617	18433
902.735	18551
902.854	18456
902.973	18266
903.091	18178
903.21	18117
903.328	18133
903.446	17965
903.565	17859
903.683	17828
903.801	17779
903.919	17977
904.038	17840
904.156	17733
904.274	17790
904.392	17646
904.51	17638
904.627	17630
904.745	17756
904.863	17695
904.981	17482
905.098	17246
905.216	17315
905.334	17410
905.451	17315
905.569	17341
905.686	17448
905.803	17299
905.921	17147
906.038	17246
906.155	17098
906.272	17041
906.389	17045
906.506	16987
906.623	16835
906.74	16862
906.857	16778
906.974	16744
907.091	16934
907.208	17079
907.324	16911
907.441	16694
907.557	16641
907.674	16660
907.79	16478
907.907	16558
908.023	16580
908.139	16523
908.256	16531
908.372	16402
908.488	16428
908.604	16284
908.72	16299
908.836	16261
908.952	16230
909.068	16272
909.184	16246
909.3	16162
909.415	16211
909.531	16238
909.647	15945
909.762	15956
909.878	15865
909.993	15911
910.108	15876
910.224	15869
910.339	15861
910.454	15778
910.57	15808
910.685	15739
910.8	15956
910.915	15911
911.03	15793
911.145	15633
911.259	15496
911.374	15466
911.489	15485
911.604	15332
911.718	15382
911.833	15188
911.947	15192
912.062	15195
912.176	15302
912.291	15370
912.405	15393
912.519	15610
912.633	15473
912.748	15222
912.862	15203
912.976	15047
913.09	14937
913.204	15028
913.318	15097
913.431	15154
913.545	15161
913.659	15138
913.772	15104
913.886	14834
914	14956
914.113	15005
914.226	14956
914.34	14960
914.453	14739
914.566	14826
914.68	14727
914.793	14834
914.906	14549
915.019	14511
915.132	14461
915.245	14545
915.358	14549
915.47	14568
915.583	14492
915.696	14613
915.809	14682
915.921	14632
916.034	14457
916.146	14423
916.259	14393
916.371	14442
916.483	14434
916.595	14389
916.708	14328
916.82	14305
916.932	14339
917.044	14271
917.156	14259
917.268	14084
917.38	14134
917.491	14130
917.603	14153
917.715	14244
917.826	14183
917.938	14111
918.049	14058
918.161	14069
918.272	14237
918.384	14244
918.495	14130
918.606	13925
918.717	13936
918.828	14005
918.939	13947
919.05	13871
919.161	13875
919.272	13723
919.383	13761
919.494	14024
919.604	14123
919.715	13856
919.826	13955
919.936	13750
920.047	13951
920.157	13913
920.267	14126
920.378	13883
920.488	13871
920.598	14054
920.708	14267
920.818	13902
920.928	13989
921.038	14229
921.148	14115
921.258	13772
921.368	13677
921.477	13734
921.587	13556
921.697	13453
921.806	13643
921.916	13407
922.025	13373
922.134	13266
922.244	13320
922.353	13346
922.462	13126
922.571	13076
922.68	12909
922.789	12871
922.898	12852
923.007	12791
923.116	12871
923.224	12890
923.333	12932
923.442	12783
923.55	12760
923.659	12707
923.767	12829
923.876	12658
923.984	12806
924.092	12677
924.201	12639
924.309	12776
924.417	12681
924.525	12563
924.633	12559
924.741	13388
924.849	12437
924.956	12563
925.064	12254
925.172	12247
925.279	12296
925.387	12372
925.494	12388
925.602	12498
925.709	12445
925.816	12243
925.924	12235
926.031	12372
926.138	12277
926.245	12369
926.352	12102
926.459	12418
926.566	12429
926.673	12258
926.779	12197
926.886	12167
926.993	11927
927.099	12011
927.206	11931
927.312	11954
927.419	12026
927.525	11980
927.631	11923
927.737	11779
927.843	11824
927.95	11688
928.056	11821
928.162	11863
928.267	11824
928.373	12517
928.479	11824
928.585	11608
928.69	11665
928.796	11775
928.901	11547
929.007	11532
929.112	11596
929.218	11649
929.323	11596
929.428	11433
929.533	11596
929.638	11429
929.743	11414
929.848	11467
929.953	11516
930.058	11414
930.163	11174
930.267	11216
930.372	11345
930.477	11140
930.581	11337
930.685	11216
930.79	11067
930.894	11083
930.998	11064
931.103	11128
931.207	10858
931.311	10710
931.415	10656
931.519	10538
931.623	10451
