Data from test_V78500241_2716.txt Node
Date: Fri Mar 25 16:00:36 CST 2022
User: usil
Spectrometer: V785-0024
Trigger mode: 0
Integration Time (sec): 4.000000E-1
Scans to average: 1
Nonlinearity correction enabled: false
Boxcar width: 0
Storing dark spectrum: false
XAxis mode: Wavelengths
Number of Pixels in Spectrum: 1024
>>>>>Begin Spectral Data<<<<<
801.071	28949
801.214	28847
801.356	28584
801.499	28489
801.641	28451
801.783	28344
801.926	28500
802.068	28344
802.211	28268
802.353	28299
802.496	27918
802.638	27991
802.78	27968
802.923	27953
803.065	27979
803.208	28124
803.35	27991
803.492	28192
803.635	28185
803.777	28131
803.919	28344
804.061	28672
804.204	28405
804.346	28371
804.488	28188
804.63	28333
804.773	28284
804.915	28257
805.057	28398
805.199	28356
805.341	28478
805.483	28455
805.626	28485
805.768	28306
805.91	28379
806.052	28462
806.194	28390
806.336	28634
806.478	28577
806.62	28466
806.762	28706
806.904	28831
807.046	29124
807.188	28991
807.33	28995
807.472	28987
807.614	28892
807.756	28824
807.898	28744
808.04	28767
808.182	28706
808.324	28782
808.465	28835
808.607	29090
808.749	29140
808.891	29258
809.033	29334
809.174	29345
809.316	29197
809.458	29083
809.6	29121
809.741	29220
809.883	29223
810.025	29364
810.166	29414
810.308	29398
810.45	29246
810.591	29387
810.733	29322
810.875	29151
811.016	29170
811.158	29086
811.299	29292
811.441	29277
811.582	29292
811.724	29273
811.865	29060
812.007	29193
812.148	29197
812.29	29341
812.431	29220
812.573	29505
812.714	29756
812.855	29638
812.997	29851
813.138	29958
813.279	29859
813.421	29726
813.562	29627
813.703	29436
813.845	29512
813.986	29208
814.127	28923
814.268	29052
814.41	28885
814.551	28778
814.692	28911
814.833	28797
814.974	28850
815.115	28953
815.256	28790
815.397	28831
815.539	28805
815.68	28675
815.821	28721
815.962	28721
816.103	28637
816.244	28622
816.385	28443
816.526	28523
816.666	28219
816.807	28143
816.948	28257
817.089	28230
817.23	28162
817.371	28261
817.512	28169
817.653	28352
817.793	28204
817.934	28303
818.075	28204
818.216	28200
818.356	28219
818.497	28207
818.638	28021
818.778	28013
818.919	27914
819.06	28162
819.2	28139
819.341	28333
819.481	28348
819.622	28310
819.762	28577
819.903	28459
820.043	28523
820.184	28398
820.324	28401
820.465	28535
820.605	28360
820.746	28367
820.886	28333
821.026	28375
821.167	28390
821.307	28306
821.447	28238
821.588	28272
821.728	28112
821.868	27766
822.008	27660
822.149	27800
822.289	27838
822.429	27473
822.569	27427
822.709	27416
822.849	27150
822.99	27233
823.13	27131
823.27	27165
823.41	26948
823.55	26845
823.69	27116
823.83	27123
823.97	26929
824.11	26937
824.25	26857
824.389	26849
824.529	26967
824.669	26868
824.809	26883
824.949	26979
825.089	26895
825.228	27001
825.368	26895
825.508	26655
825.648	26857
825.787	26807
825.927	26781
826.067	26705
826.206	26807
826.346	26940
826.485	26758
826.625	26807
826.765	26937
826.904	26746
827.044	26484
827.183	26473
827.323	26355
827.462	26484
827.601	26514
827.741	26404
827.88	26473
828.02	26347
828.159	26473
828.298	26427
828.437	26556
828.577	26377
828.716	26552
828.855	26358
828.994	26069
829.134	26103
829.273	26195
829.412	26100
829.551	26233
829.69	26145
829.829	26111
829.968	26362
830.107	26214
830.246	26149
830.385	26092
830.524	26069
830.663	25970
830.802	25989
830.941	25784
831.08	25780
831.219	25879
831.357	25780
831.496	26027
831.635	25818
831.774	25746
831.913	25647
832.051	25571
832.19	25537
832.329	25613
832.467	25415
832.606	25403
832.744	25479
832.883	25362
833.022	25346
833.16	25411
833.299	25575
833.437	25445
833.576	25529
833.714	25552
833.852	25502
833.991	25445
834.129	25575
834.267	25540
834.406	25529
834.544	25567
834.682	25529
834.821	25502
834.959	25556
835.097	25282
835.235	25559
835.373	25594
835.511	25537
835.65	25346
835.788	25346
835.926	25187
836.064	25107
836.202	25171
836.34	25274
836.478	25449
836.615	25324
836.753	25202
836.891	25384
837.029	25365
837.167	25225
837.305	25179
837.443	25194
837.58	25023
837.718	25057
837.856	25107
837.993	24977
838.131	25080
838.269	24916
838.406	25107
838.544	24970
838.681	24814
838.819	24825
838.956	24661
839.094	24528
839.231	24631
839.369	24833
839.506	25057
839.643	24829
839.781	24646
839.918	24578
840.055	24608
840.193	24494
840.33	24498
840.467	24642
840.604	24593
840.742	24920
840.879	24232
841.016	24445
841.153	24308
841.29	24521
841.427	24471
841.564	24479
841.701	24498
841.838	24414
841.975	24357
842.112	24437
842.249	24308
842.385	24174
842.522	24338
842.659	24327
842.796	24266
842.933	24182
843.069	24167
843.206	24201
843.343	24289
843.479	24247
843.616	24201
843.752	24136
843.889	24068
844.025	24201
844.162	23996
844.298	24038
844.435	24011
844.571	23855
844.708	23927
844.844	24285
844.98	24068
845.117	24155
845.253	24087
845.389	23771
845.525	24072
845.661	23813
845.798	23786
845.934	23828
846.07	23775
846.206	23790
846.342	23775
846.478	23722
846.614	23687
846.75	23516
846.886	23570
847.022	23497
847.158	23471
847.294	23486
847.429	23516
847.565	23463
847.701	23642
847.837	23231
847.972	23212
848.108	23288
848.244	23273
848.379	23098
848.515	23128
848.65	23018
848.786	22976
848.921	23102
849.057	23159
849.192	23121
849.328	23022
849.463	23105
849.598	23037
849.734	22930
849.869	22968
850.004	22923
850.14	22869
850.275	22968
850.41	22786
850.545	22767
850.68	22919
850.815	22908
850.95	22869
851.085	23037
851.22	22942
851.355	22759
851.49	22991
851.625	22748
851.76	22793
851.895	22767
852.03	22805
852.165	22938
852.299	22889
852.434	22896
852.569	22831
852.703	22835
852.838	22980
852.973	23029
853.107	22957
853.242	22710
853.376	22618
853.511	22519
853.645	22656
853.78	22694
853.914	22615
854.048	22615
854.183	22497
854.317	22596
854.451	22908
854.585	22706
854.72	22706
854.854	22812
854.988	22557
855.122	22649
855.256	22542
855.39	22672
855.524	22748
855.658	22656
855.792	22675
855.926	22790
856.06	22687
856.194	22748
856.327	22797
856.461	22675
856.595	22611
856.729	22630
856.862	22919
856.996	22626
857.13	22755
857.263	22873
857.397	22748
857.53	22702
857.664	22782
857.797	22786
857.931	22767
858.064	22691
858.197	22774
858.331	22588
858.464	22634
858.597	22538
858.731	22580
858.864	22497
858.997	22527
859.13	22755
859.263	22683
859.396	22748
859.529	22535
859.662	22603
859.795	22653
859.928	22630
860.061	22793
860.194	22831
860.327	22733
860.46	22664
860.592	22748
860.725	22820
860.858	22782
860.99	22622
861.123	22432
861.256	22653
861.388	22603
861.521	23383
861.653	22607
861.786	22291
861.918	22462
862.05	22485
862.183	22565
862.315	22641
862.447	22634
862.58	22470
862.712	22386
862.844	22268
862.976	22470
863.108	22493
863.24	22839
863.372	22234
863.504	22402
863.636	22299
863.768	22363
863.9	22333
864.032	22204
864.164	22333
864.296	22333
864.428	22440
864.559	22405
864.691	22481
864.823	22409
864.954	22398
865.086	22306
865.217	22242
865.349	22207
865.48	22219
865.612	22166
865.743	22440
865.875	22280
866.006	22181
866.137	22276
866.269	22230
866.4	22234
866.531	22276
866.662	22188
866.793	22173
866.924	22200
867.055	22166
867.186	22078
867.317	22200
867.448	22162
867.579	22185
867.71	21979
867.841	21991
867.972	22207
868.103	22215
868.233	22261
868.364	22158
868.495	22238
868.625	22356
868.756	22535
868.886	22344
869.017	22470
869.147	22474
869.278	22516
869.408	22428
869.539	22409
869.669	22440
869.799	22508
869.929	22333
870.06	22519
870.19	22630
870.32	22626
870.45	22812
870.58	22793
870.71	22869
870.84	23060
870.97	22801
871.1	22831
871.23	22915
871.36	22995
871.489	23014
871.619	22946
871.749	23003
871.879	23067
872.008	23147
872.138	23037
872.267	23010
872.397	22930
872.526	22904
872.656	22790
872.785	22930
872.915	22980
873.044	23128
873.173	23143
873.303	22980
873.432	23117
873.561	23094
873.69	23121
873.819	23105
873.948	23064
874.077	22991
874.206	23010
874.335	22923
874.464	23075
874.593	23436
874.722	23124
874.851	23208
874.979	23284
875.108	23246
875.237	23067
875.365	23181
875.494	23124
875.623	23311
875.751	23162
875.88	23341
876.008	23452
876.136	23402
876.265	23722
876.393	23684
876.521	23661
876.65	23703
876.778	23687
876.906	23551
877.034	23497
877.162	23573
877.29	23516
877.418	23539
877.546	23638
877.674	23528
877.802	23573
877.93	23493
878.058	23493
878.185	23402
878.313	23543
878.441	23490
878.568	23429
878.696	23581
878.824	23566
878.951	23760
879.079	23767
879.206	23813
879.333	23676
879.461	23577
879.588	23714
879.715	23691
879.842	23809
879.97	23581
880.097	23459
880.224	23417
880.351	23391
880.478	23356
880.605	23334
880.732	23383
880.859	23619
880.986	23269
881.112	23356
881.239	23113
881.366	23212
881.493	22999
881.619	22949
881.746	23113
881.872	23018
881.999	22873
882.125	22881
882.252	23083
882.378	22972
882.505	22934
882.631	22767
882.757	22622
882.883	22725
883.01	22596
883.136	22653
883.262	22478
883.388	22440
883.514	22618
883.64	22592
883.766	22546
883.892	22379
884.018	22462
884.143	22497
884.269	22584
884.395	22333
884.52	22242
884.646	22169
884.772	22150
884.897	22169
885.023	22268
885.148	22253
885.274	22356
885.399	22421
885.524	22200
885.65	22329
885.775	22322
885.9	22246
886.025	22443
886.15	22280
886.275	22204
886.4	22215
886.525	22135
886.65	22188
886.775	22211
886.9	22394
887.025	22500
887.149	22257
887.274	22040
887.399	22032
887.523	21907
887.648	22010
887.773	21953
887.897	22036
888.021	22070
888.146	21998
888.27	22185
888.395	22040
888.519	22032
888.643	22010
888.767	22097
888.891	21926
889.015	21747
889.139	21827
889.263	21686
889.387	21960
889.511	21930
889.635	21956
889.759	21812
889.883	21759
890.006	21846
890.13	21835
890.254	21698
890.377	21690
890.501	21606
890.624	21511
890.748	21534
890.871	21469
890.995	21348
891.118	21332
891.241	21329
891.364	21386
891.488	21370
891.611	21306
891.734	21351
891.857	21405
891.98	21302
892.103	21428
892.226	21287
892.349	21291
892.471	21047
892.594	21348
892.717	21188
892.839	21256
892.962	21237
893.085	21294
893.207	21173
893.33	21055
893.452	21146
893.575	21264
893.697	21195
893.819	21344
893.941	21439
894.064	21302
894.186	21203
894.308	21138
894.43	21287
894.552	21370
894.674	21306
894.796	21070
894.918	21237
895.04	21146
895.161	21268
895.283	21173
895.405	21241
895.526	21127
895.648	21123
895.769	21298
895.891	21176
896.012	21313
896.134	21142
896.255	21249
896.376	21165
896.498	21180
896.619	21279
896.74	21157
896.861	21264
896.982	21637
897.103	21755
897.224	21488
897.345	21378
897.466	21302
897.587	21545
897.708	21420
897.828	21485
897.949	21386
898.07	21127
898.19	21450
898.311	21374
898.431	21294
898.552	21485
898.672	21408
898.792	21534
898.913	21408
899.033	21420
899.153	21180
899.273	21066
899.393	21142
899.513	21211
899.633	21180
899.753	21214
899.873	21108
899.993	21218
900.113	21116
900.232	21032
900.352	21036
900.472	21017
900.591	20902
900.711	20933
900.83	20906
900.95	20960
901.069	21013
901.189	20541
901.308	20560
901.427	20431
901.546	20492
901.665	20461
901.784	20511
901.904	20362
902.023	20161
902.141	20005
902.26	20008
902.379	20122
902.498	19902
902.617	19959
902.735	20012
902.854	19963
902.973	19894
903.091	19643
903.21	19620
903.328	19529
903.446	19548
903.565	19472
903.683	19472
903.801	19400
903.919	19312
904.038	19320
904.156	19251
904.274	19285
904.392	19110
904.51	19091
904.627	19308
904.745	19198
904.863	19225
904.981	18939
905.098	18871
905.216	18909
905.334	18916
905.451	18890
905.569	18848
905.686	18924
905.803	18795
905.921	18654
906.038	18776
906.155	18715
906.272	18494
906.389	18528
906.506	18369
906.623	18407
906.74	18475
906.857	18323
906.974	18232
907.091	18467
907.208	18532
907.324	18357
907.441	18247
907.557	18133
907.674	18144
907.79	18087
907.907	18110
908.023	18110
908.139	18064
908.256	18011
908.372	17855
908.488	18007
908.604	17885
908.72	17824
908.836	17600
908.952	17779
909.068	17836
909.184	17824
909.3	17843
909.415	17760
909.531	17665
909.647	17554
909.762	17539
909.878	17429
909.993	17497
910.108	17429
910.224	17391
910.339	17402
910.454	17440
910.57	17227
910.685	17189
910.8	17383
910.915	17414
911.03	17315
911.145	16957
911.259	17064
911.374	17143
911.489	17006
911.604	16919
911.718	16812
911.833	16820
911.947	16664
912.062	16660
912.176	16668
912.291	16843
912.405	16862
912.519	17037
912.633	17003
912.748	16900
912.862	16721
912.976	16618
913.09	16443
913.204	16538
913.318	16535
913.431	16763
913.545	16793
913.659	16653
913.772	16481
913.886	16440
914	16398
914.113	16497
914.226	16421
914.34	16443
914.453	16352
914.566	16390
914.68	16249
914.793	16105
914.906	16044
915.019	15979
915.132	15998
915.245	15934
915.358	16120
915.47	16025
915.583	15960
915.696	15975
915.809	16067
915.921	16055
916.034	15907
916.146	15865
916.259	15857
916.371	16040
916.483	15915
916.595	15838
916.708	15838
916.82	15759
916.932	15644
917.044	15694
917.156	15739
917.268	15644
917.38	15576
917.491	15485
917.603	15591
917.715	15686
917.826	15656
917.938	15603
918.049	15485
918.161	15507
918.272	15629
918.384	15641
918.495	15534
918.606	15393
918.717	15291
918.828	15332
918.939	15294
919.05	15279
919.161	15252
919.272	15123
919.383	15195
919.494	15382
919.604	15576
919.715	15386
919.826	15264
919.936	15252
920.047	15340
920.157	15332
920.267	15477
920.378	15359
920.488	15252
920.598	15367
920.708	15454
920.818	15408
920.928	15310
921.038	15526
921.148	15519
921.258	15119
921.368	15097
921.477	15074
921.587	15024
921.697	14762
921.806	14933
921.916	14899
922.025	14670
922.134	14575
922.244	14712
922.353	14663
922.462	14556
922.571	14457
922.68	14412
922.789	14229
922.898	14324
923.007	14176
923.116	14328
923.224	14229
923.333	14237
923.442	14054
923.55	14119
923.659	14084
923.767	14100
923.876	14027
923.984	14035
924.092	14012
924.201	14035
924.309	14084
924.417	14001
924.525	13925
924.633	13944
924.741	14845
924.849	13681
924.956	13807
925.064	13704
925.172	13632
925.279	13632
925.387	13662
925.494	13586
925.602	13879
925.709	13693
925.816	13544
925.924	13483
926.031	13723
926.138	13609
926.245	13609
926.352	13537
926.459	13628
926.566	13590
926.673	13590
926.779	13381
926.886	13411
926.993	13076
927.099	13206
927.206	13061
927.312	13133
927.419	13297
927.525	13137
927.631	13228
927.737	13095
927.843	12962
927.95	12833
928.056	12939
928.162	13023
928.267	13099
928.373	13590
928.479	13107
928.585	12787
928.69	12989
928.796	13027
928.901	12924
929.007	12764
929.112	12859
929.218	12821
929.323	12772
929.428	12764
929.533	12886
929.638	12745
929.743	12715
929.848	12734
929.953	12677
930.058	12547
930.163	12429
930.267	12433
930.372	12589
930.477	12346
930.581	12639
930.685	12456
930.79	12315
930.894	12384
930.998	12262
931.103	12380
931.207	12060
931.311	12007
931.415	11916
931.519	11707
931.623	11707
