Data from test_V78500241_580.txt Node
Date: Fri Mar 25 15:45:49 CST 2022
User: usil
Spectrometer: V785-0024
Trigger mode: 0
Integration Time (sec): 4.000000E-1
Scans to average: 1
Nonlinearity correction enabled: false
Boxcar width: 0
Storing dark spectrum: false
XAxis mode: Wavelengths
Number of Pixels in Spectrum: 1024
>>>>>Begin Spectral Data<<<<<
801.071	27496
801.214	27667
801.356	27378
801.499	27336
801.641	27214
801.783	27165
801.926	27184
802.068	27256
802.211	27074
802.353	27108
802.496	26785
802.638	26883
802.78	26861
802.923	26925
803.065	26765
803.208	26845
803.35	26845
803.492	26960
803.635	27146
803.777	26868
803.919	26940
804.061	27287
804.204	27005
804.346	27009
804.488	26921
804.63	27062
804.773	26925
804.915	26998
805.057	27173
805.199	26918
805.341	27077
805.483	27180
805.626	27024
805.768	26952
805.91	27036
806.052	27100
806.194	27199
806.336	27264
806.478	27135
806.62	27207
806.762	27291
806.904	27363
807.046	27656
807.188	27660
807.33	27542
807.472	27641
807.614	27439
807.756	27488
807.898	27564
808.04	27401
808.182	27466
808.324	27420
808.465	27515
808.607	27580
808.749	27785
808.891	27724
809.033	27991
809.174	27880
809.316	27755
809.458	27831
809.6	27808
809.741	27865
809.883	27903
810.025	28032
810.166	28059
810.308	28082
810.45	27991
810.591	27953
810.733	27835
810.875	27759
811.016	27625
811.158	27698
811.299	27823
811.441	28055
811.582	27907
811.724	27641
811.865	27720
812.007	27797
812.148	27724
812.29	27755
812.431	28013
812.573	28268
812.714	28173
812.855	28265
812.997	28360
813.138	28462
813.279	28390
813.421	28299
813.562	28413
813.703	28109
813.845	27987
813.986	27785
814.127	27637
814.268	27496
814.41	27466
814.551	27523
814.692	27523
814.833	27397
814.974	27386
815.115	27450
815.256	27272
815.397	27336
815.539	27336
815.68	27184
815.821	27272
815.962	27188
816.103	27249
816.244	27096
816.385	27043
816.526	27020
816.666	27009
816.807	26788
816.948	26804
817.089	26876
817.23	26788
817.371	26769
817.512	26712
817.653	26686
817.793	26689
817.934	26758
818.075	26823
818.216	26686
818.356	26579
818.497	26659
818.638	26358
818.778	26583
818.919	26575
819.06	26579
819.2	26613
819.341	26773
819.481	26792
819.622	26883
819.762	27173
819.903	26906
820.043	26887
820.184	26868
820.324	26796
820.465	26807
820.605	26727
820.746	26906
820.886	26629
821.026	26720
821.167	26891
821.307	26918
821.447	26735
821.588	26609
821.728	26484
821.868	26347
822.008	26271
822.149	26130
822.289	26073
822.429	25951
822.569	25856
822.709	25925
822.849	25761
822.99	25700
823.13	25670
823.27	25544
823.41	25521
823.55	25476
823.69	25479
823.83	25441
823.97	25483
824.11	25335
824.25	25335
824.389	25301
824.529	25476
824.669	25320
824.809	25415
824.949	25400
825.089	25548
825.228	25225
825.368	25133
825.508	25293
825.648	25316
825.787	25430
825.927	25209
826.067	25171
826.206	25179
826.346	25362
826.485	25103
826.625	25171
826.765	25346
826.904	25190
827.044	25000
827.183	24932
827.323	24913
827.462	24897
827.601	25027
827.741	24783
827.88	25012
828.02	24856
828.159	24833
828.298	24954
828.437	24867
828.577	24772
828.716	24943
828.855	24715
828.994	24661
829.134	24635
829.273	24620
829.412	24490
829.551	24570
829.69	24563
829.829	24741
829.968	24665
830.107	24582
830.246	24688
830.385	24429
830.524	24589
830.663	24353
830.802	24285
830.941	24292
831.08	24266
831.219	24300
831.357	24270
831.496	24426
831.635	24152
831.774	24216
831.913	24186
832.051	24049
832.19	23999
832.329	23992
832.467	23904
832.606	23863
832.744	23847
832.883	23939
833.022	23901
833.16	23935
833.299	23897
833.437	23843
833.576	23855
833.714	23920
833.852	23996
833.991	24060
834.129	24015
834.267	24045
834.406	24018
834.544	23999
834.682	23980
834.821	23908
834.959	24076
835.097	23958
835.235	24015
835.373	24015
835.511	23847
835.65	23836
835.788	23695
835.926	23600
836.064	23653
836.202	23596
836.34	23722
836.478	23783
836.615	23665
836.753	23790
836.891	23729
837.029	23752
837.167	23809
837.305	23722
837.443	23687
837.58	23623
837.718	23672
837.856	23684
837.993	23585
838.131	23623
838.269	23531
838.406	23486
838.544	23395
838.681	23277
838.819	23181
838.956	23079
839.094	23067
839.231	23121
839.369	23204
839.506	23539
839.643	23311
839.781	23025
839.918	23041
840.055	23094
840.193	22968
840.33	23056
840.467	23014
840.604	23162
840.742	23288
840.879	22850
841.016	22980
841.153	22930
841.29	23064
841.427	22984
841.564	23178
841.701	22976
841.838	22984
841.975	22873
842.112	22889
842.249	22778
842.385	22820
842.522	22938
842.659	22862
842.796	22759
842.933	22694
843.069	22774
843.206	22729
843.343	22733
843.479	22687
843.616	22790
843.752	22470
843.889	22580
844.025	22759
844.162	22432
844.298	22584
844.435	22519
844.571	22649
844.708	22679
844.844	22573
844.98	22634
845.117	22493
845.253	22382
845.389	22284
845.525	22382
845.661	22402
845.798	22223
845.934	22443
846.07	22268
846.206	22341
846.342	22413
846.478	22120
846.614	22067
846.75	21857
846.886	21922
847.022	21930
847.158	21968
847.294	21972
847.429	22051
847.565	21861
847.701	22249
847.837	21739
847.972	21686
848.108	21713
848.244	21812
848.379	21561
848.515	21618
848.65	21614
848.786	21599
848.921	21656
849.057	21679
849.192	21568
849.328	21526
849.463	21599
849.598	21610
849.734	21538
849.869	21439
850.004	21329
850.14	21416
850.275	21340
850.41	21249
850.545	21329
850.68	21260
850.815	21397
850.95	21393
851.085	21549
851.22	21374
851.355	21325
851.49	21431
851.625	21252
851.76	21279
851.895	21218
852.03	21306
852.165	21283
852.299	21279
852.434	21454
852.569	21298
852.703	21477
852.838	21428
852.973	21519
853.107	21420
853.242	21203
853.376	21226
853.511	21020
853.645	21127
853.78	21283
853.914	21241
854.048	21154
854.183	21211
854.317	21207
854.451	21389
854.585	21173
854.72	21146
854.854	21119
854.988	21169
855.122	21161
855.256	21017
855.39	21169
855.524	21150
855.658	21218
855.792	21214
855.926	21157
856.06	21237
856.194	21245
856.327	21074
856.461	21066
856.595	20998
856.729	21074
856.862	21237
856.996	21161
857.13	21207
857.263	21306
857.397	21321
857.53	21237
857.664	21195
857.797	21214
857.931	21268
858.064	21192
858.197	21344
858.331	21237
858.464	21169
858.597	21085
858.731	21131
858.864	21119
858.997	21051
859.13	21104
859.263	21294
859.396	21207
859.529	21157
859.662	21142
859.795	21096
859.928	21192
860.061	21428
860.194	21321
860.327	21211
860.46	21207
860.592	21344
860.725	21397
860.858	21367
860.99	21252
861.123	21142
861.256	21074
861.388	21249
861.521	21755
861.653	20963
861.786	20899
861.918	21089
862.05	21032
862.183	21119
862.315	21256
862.447	21165
862.58	21176
862.712	20891
862.844	20769
862.976	21028
863.108	21047
863.24	21283
863.372	20815
863.504	20792
863.636	20811
863.768	20933
863.9	20819
864.032	20762
864.164	20800
864.296	20857
864.428	20925
864.559	20944
864.691	20853
864.823	20918
864.954	20933
865.086	20883
865.217	20686
865.349	20651
865.48	20750
865.612	20773
865.743	20971
865.875	20750
866.006	20830
866.137	20868
866.269	20777
866.4	20781
866.531	20769
866.662	20629
866.793	20693
866.924	20716
867.055	20750
867.186	20663
867.317	20659
867.448	20579
867.579	20693
867.71	20716
867.841	20617
867.972	20701
868.103	20678
868.233	20716
868.364	20785
868.495	20823
868.625	20872
868.756	21135
868.886	20914
869.017	20975
869.147	21036
869.278	20960
869.408	21074
869.539	20899
869.669	21135
869.799	21024
869.929	21009
870.06	21089
870.19	21230
870.32	21252
870.45	21336
870.58	21321
870.71	21431
870.84	21496
870.97	21359
871.1	21401
871.23	21492
871.36	21363
871.489	21466
871.619	21496
871.749	21519
871.879	21606
872.008	21755
872.138	21583
872.267	21458
872.397	21424
872.526	21367
872.656	21389
872.785	21363
872.915	21686
873.044	21545
873.173	21606
873.303	21557
873.432	21648
873.561	21656
873.69	21595
873.819	21393
873.948	21587
874.077	21530
874.206	21618
874.335	21656
874.464	21785
874.593	21827
874.722	21743
874.851	21975
874.979	21888
875.108	21861
875.237	21732
875.365	21629
875.494	21724
875.623	21903
875.751	21789
875.88	21781
876.008	21956
876.136	22002
876.265	22230
876.393	22382
876.521	22257
876.65	22257
876.778	22158
876.906	22051
877.034	22215
877.162	22162
877.29	22150
877.418	22192
877.546	22177
877.674	22242
877.802	22154
877.93	22120
878.058	22093
878.185	22093
878.313	21979
878.441	22116
878.568	22006
878.696	22147
878.824	22257
878.951	22261
879.079	22310
879.206	22546
879.333	22333
879.461	22169
879.588	22303
879.715	22268
879.842	22474
879.97	22223
880.097	22059
880.224	21994
880.351	22017
880.478	21972
880.605	21968
880.732	21994
880.859	22238
880.986	21975
881.112	21895
881.239	21823
881.366	21720
881.493	21637
881.619	21591
881.746	21644
881.872	21641
881.999	21553
882.125	21450
882.252	21603
882.378	21519
882.505	21724
882.631	21424
882.757	21298
882.883	21279
883.01	21275
883.136	21207
883.262	21070
883.388	20986
883.514	21192
883.64	21325
883.766	21081
883.892	20990
884.018	21123
884.143	21241
884.269	21279
884.395	20864
884.52	20781
884.646	21017
884.772	20788
884.897	20819
885.023	20807
885.148	21032
885.274	20975
885.399	20986
885.524	20834
885.65	20982
885.775	20975
885.9	20933
886.025	20982
886.15	21028
886.275	20796
886.4	20834
886.525	20807
886.65	20868
886.775	20693
886.9	20906
887.025	21093
887.149	20872
887.274	20651
887.399	20689
887.523	20758
887.648	20644
887.773	20526
887.897	20716
888.021	20758
888.146	20484
888.27	20724
888.395	20971
888.519	20769
888.643	20708
888.767	20708
888.891	20667
889.015	20606
889.139	20598
889.263	20457
889.387	20590
889.511	20686
889.635	20655
889.759	20495
889.883	20556
890.006	20549
890.13	20617
890.254	20415
890.377	20423
890.501	20244
890.624	20298
890.748	20328
890.871	20157
890.995	19955
891.118	20005
891.241	20031
891.364	19909
891.488	20145
891.611	20016
891.734	20073
891.857	20119
891.98	20031
892.103	20092
892.226	20168
892.349	20035
892.471	19959
892.594	19925
892.717	20058
892.839	19967
892.962	19997
893.085	20130
893.207	19940
893.33	19852
893.452	19917
893.575	20001
893.697	19909
893.819	20195
893.941	20195
894.064	20107
894.186	19970
894.308	19845
894.43	20001
894.552	20142
894.674	20035
894.796	19925
894.918	20020
895.04	19883
895.161	20088
895.283	20043
895.405	19986
895.526	19989
895.648	20039
895.769	20145
895.891	20020
896.012	20153
896.134	20081
896.255	19989
896.376	19951
896.498	19928
896.619	19928
896.74	19890
896.861	20157
896.982	20351
897.103	20362
897.224	20225
897.345	20168
897.466	20107
897.587	20233
897.708	20298
897.828	20313
897.949	20107
898.07	20062
898.19	20199
898.311	20237
898.431	20180
898.552	20187
898.672	20366
898.792	20294
898.913	20225
899.033	20062
899.153	20001
899.273	19852
899.393	20073
899.513	20164
899.633	20050
899.753	20020
899.873	19898
899.993	19989
900.113	19944
900.232	19982
900.352	19856
900.472	19890
900.591	19658
900.711	19700
900.83	19674
900.95	19780
901.069	19894
901.189	19666
901.308	19381
901.427	19350
901.546	19297
901.665	19270
901.784	19274
901.904	19228
902.023	19221
902.141	18886
902.26	18852
902.379	18935
902.498	18924
902.617	18734
902.735	18798
902.854	18848
902.973	18745
903.091	18589
903.21	18506
903.328	18525
903.446	18414
903.565	18407
903.683	18338
903.801	18251
903.919	18277
904.038	18220
904.156	18114
904.274	18163
904.392	18015
904.51	18152
904.627	18053
904.745	18091
904.863	18163
904.981	17832
905.098	17832
905.216	17843
905.334	17710
905.451	17726
905.569	17771
905.686	17836
905.803	17687
905.921	17581
906.038	17775
906.155	17581
906.272	17425
906.389	17592
906.506	17326
906.623	17273
906.74	17368
906.857	17189
906.974	17132
907.091	17273
907.208	17429
907.324	17250
907.441	17200
907.557	16999
907.674	17083
907.79	16934
907.907	16949
908.023	17071
908.139	17056
908.256	17003
908.372	16850
908.488	16854
908.604	16752
908.72	16710
908.836	16721
908.952	16710
909.068	16786
909.184	16759
909.3	16740
909.415	16702
909.531	16816
909.647	16375
909.762	16386
909.878	16405
909.993	16561
910.108	16459
910.224	16329
910.339	16474
910.454	16367
910.57	16169
910.685	16169
910.8	16428
910.915	16352
911.03	16234
911.145	15960
911.259	16010
911.374	16063
911.489	15937
911.604	15930
911.718	15827
911.833	15804
911.947	15762
912.062	15648
912.176	15759
912.291	15724
912.405	15793
912.519	15888
912.633	15998
912.748	15873
912.862	15793
912.976	15671
913.09	15500
913.204	15580
913.318	15641
913.431	15652
913.545	15633
913.659	15690
913.772	15633
913.886	15431
914	15348
914.113	15462
914.226	15504
914.34	15447
914.453	15275
914.566	15458
914.68	15298
914.793	15272
914.906	15146
915.019	14982
915.132	14883
915.245	14960
915.358	15017
915.47	15081
915.583	15066
915.696	15005
915.809	15127
915.921	15131
916.034	14956
916.146	14876
916.259	14982
916.371	15119
916.483	14944
916.595	14823
916.708	14857
916.82	14769
916.932	14800
917.044	14895
917.156	14838
917.268	14632
917.38	14777
917.491	14644
917.603	14682
917.715	14705
917.826	14758
917.938	14663
918.049	14457
918.161	14606
918.272	14689
918.384	14724
918.495	14697
918.606	14469
918.717	14313
918.828	14526
918.939	14492
919.05	14396
919.161	14412
919.272	14229
919.383	14225
919.494	14484
919.604	14552
919.715	14438
919.826	14294
919.936	14419
920.047	14518
920.157	14374
920.267	14613
920.378	14381
920.488	14389
920.598	14636
920.708	14701
920.818	14568
920.928	14602
921.038	14663
921.148	14579
921.258	14320
921.368	14240
921.477	14168
921.587	14134
921.697	13944
921.806	14084
921.916	14058
922.025	13940
922.134	13849
922.244	13738
922.353	13795
922.462	13719
922.571	13601
922.68	13460
922.789	13426
922.898	13441
923.007	13434
923.116	13381
923.224	13335
923.333	13407
923.442	13308
923.55	13263
923.659	13282
923.767	13346
923.876	13206
923.984	13247
924.092	13168
924.201	13133
924.309	13266
924.417	13202
924.525	13152
924.633	13019
924.741	14123
924.849	12878
924.956	13004
925.064	12810
925.172	12817
925.279	12817
925.387	12878
925.494	12806
925.602	12920
925.709	12867
925.816	12764
925.924	12829
926.031	12886
926.138	12821
926.245	12791
926.352	12741
926.459	12897
926.566	12894
926.673	12719
926.779	12635
926.886	12593
926.993	12483
927.099	12429
927.206	12376
927.312	12357
927.419	12525
927.525	12342
927.631	12388
927.737	12350
927.843	12247
927.95	12243
928.056	12281
928.162	12319
928.267	12296
928.373	12856
928.479	12361
928.585	12148
928.69	12213
928.796	12258
928.901	12144
929.007	11992
929.112	12205
929.218	12148
929.323	11980
929.428	11961
929.533	12133
929.638	11882
929.743	11916
929.848	11999
929.953	11958
930.058	11741
930.163	11627
930.267	11722
930.372	11863
930.477	11535
930.581	11927
930.685	11676
930.79	11577
930.894	11573
930.998	11524
931.103	11676
931.207	11246
931.311	11220
931.415	11071
931.519	10999
931.623	10953
