Data from test_V78500241_3087.txt Node
Date: Fri Mar 25 16:03:11 CST 2022
User: usil
Spectrometer: V785-0024
Trigger mode: 0
Integration Time (sec): 4.000000E-1
Scans to average: 1
Nonlinearity correction enabled: false
Boxcar width: 0
Storing dark spectrum: false
XAxis mode: Wavelengths
Number of Pixels in Spectrum: 1024
>>>>>Begin Spectral Data<<<<<
801.071	28371
801.214	28306
801.356	28226
801.499	28029
801.641	27994
801.783	28017
801.926	28051
802.068	27983
802.211	27953
802.353	27781
802.496	27945
802.638	27728
802.78	27751
802.923	27603
803.065	27599
803.208	27724
803.35	27728
803.492	27819
803.635	27918
803.777	27831
803.919	27930
804.061	28242
804.204	28131
804.346	27979
804.488	27838
804.63	28017
804.773	27937
804.915	27937
805.057	28112
805.199	27911
805.341	28025
805.483	28067
805.626	28112
805.768	27972
805.91	27983
806.052	28226
806.194	28006
806.336	28287
806.478	28166
806.62	28044
806.762	28188
806.904	28367
807.046	28577
807.188	28596
807.33	28485
807.472	28713
807.614	28413
807.756	28561
807.898	28424
808.04	28253
808.182	28284
808.324	28360
808.465	28440
808.607	28523
808.749	28812
808.891	28828
809.033	28915
809.174	28721
809.316	28740
809.458	28755
809.6	28767
809.741	28869
809.883	28915
810.025	28885
810.166	28991
810.308	28911
810.45	28976
810.591	28984
810.733	28877
810.875	28702
811.016	28702
811.158	28607
811.299	28763
811.441	28900
811.582	28854
811.724	28759
811.865	28672
812.007	28626
812.148	28664
812.29	28862
812.431	28885
812.573	29121
812.714	29147
812.855	29181
812.997	29421
813.138	29463
813.279	29398
813.421	29208
813.562	29337
813.703	29010
813.845	29041
813.986	28733
814.127	28447
814.268	28409
814.41	28508
814.551	28413
814.692	28462
814.833	28462
814.974	28409
815.115	28382
815.256	28268
815.397	28306
815.539	28394
815.68	28291
815.821	28188
815.962	28166
816.103	28158
816.244	28131
816.385	28048
816.526	28006
816.666	27819
816.807	27861
816.948	27781
817.089	27857
817.23	27705
817.371	27918
817.512	27610
817.653	27633
817.793	27682
817.934	27789
818.075	27690
818.216	27922
818.356	27800
818.497	27603
818.638	27557
818.778	27496
818.919	27481
819.06	27755
819.2	27671
819.341	27876
819.481	27759
819.622	27812
819.762	28158
819.903	27930
820.043	27899
820.184	27937
820.324	27800
820.465	28059
820.605	27918
820.746	27842
820.886	27770
821.026	27964
821.167	27793
821.307	27770
821.447	27751
821.588	27743
821.728	27549
821.868	27355
822.008	27367
822.149	27214
822.289	27477
822.429	27077
822.569	26830
822.709	27024
822.849	26758
822.99	26815
823.13	26693
823.27	26670
823.41	26590
823.55	26438
823.69	26625
823.83	26469
823.97	26537
824.11	26305
824.25	26400
824.389	26465
824.529	26511
824.669	26434
824.809	26488
824.949	26480
825.089	26374
825.228	26294
825.368	26294
825.508	26298
825.648	26393
825.787	26355
825.927	26343
826.067	26332
826.206	26347
826.346	26298
826.485	26351
826.625	26275
826.765	26503
826.904	26355
827.044	26046
827.183	26180
827.323	25887
827.462	26107
827.601	26046
827.741	25928
827.88	25917
828.02	25913
828.159	25940
828.298	26062
828.437	26103
828.577	25921
828.716	26039
828.855	25879
828.994	25780
829.134	25704
829.273	25750
829.412	25715
829.551	25590
829.69	25761
829.829	25769
829.968	25719
830.107	25807
830.246	25643
830.385	25556
830.524	25559
830.663	25491
830.802	25346
830.941	25304
831.08	25236
831.219	25365
831.357	25346
831.496	25556
831.635	25301
831.774	25171
831.913	25198
832.051	25015
832.19	25156
832.329	25141
832.467	25004
832.606	25057
832.744	24947
832.883	24939
833.022	24783
833.16	24989
833.299	24977
833.437	24970
833.576	25137
833.714	24985
833.852	25065
833.991	25103
834.129	24943
834.267	25110
834.406	24966
834.544	25194
834.682	24977
834.821	24867
834.959	25225
835.097	25008
835.235	25061
835.373	24897
835.511	25084
835.65	25008
835.788	24920
835.926	24814
836.064	24681
836.202	24665
836.34	24821
836.478	24913
836.615	24894
836.753	24901
836.891	24935
837.029	24928
837.167	24920
837.305	24760
837.443	24795
837.58	24654
837.718	24856
837.856	24677
837.993	24608
838.131	24707
838.269	24650
838.406	24536
838.544	24540
838.681	24159
838.819	24391
838.956	24201
839.094	24178
839.231	24095
839.369	24174
839.506	24528
839.643	24361
839.781	24133
839.918	24068
840.055	24178
840.193	24163
840.33	24053
840.467	24026
840.604	24239
840.742	24285
840.879	23897
841.016	23908
841.153	23878
841.29	24083
841.427	24072
841.564	24064
841.701	24129
841.838	24098
841.975	23931
842.112	23927
842.249	23889
842.385	23843
842.522	23958
842.659	23885
842.796	23756
842.933	23847
843.069	23684
843.206	23729
843.343	23885
843.479	23775
843.616	23756
843.752	23668
843.889	23455
844.025	23668
844.162	23524
844.298	23752
844.435	23547
844.571	23718
844.708	23573
844.844	23684
844.98	23703
845.117	23695
845.253	23539
845.389	23528
845.525	23501
845.661	23417
845.798	23315
845.934	23364
846.07	23239
846.206	23311
846.342	23531
846.478	23330
846.614	23056
846.75	22892
846.886	22999
847.022	23102
847.158	23113
847.294	23067
847.429	23090
847.565	23117
847.701	23185
847.837	22675
847.972	22782
848.108	22919
848.244	22930
848.379	22630
848.515	22713
848.65	22569
848.786	22634
848.921	22641
849.057	22774
849.192	22706
849.328	22592
849.463	22691
849.598	22653
849.734	22523
849.869	22607
850.004	22394
850.14	22489
850.275	22538
850.41	22440
850.545	22211
850.68	22409
850.815	22538
850.95	22344
851.085	22626
851.22	22569
851.355	22481
851.49	22527
851.625	22322
851.76	22398
851.895	22333
852.03	22428
852.165	22538
852.299	22436
852.434	22424
852.569	22470
852.703	22421
852.838	22580
852.973	22508
853.107	22618
853.242	22318
853.376	22398
853.511	22219
853.645	22230
853.78	22295
853.914	22280
854.048	22295
854.183	22234
854.317	22344
854.451	22386
854.585	22272
854.72	22356
854.854	22337
854.988	22192
855.122	22120
855.256	22074
855.39	22268
855.524	22329
855.658	22360
855.792	22287
855.926	22276
856.06	22344
856.194	22341
856.327	22265
856.461	22185
856.595	22268
856.729	22166
856.862	22230
856.996	22379
857.13	22287
857.263	22310
857.397	22382
857.53	22173
857.664	22325
857.797	22386
857.931	22295
858.064	22352
858.197	22322
858.331	22211
858.464	22128
858.597	22173
858.731	22344
858.864	22280
858.997	22200
859.13	22310
859.263	22360
859.396	22356
859.529	22154
859.662	22268
859.795	22192
859.928	22238
860.061	22405
860.194	22577
860.327	22379
860.46	22284
860.592	22398
860.725	22413
860.858	22386
860.99	22276
861.123	22192
861.256	22268
861.388	22306
861.521	22889
861.653	22097
861.786	22135
861.918	22051
862.05	22139
862.183	22143
862.315	22230
862.447	22173
862.58	22112
862.712	21945
862.844	21998
862.976	22124
863.108	21903
863.24	22318
863.372	21895
863.504	22032
863.636	22036
863.768	22070
863.9	21907
864.032	21804
864.164	21816
864.296	22051
864.428	22074
864.559	22006
864.691	22116
864.823	21964
864.954	21949
865.086	22048
865.217	21831
865.349	21854
865.48	21816
865.612	21713
865.743	22036
865.875	21941
866.006	21918
866.137	21838
866.269	21854
866.4	21911
866.531	21793
866.662	21625
866.793	21819
866.924	21755
867.055	21808
867.186	21713
867.317	21701
867.448	21622
867.579	21675
867.71	21671
867.841	21599
867.972	21838
868.103	21747
868.233	21732
868.364	21823
868.495	21880
868.625	22048
868.756	22070
868.886	22029
869.017	21945
869.147	22070
869.278	22109
869.408	22135
869.539	22059
869.669	22082
869.799	22006
869.929	22116
870.06	22166
870.19	22314
870.32	22325
870.45	22287
870.58	22398
870.71	22512
870.84	22497
870.97	22295
871.1	22409
871.23	22603
871.36	22550
871.489	22485
871.619	22546
871.749	22565
871.879	22687
872.008	22664
872.138	22713
872.267	22592
872.397	22455
872.526	22462
872.656	22436
872.785	22367
872.915	22721
873.044	22653
873.173	22656
873.303	22672
873.432	22656
873.561	22698
873.69	22637
873.819	22721
873.948	22717
874.077	22637
874.206	22748
874.335	22622
874.464	22672
874.593	22862
874.722	22786
874.851	22896
874.979	22873
875.108	22911
875.237	22801
875.365	22645
875.494	22877
875.623	22987
875.751	22816
875.88	22923
876.008	23014
876.136	23044
876.265	23292
876.393	23280
876.521	23231
876.65	23220
876.778	23296
876.906	23162
877.034	23189
877.162	23273
877.29	23288
877.418	23197
877.546	23162
877.674	23132
877.802	23216
877.93	23200
878.058	23212
878.185	23018
878.313	23216
878.441	23250
878.568	22957
878.696	23159
878.824	23254
878.951	23200
879.079	23334
879.206	23482
879.333	23436
879.461	23258
879.588	23273
879.715	23372
879.842	23493
879.97	23216
880.097	23048
880.224	23075
880.351	23022
880.478	23018
880.605	22953
880.732	23075
880.859	23212
880.986	23033
881.112	22980
881.239	22755
881.366	22675
881.493	22603
881.619	22607
881.746	22577
881.872	22493
881.999	22565
882.125	22538
882.252	22584
882.378	22531
882.505	22641
882.631	22344
882.757	22341
882.883	22455
883.01	22287
883.136	22299
883.262	22109
883.388	22166
883.514	22154
883.64	22265
883.766	22147
883.892	21918
884.018	22093
884.143	22204
884.269	22223
884.395	21953
884.52	21918
884.646	21823
884.772	21831
884.897	21739
885.023	21804
885.148	22017
885.274	22109
885.399	22029
885.524	21835
885.65	21781
885.775	21804
885.9	21789
886.025	21907
886.15	21998
886.275	21781
886.4	21660
886.525	21819
886.65	21831
886.775	21728
886.9	21945
887.025	22055
887.149	21781
887.274	21637
887.399	21534
887.523	21648
887.648	21675
887.773	21443
887.897	21766
888.021	21652
888.146	21603
888.27	21637
888.395	21648
888.519	21755
888.643	21622
888.767	21732
888.891	21656
889.015	21420
889.139	21507
889.263	21504
889.387	21561
889.511	21595
889.635	21504
889.759	21359
889.883	21370
890.006	21447
890.13	21515
890.254	21378
890.377	21435
890.501	21199
890.624	21089
890.748	21192
890.871	21138
890.995	21085
891.118	20880
891.241	21100
891.364	21051
891.488	21169
891.611	20948
891.734	20941
891.857	21024
891.98	21116
892.103	21047
892.226	20921
892.349	20960
892.471	20842
892.594	20937
892.717	20967
892.839	20906
892.962	20887
893.085	20941
893.207	20811
893.33	20781
893.452	20773
893.575	21013
893.697	20777
893.819	20944
893.941	21085
894.064	20998
894.186	20834
894.308	20765
894.43	20914
894.552	20948
894.674	20891
894.796	20731
894.918	20762
895.04	20720
895.161	20929
895.283	20937
895.405	20857
895.526	20887
895.648	20906
895.769	20762
895.891	21096
896.012	21032
896.134	20899
896.255	20887
896.376	20781
896.498	20830
896.619	20906
896.74	20762
896.861	20937
896.982	21127
897.103	21374
897.224	21161
897.345	20971
897.466	21024
897.587	21055
897.708	21169
897.828	21062
897.949	21009
898.07	20925
898.19	21051
898.311	21138
898.431	21055
898.552	21001
898.672	21085
898.792	21207
898.913	21028
899.033	20872
899.153	20758
899.273	20804
899.393	20765
899.513	20887
899.633	20857
899.753	20956
899.873	20785
899.993	20941
900.113	20765
900.232	20819
900.352	20686
900.472	20613
900.591	20579
900.711	20590
900.83	20541
900.95	20598
901.069	20625
901.189	20473
901.308	20206
901.427	20103
901.546	20199
901.665	20282
901.784	20119
901.904	20111
902.023	19887
902.141	19753
902.26	19715
902.379	19655
902.498	19586
902.617	19567
902.735	19685
902.854	19540
902.973	19525
903.091	19354
903.21	19270
903.328	19365
903.446	19217
903.565	19015
903.683	19080
903.801	19080
903.919	19061
904.038	19107
904.156	18909
904.274	18867
904.392	18871
904.51	18844
904.627	18829
904.745	18920
904.863	18837
904.981	18627
905.098	18525
905.216	18475
905.334	18582
905.451	18555
905.569	18525
905.686	18506
905.803	18521
905.921	18327
906.038	18551
906.155	18414
906.272	18072
906.389	18308
906.506	17999
906.623	18057
906.74	18064
906.857	17973
906.974	18034
907.091	18155
907.208	18308
907.324	18079
907.441	17969
907.557	17802
907.674	17783
907.79	17630
907.907	17741
908.023	17710
908.139	17817
908.256	17619
908.372	17649
908.488	17718
908.604	17657
908.72	17535
908.836	17478
908.952	17421
909.068	17516
909.184	17661
909.3	17429
909.415	17596
909.531	17528
909.647	17216
909.762	17235
909.878	17166
909.993	17288
910.108	17200
910.224	17185
910.339	17022
910.454	17117
910.57	17003
910.685	16957
910.8	17307
910.915	17128
911.03	16980
911.145	16839
911.259	16805
911.374	16816
911.489	16702
911.604	16630
911.718	16360
911.833	16478
911.947	16398
912.062	16371
912.176	16550
912.291	16459
912.405	16428
912.519	16748
912.633	16660
912.748	16626
912.862	16558
912.976	16367
913.09	16280
913.204	16306
913.318	16253
913.431	16417
913.545	16375
913.659	16443
913.772	16318
913.886	16166
914	16097
914.113	16253
914.226	16261
914.34	16215
914.453	16025
914.566	15979
914.68	15994
914.793	16025
914.906	15800
915.019	15728
915.132	15637
915.245	15660
915.358	15736
915.47	15831
915.583	15781
915.696	15698
915.809	15759
915.921	15774
916.034	15705
916.146	15622
916.259	15584
916.371	15698
916.483	15633
916.595	15576
916.708	15515
916.82	15458
916.932	15507
917.044	15557
917.156	15519
917.268	15272
917.38	15336
917.491	15332
917.603	15310
917.715	15412
917.826	15412
917.938	15142
918.049	15211
918.161	15279
918.272	15363
918.384	15382
918.495	15291
918.606	15138
918.717	15043
918.828	15081
918.939	15077
919.05	15028
919.161	15055
919.272	14819
919.383	14948
919.494	15055
919.604	15291
919.715	15074
919.826	14967
919.936	14944
920.047	15070
920.157	15017
920.267	15165
920.378	15184
920.488	14941
920.598	15218
920.708	15332
920.818	15142
920.928	15108
921.038	15264
921.148	15260
921.258	14975
921.368	14960
921.477	14823
921.587	14765
921.697	14697
921.806	14636
921.916	14610
922.025	14400
922.134	14465
922.244	14355
922.353	14389
922.462	14221
922.571	14142
922.68	14058
922.789	14069
922.898	14058
923.007	13993
923.116	14073
923.224	14001
923.333	13963
923.442	13925
923.55	13833
923.659	13852
923.767	14001
923.876	13841
923.984	13932
924.092	13757
924.201	13837
924.309	13795
924.417	13715
924.525	13757
924.633	13715
924.741	14385
924.849	13476
924.956	13590
925.064	13453
925.172	13400
925.279	13430
925.387	13468
925.494	13441
925.602	13594
925.709	13491
925.816	13274
925.924	13392
926.031	13411
926.138	13343
926.245	13369
926.352	13213
926.459	13308
926.566	13506
926.673	13221
926.779	13194
926.886	13179
926.993	13004
927.099	13004
927.206	12958
927.312	12886
927.419	13038
927.525	12901
927.631	12981
927.737	12863
927.843	12837
927.95	12681
928.056	12852
928.162	12878
928.267	12814
928.373	13438
928.479	12863
928.585	12597
928.69	12760
928.796	12768
928.901	12707
929.007	12563
929.112	12677
929.218	12620
929.323	12532
929.428	12464
929.533	12650
929.638	12517
929.743	12407
929.848	12452
929.953	12407
930.058	12323
930.163	12205
930.267	12144
930.372	12277
930.477	12106
930.581	12289
930.685	12209
930.79	12121
930.894	12060
930.998	12011
931.103	12190
931.207	11722
931.311	11760
931.415	11596
931.519	11444
931.623	11345
