Data from test_V78500241_3492.txt Node
Date: Fri Mar 25 16:05:59 CST 2022
User: usil
Spectrometer: V785-0024
Trigger mode: 0
Integration Time (sec): 4.000000E-1
Scans to average: 1
Nonlinearity correction enabled: false
Boxcar width: 0
Storing dark spectrum: false
XAxis mode: Wavelengths
Number of Pixels in Spectrum: 1024
>>>>>Begin Spectral Data<<<<<
801.071	28900
801.214	28850
801.356	28592
801.499	28599
801.641	28489
801.783	28485
801.926	28470
802.068	28405
802.211	28325
802.353	28478
802.496	28299
802.638	28158
802.78	28135
802.923	28116
803.065	28128
803.208	28150
803.35	28295
803.492	28356
803.635	28432
803.777	28447
803.919	28440
804.061	28862
804.204	28451
804.346	28306
804.488	28386
804.63	28337
804.773	28375
804.915	28478
805.057	28618
805.199	28455
805.341	28527
805.483	28634
805.626	28630
805.768	28474
805.91	28592
806.052	28653
806.194	28622
806.336	28866
806.478	28641
806.62	28542
806.762	28790
806.904	28934
807.046	29193
807.188	29170
807.33	29014
807.472	29151
807.614	29079
807.756	29048
807.898	28911
808.04	28862
808.182	28927
808.324	29064
808.465	29189
808.607	29162
808.749	29448
808.891	29353
809.033	29554
809.174	29288
809.316	29235
809.458	29299
809.6	29296
809.741	29425
809.883	29467
810.025	29615
810.166	29627
810.308	29653
810.45	29661
810.591	29398
810.733	29356
810.875	29436
811.016	29429
811.158	29375
811.299	29448
811.441	29509
811.582	29665
811.724	29299
811.865	29387
812.007	29345
812.148	29322
812.29	29421
812.431	29387
812.573	29767
812.714	29649
812.855	29866
812.997	29996
813.138	30068
813.279	29999
813.421	29817
813.562	29802
813.703	29630
813.845	29543
813.986	29387
814.127	29132
814.268	28991
814.41	29079
814.551	29071
814.692	29143
814.833	28949
814.974	29071
815.115	29174
815.256	29006
815.397	28972
815.539	29117
815.68	28915
815.821	28915
815.962	28805
816.103	28683
816.244	28763
816.385	28603
816.526	28790
816.666	28504
816.807	28413
816.948	28413
817.089	28592
817.23	28367
817.371	28440
817.512	28424
817.653	28398
817.793	28310
817.934	28367
818.075	28322
818.216	28459
818.356	28310
818.497	28337
818.638	28162
818.778	28067
818.919	28185
819.06	28333
819.2	28238
819.341	28428
819.481	28424
819.622	28569
819.762	28717
819.903	28622
820.043	28611
820.184	28569
820.324	28577
820.465	28573
820.605	28470
820.746	28470
820.886	28306
821.026	28504
821.167	28527
821.307	28656
821.447	28523
821.588	28272
821.728	28249
821.868	27998
822.008	27991
822.149	27846
822.289	27850
822.429	27648
822.569	27587
822.709	27591
822.849	27447
822.99	27431
823.13	27389
823.27	27374
823.41	27252
823.55	27131
823.69	27241
823.83	27317
823.97	27214
824.11	27074
824.25	27062
824.389	26975
824.529	27123
824.669	27036
824.809	27165
824.949	27127
825.089	27146
825.228	27150
825.368	26845
825.508	26906
825.648	26842
825.787	26960
825.927	26910
826.067	27017
826.206	26956
826.346	26952
826.485	26887
826.625	27009
826.765	27165
826.904	27005
827.044	26754
827.183	26800
827.323	26800
827.462	26830
827.601	26727
827.741	26644
827.88	26648
828.02	26583
828.159	26655
828.298	26678
828.437	26705
828.577	26602
828.716	26724
828.855	26533
828.994	26377
829.134	26271
829.273	26328
829.412	26290
829.551	26389
829.69	26404
829.829	26298
829.968	26511
830.107	26419
830.246	26415
830.385	26480
830.524	26180
830.663	26218
830.802	26058
830.941	25906
831.08	25928
831.219	25944
831.357	26077
831.496	26263
831.635	25959
831.774	25917
831.913	25674
832.051	25788
832.19	25742
832.329	25670
832.467	25734
832.606	25624
832.744	25514
832.883	25624
833.022	25559
833.16	25594
833.299	25559
833.437	25738
833.576	25624
833.714	25693
833.852	25799
833.991	25803
834.129	25818
834.267	25757
834.406	25613
834.544	25712
834.682	25753
834.821	25616
834.959	25841
835.097	25597
835.235	25753
835.373	25613
835.511	25689
835.65	25415
835.788	25605
835.926	25381
836.064	25335
836.202	25468
836.34	25544
836.478	25559
836.615	25544
836.753	25354
836.891	25529
837.029	25563
837.167	25445
837.305	25518
837.443	25396
837.58	25285
837.718	25183
837.856	25430
837.993	25179
838.131	25217
838.269	25156
838.406	25236
838.544	25198
838.681	24954
838.819	25015
838.956	24798
839.094	24890
839.231	24753
839.369	25012
839.506	25198
839.643	25057
839.781	24886
839.918	24582
840.055	24840
840.193	24738
840.33	24635
840.467	24711
840.604	24696
840.742	25000
840.879	24582
841.016	24703
841.153	24684
841.29	24749
841.427	24738
841.564	24684
841.701	24669
841.838	24642
841.975	24490
842.112	24582
842.249	24540
842.385	24532
842.522	24635
842.659	24574
842.796	24452
842.933	24391
843.069	24369
843.206	24372
843.343	24494
843.479	24452
843.616	24361
843.752	24277
843.889	24178
844.025	24380
844.162	24323
844.298	24285
844.435	24194
844.571	24232
844.708	24220
844.844	24376
844.98	24330
845.117	24216
845.253	24224
845.389	24140
845.525	24201
845.661	24018
845.798	23954
845.934	23958
846.07	23939
846.206	23973
846.342	24034
846.478	23920
846.614	23798
846.75	23661
846.886	23596
847.022	23813
847.158	23733
847.294	23786
847.429	23695
847.565	23817
847.701	23870
847.837	23448
847.972	23326
848.108	23531
848.244	23543
848.379	23246
848.515	23269
848.65	23200
848.786	23292
848.921	23280
849.057	23391
849.192	23406
849.328	23200
849.463	23204
849.598	23189
849.734	23067
849.869	23033
850.004	22972
850.14	23060
850.275	23029
850.41	23018
850.545	23075
850.68	22930
850.815	23037
850.95	23052
851.085	23387
851.22	23280
851.355	23018
851.49	23025
851.625	23022
851.76	23064
851.895	23006
852.03	22892
852.165	23037
852.299	23143
852.434	23128
852.569	23056
852.703	23041
852.838	23147
852.973	23098
853.107	23143
853.242	22930
853.376	22885
853.511	22755
853.645	22820
853.78	23048
853.914	22824
854.048	22968
854.183	22896
854.317	22816
854.451	23121
854.585	22839
854.72	22858
854.854	23056
854.988	22835
855.122	22957
855.256	22717
855.39	22831
855.524	22976
855.658	22984
855.792	23075
855.926	22869
856.06	22927
856.194	22919
856.327	22702
856.461	22854
856.595	22748
856.729	22828
856.862	22908
856.996	22896
857.13	22938
857.263	23022
857.397	22927
857.53	22767
857.664	22873
857.797	23029
857.931	22976
858.064	22915
858.197	23010
858.331	22759
858.464	22725
858.597	22763
858.731	22881
858.864	22759
858.997	22679
859.13	22911
859.263	22869
859.396	22892
859.529	22801
859.662	22858
859.795	22801
859.928	22881
860.061	23014
860.194	23003
860.327	22869
860.46	22930
860.592	22946
860.725	23090
860.858	23109
860.99	22793
861.123	22698
861.256	22736
861.388	22942
861.521	23452
861.653	22752
861.786	22561
861.918	22740
862.05	22622
862.183	22763
862.315	22881
862.447	22885
862.58	22694
862.712	22729
862.844	22596
862.976	22504
863.108	22584
863.24	23048
863.372	22538
863.504	22675
863.636	22360
863.768	22493
863.9	22519
864.032	22500
864.164	22474
864.296	22485
864.428	22786
864.559	22694
864.691	22557
864.823	22687
864.954	22611
865.086	22504
865.217	22527
865.349	22356
865.48	22504
865.612	22508
865.743	22546
865.875	22569
866.006	22379
866.137	22459
866.269	22443
866.4	22348
866.531	22417
866.662	22352
866.793	22306
866.924	22451
867.055	22371
867.186	22318
867.317	22348
867.448	22280
867.579	22394
867.71	22249
867.841	22188
867.972	22322
868.103	22257
868.233	22428
868.364	22352
868.495	22451
868.625	22554
868.756	22691
868.886	22584
869.017	22592
869.147	22687
869.278	22630
869.408	22462
869.539	22656
869.669	22733
869.799	22542
869.929	22706
870.06	22713
870.19	22930
870.32	22873
870.45	22961
870.58	22896
870.71	23155
870.84	23083
870.97	23067
871.1	22953
871.23	23136
871.36	23140
871.489	23143
871.619	23227
871.749	23143
871.879	23155
872.008	23242
872.138	23292
872.267	23143
872.397	23083
872.526	23025
872.656	23033
872.785	23018
872.915	23197
873.044	23235
873.173	23387
873.303	23166
873.432	23265
873.561	23402
873.69	23197
873.819	23235
873.948	23174
874.077	23235
874.206	23075
874.335	23185
874.464	23254
874.593	23296
874.722	23368
874.851	23566
874.979	23486
875.108	23452
875.237	23406
875.365	23318
875.494	23398
875.623	23478
875.751	23379
875.88	23379
876.008	23490
876.136	23649
876.265	23870
876.393	23977
876.521	23874
876.65	23908
876.778	23737
876.906	23714
877.034	23707
877.162	23729
877.29	23752
877.418	23802
877.546	23722
877.674	23676
877.802	23714
877.93	23699
878.058	23737
878.185	23543
878.313	23889
878.441	23619
878.568	23577
878.696	23726
878.824	23893
878.951	23767
879.079	23923
879.206	23958
879.333	23920
879.461	23859
879.588	23790
879.715	23939
879.842	24045
879.97	23843
880.097	23577
880.224	23672
880.351	23589
880.478	23531
880.605	23490
880.732	23596
880.859	23809
880.986	23653
881.112	23482
881.239	23478
881.366	23364
881.493	23227
881.619	23193
881.746	23193
881.872	23265
881.999	23121
882.125	23109
882.252	23212
882.378	23102
882.505	23178
882.631	23022
882.757	22877
882.883	23022
883.01	22824
883.136	22759
883.262	22801
883.388	22740
883.514	22934
883.64	22721
883.766	22664
883.892	22626
884.018	22546
884.143	22744
884.269	22774
884.395	22535
884.52	22424
884.646	22504
884.772	22523
884.897	22306
885.023	22447
885.148	22516
885.274	22519
885.399	22611
885.524	22390
885.65	22527
885.775	22390
885.9	22325
886.025	22516
886.15	22588
886.275	22493
886.4	22268
886.525	22322
886.65	22421
886.775	22257
886.9	22550
887.025	22516
887.149	22405
887.274	22223
887.399	22200
887.523	22306
887.648	22063
887.773	22116
887.897	22341
888.021	22204
888.146	22150
888.27	22329
888.395	22344
888.519	22158
888.643	22257
888.767	22265
888.891	22188
889.015	22074
889.139	22067
889.263	21998
889.387	22074
889.511	22192
889.635	22139
889.759	22010
889.883	22124
890.006	22124
890.13	22029
890.254	21937
890.377	21865
890.501	21724
890.624	21759
890.748	21762
890.871	21671
890.995	21679
891.118	21477
891.241	21496
891.364	21496
891.488	21667
891.611	21656
891.734	21545
891.857	21580
891.98	21534
892.103	21526
892.226	21614
892.349	21424
892.471	21302
892.594	21473
892.717	21386
892.839	21401
892.962	21408
893.085	21431
893.207	21382
893.33	21378
893.452	21218
893.575	21458
893.697	21424
893.819	21534
893.941	21557
894.064	21519
894.186	21416
894.308	21351
894.43	21526
894.552	21530
894.674	21504
894.796	21222
894.918	21363
895.04	21378
895.161	21412
895.283	21393
895.405	21367
895.526	21374
895.648	21359
895.769	21348
895.891	21473
896.012	21466
896.134	21340
896.255	21496
896.376	21294
896.498	21424
896.619	21355
896.74	21332
896.861	21363
896.982	21759
897.103	21686
897.224	21606
897.345	21610
897.466	21519
897.587	21549
897.708	21625
897.828	21599
897.949	21530
898.07	21317
898.19	21473
898.311	21682
898.431	21313
898.552	21614
898.672	21660
898.792	21633
898.913	21572
899.033	21439
899.153	21386
899.273	21291
899.393	21260
899.513	21310
899.633	21370
899.753	21359
899.873	21161
899.993	21184
900.113	21211
900.232	21203
900.352	21233
900.472	21135
900.591	21077
900.711	21020
900.83	20944
900.95	21131
901.069	21081
901.189	21093
901.308	20800
901.427	20674
901.546	20674
901.665	20625
901.784	20785
901.904	20564
902.023	20385
902.141	20172
902.26	20161
902.379	20317
902.498	20111
902.617	20103
902.735	20210
902.854	20058
902.973	20092
903.091	19890
903.21	19841
903.328	19723
903.446	19731
903.565	19655
903.683	19605
903.801	19426
903.919	19563
904.038	19571
904.156	19411
904.274	19400
904.392	19365
904.51	19202
904.627	19358
904.745	19514
904.863	19400
904.981	19156
905.098	19053
905.216	18932
905.334	18954
905.451	19076
905.569	18894
905.686	19072
905.803	18954
905.921	18802
906.038	18848
906.155	18806
906.272	18661
906.389	18779
906.506	18570
906.623	18498
906.74	18513
906.857	18330
906.974	18410
907.091	18654
907.208	18711
907.324	18506
907.441	18388
907.557	18346
907.674	18152
907.79	18163
907.907	18182
908.023	18323
908.139	18194
908.256	18163
908.372	18057
908.488	18079
908.604	17988
908.72	17996
908.836	17954
908.952	17912
909.068	17904
909.184	18041
909.3	17908
909.415	17935
909.531	17992
909.647	17657
909.762	17642
909.878	17668
909.993	17581
910.108	17634
910.224	17436
910.339	17592
910.454	17497
910.57	17452
910.685	17398
910.8	17661
910.915	17490
911.03	17417
911.145	17345
911.259	17231
911.374	17284
911.489	17067
911.604	16957
911.718	16965
911.833	17003
911.947	16919
912.062	16835
912.176	16968
912.291	16991
912.405	16911
912.519	17090
912.633	17124
912.748	17003
912.862	16961
912.976	16801
913.09	16710
913.204	16793
913.318	16721
913.431	16892
913.545	16790
913.659	16869
913.772	16725
913.886	16584
914	16592
914.113	16580
914.226	16721
914.34	16603
914.453	16459
914.566	16546
914.68	16413
914.793	16386
914.906	16272
915.019	16067
915.132	16067
915.245	16097
915.358	16162
915.47	16120
915.583	16116
915.696	16177
915.809	16219
915.921	16181
916.034	16013
916.146	15956
916.259	15918
916.371	16086
916.483	15945
916.595	15907
916.708	15972
916.82	15861
916.932	15873
917.044	15873
917.156	15804
917.268	15793
917.38	15694
917.491	15739
917.603	15755
917.715	15789
917.826	15781
917.938	15622
918.049	15652
918.161	15652
918.272	15743
918.384	15682
918.495	15660
918.606	15492
918.717	15462
918.828	15519
918.939	15408
919.05	15359
919.161	15389
919.272	15173
919.383	15294
919.494	15481
919.604	15625
919.715	15450
919.826	15264
919.936	15397
920.047	15519
920.157	15325
920.267	15682
920.378	15454
920.488	15393
920.598	15633
920.708	15660
920.818	15511
920.928	15648
921.038	15656
921.148	15652
921.258	15336
921.368	15207
921.477	15188
921.587	15138
921.697	15020
921.806	15161
921.916	14944
922.025	14807
922.134	14765
922.244	14743
922.353	14804
922.462	14613
922.571	14621
922.68	14476
922.789	14469
922.898	14412
923.007	14412
923.116	14469
923.224	14362
923.333	14317
923.442	14138
923.55	14187
923.659	14218
923.767	14210
923.876	14157
923.984	14229
924.092	14016
924.201	14084
924.309	14142
924.417	14107
924.525	14035
924.633	14027
924.741	14823
924.849	13913
924.956	14039
925.064	13791
925.172	13772
925.279	13856
925.387	13772
925.494	13776
925.602	13780
925.709	13704
925.816	13666
925.924	13715
926.031	13757
926.138	13700
926.245	13693
926.352	13605
926.459	13734
926.566	13738
926.673	13586
926.779	13578
926.886	13582
926.993	13377
927.099	13240
927.206	13297
927.312	13206
927.419	13312
927.525	13320
927.631	13293
927.737	13190
927.843	13110
927.95	12989
928.056	13027
928.162	13088
928.267	13137
928.373	13742
928.479	13133
928.585	12932
928.69	13015
928.796	13118
928.901	13015
929.007	12852
929.112	12935
929.218	12897
929.323	12844
929.428	12886
929.533	12890
929.638	12715
929.743	12749
929.848	12848
929.953	12738
930.058	12597
930.163	12574
930.267	12502
930.372	12578
930.477	12418
930.581	12662
930.685	12445
930.79	12357
930.894	12418
930.998	12308
931.103	12414
931.207	12121
931.311	12030
931.415	11836
931.519	11699
931.623	11760
