Data from test_V78500241_2843.txt Node
Date: Fri Mar 25 16:01:29 CST 2022
User: usil
Spectrometer: V785-0024
Trigger mode: 0
Integration Time (sec): 4.000000E-1
Scans to average: 1
Nonlinearity correction enabled: false
Boxcar width: 0
Storing dark spectrum: false
XAxis mode: Wavelengths
Number of Pixels in Spectrum: 1024
>>>>>Begin Spectral Data<<<<<
801.071	29315
801.214	29181
801.356	28930
801.499	28919
801.641	28653
801.783	28892
801.926	28869
802.068	28729
802.211	28793
802.353	28713
802.496	28554
802.638	28493
802.78	28478
802.923	28401
803.065	28462
803.208	28466
803.35	28603
803.492	28801
803.635	28835
803.777	28523
803.919	28729
804.061	28968
804.204	28729
804.346	28702
804.488	28668
804.63	28523
804.773	28611
804.915	28672
805.057	28896
805.199	28869
805.341	28934
805.483	28767
805.626	28850
805.768	28858
805.91	29075
806.052	28999
806.194	28835
806.336	29185
806.478	28976
806.62	28953
806.762	29029
806.904	29151
807.046	29444
807.188	29330
807.33	29356
807.472	29414
807.614	29326
807.756	29395
807.898	29235
808.04	29113
808.182	29299
808.324	29395
808.465	29341
808.607	29501
808.749	29520
808.891	29615
809.033	29627
809.174	29718
809.316	29638
809.458	29710
809.6	29623
809.741	29802
809.883	29592
810.025	29931
810.166	29847
810.308	30026
810.45	29977
810.591	29832
810.733	29627
810.875	29604
811.016	29577
811.158	29570
811.299	29771
811.441	29809
811.582	29878
811.724	29809
811.865	29707
812.007	29642
812.148	29642
812.29	29638
812.431	29916
812.573	30026
812.714	30270
812.855	30133
812.997	30182
813.138	30349
813.279	30395
813.421	30167
813.562	30121
813.703	29961
813.845	29912
813.986	29604
814.127	29421
814.268	29360
814.41	29414
814.551	29444
814.692	29539
814.833	29208
814.974	29345
815.115	29417
815.256	29239
815.397	29269
815.539	29140
815.68	29197
815.821	29204
815.962	29292
816.103	29109
816.244	28934
816.385	28999
816.526	29033
816.666	28816
816.807	28797
816.948	28763
817.089	28778
817.23	28698
817.371	28755
817.512	28668
817.653	28626
817.793	28645
817.934	28733
818.075	28698
818.216	28828
818.356	28664
818.497	28592
818.638	28284
818.778	28421
818.919	28440
819.06	28535
819.2	28565
819.341	28694
819.481	28675
819.622	29014
819.762	29071
819.903	29041
820.043	28965
820.184	28881
820.324	28847
820.465	28923
820.605	28850
820.746	28881
820.886	28767
821.026	28786
821.167	28782
821.307	28949
821.447	28755
821.588	28698
821.728	28398
821.868	28375
822.008	28280
822.149	28173
822.289	28219
822.429	27934
822.569	27812
822.709	27922
822.849	27720
822.99	27679
823.13	27694
823.27	27762
823.41	27614
823.55	27382
823.69	27545
823.83	27606
823.97	27572
824.11	27370
824.25	27386
824.389	27275
824.529	27485
824.669	27336
824.809	27618
824.949	27500
825.089	27443
825.228	27393
825.368	27264
825.508	27370
825.648	27279
825.787	27207
825.927	27351
826.067	27272
826.206	27211
826.346	27302
826.485	27317
826.625	27169
826.765	27382
826.904	27389
827.044	27009
827.183	27112
827.323	26994
827.462	27066
827.601	26986
827.741	26998
827.88	26975
828.02	26899
828.159	26963
828.298	27108
828.437	27020
828.577	27039
828.716	27005
828.855	26940
828.994	26773
829.134	26564
829.273	26781
829.412	26564
829.551	26556
829.69	26705
829.829	26594
829.968	26727
830.107	26701
830.246	26655
830.385	26648
830.524	26640
830.663	26511
830.802	26355
830.941	26298
831.08	26267
831.219	26358
831.357	26336
831.496	26503
831.635	26240
831.774	26263
831.913	26122
832.051	25932
832.19	26111
832.329	26016
832.467	25997
832.606	25852
832.744	25898
832.883	25887
833.022	25955
833.16	25986
833.299	25963
833.437	26020
833.576	26050
833.714	25909
833.852	26054
833.991	26092
834.129	26054
834.267	26050
834.406	26161
834.544	26039
834.682	26069
834.821	25849
834.959	26054
835.097	25955
835.235	25921
835.373	25978
835.511	25928
835.65	25894
835.788	25833
835.926	25670
836.064	25647
836.202	25761
836.34	25746
836.478	25944
836.615	25769
836.753	25845
836.891	25841
837.029	25864
837.167	25795
837.305	25693
837.443	25613
837.58	25685
837.718	25658
837.856	25685
837.993	25643
838.131	25635
838.269	25449
838.406	25605
838.544	25499
838.681	25217
838.819	25324
838.956	25213
839.094	25129
839.231	25000
839.369	25377
839.506	25510
839.643	25297
839.781	25114
839.918	24924
840.055	25072
840.193	25099
840.33	25046
840.467	25023
840.604	25042
840.742	25289
840.879	24909
841.016	24951
841.153	24894
841.29	25110
841.427	24920
841.564	25110
841.701	25027
841.838	24878
841.975	24844
842.112	24920
842.249	24768
842.385	24738
842.522	24932
842.659	24894
842.796	24776
842.933	24848
843.069	24741
843.206	24616
843.343	24703
843.479	24719
843.616	24776
843.752	24623
843.889	24612
844.025	24700
844.162	24505
844.298	24612
844.435	24544
844.571	24464
844.708	24669
844.844	24715
844.98	24536
845.117	24658
845.253	24429
845.389	24391
845.525	24422
845.661	24437
845.798	24258
845.934	24388
846.07	24155
846.206	24315
846.342	24350
846.478	24144
846.614	24083
846.75	23866
846.886	23927
847.022	23999
847.158	23923
847.294	24003
847.429	23988
847.565	23931
847.701	24190
847.837	23665
847.972	23687
848.108	23760
848.244	23794
848.379	23531
848.515	23520
848.65	23505
848.786	23551
848.921	23642
849.057	23699
849.192	23596
849.328	23634
849.463	23425
849.598	23471
849.734	23429
849.869	23364
850.004	23288
850.14	23334
850.275	23231
850.41	23254
850.545	23296
850.68	23277
850.815	23345
850.95	23258
851.085	23585
851.22	23311
851.355	23356
851.49	23402
851.625	23277
851.76	23318
851.895	23280
852.03	23136
852.165	23372
852.299	23231
852.434	23383
852.569	23387
852.703	23353
852.838	23543
852.973	23452
853.107	23429
853.242	23318
853.376	23064
853.511	23041
853.645	23098
853.78	23223
853.914	23151
854.048	23052
854.183	23098
854.317	23242
854.451	23387
854.585	23090
854.72	23193
854.854	23105
854.988	23037
855.122	23048
855.256	23083
855.39	23083
855.524	23265
855.658	23185
855.792	23231
855.926	23079
856.06	23231
856.194	23185
856.327	23193
856.461	23098
856.595	23094
856.729	23147
856.862	23258
856.996	23060
857.13	23223
857.263	23318
857.397	23307
857.53	23136
857.664	23200
857.797	23239
857.931	23307
858.064	23143
858.197	23204
858.331	23223
858.464	23064
858.597	23113
858.731	23162
858.864	23041
858.997	23064
859.13	22987
859.263	23132
859.396	23166
859.529	23090
859.662	23105
859.795	23029
859.928	23159
860.061	23239
860.194	23341
860.327	23299
860.46	23212
860.592	23280
860.725	23368
860.858	23303
860.99	23220
861.123	23075
861.256	23075
861.388	22991
861.521	23805
861.653	22987
861.786	22877
861.918	22942
862.05	22999
862.183	22995
862.315	23075
862.447	23094
862.58	23003
862.712	22801
862.844	22809
862.976	22927
863.108	22934
863.24	23113
863.372	22782
863.504	22801
863.636	22889
863.768	22767
863.9	22847
864.032	22831
864.164	22752
864.296	22881
864.428	22934
864.559	22942
864.691	22866
864.823	22752
864.954	22877
865.086	22706
865.217	22850
865.349	22523
865.48	22729
865.612	22721
865.743	22797
865.875	22584
866.006	22725
866.137	22778
866.269	22752
866.4	22721
866.531	22672
866.662	22580
866.793	22546
866.924	22584
867.055	22637
867.186	22634
867.317	22531
867.448	22489
867.579	22630
867.71	22542
867.841	22523
867.972	22607
868.103	22675
868.233	22641
868.364	22603
868.495	22805
868.625	22953
868.756	23025
868.886	22668
869.017	22896
869.147	22999
869.278	22915
869.408	22900
869.539	22866
869.669	22881
869.799	22942
869.929	22908
870.06	23018
870.19	23143
870.32	23151
870.45	23105
870.58	23273
870.71	23379
870.84	23307
870.97	23391
871.1	23242
871.23	23356
871.36	23322
871.489	23318
871.619	23410
871.749	23395
871.879	23353
872.008	23630
872.138	23482
872.267	23421
872.397	23292
872.526	23345
872.656	23395
872.785	23292
872.915	23429
873.044	23592
873.173	23573
873.303	23726
873.432	23478
873.561	23661
873.69	23493
873.819	23531
873.948	23501
874.077	23535
874.206	23429
874.335	23493
874.464	23573
874.593	23649
874.722	23566
874.851	23710
874.979	23627
875.108	23779
875.237	23657
875.365	23543
875.494	23676
875.623	23695
875.751	23680
875.88	23745
876.008	23783
876.136	23870
876.265	24068
876.393	24243
876.521	24205
876.65	24205
876.778	24121
876.906	23923
877.034	24003
877.162	23973
877.29	23916
877.418	24091
877.546	23969
877.674	24110
877.802	23954
877.93	24034
878.058	23961
878.185	23969
878.313	23946
878.441	24087
878.568	23878
878.696	23874
878.824	23916
878.951	24098
879.079	24315
879.206	24262
879.333	24034
879.461	24011
879.588	24292
879.715	24251
879.842	24323
879.97	24053
880.097	23840
880.224	23824
880.351	23798
880.478	23798
880.605	23737
880.732	23847
880.859	24110
880.986	23779
881.112	23874
881.239	23649
881.366	23630
881.493	23497
881.619	23379
881.746	23402
881.872	23444
881.999	23341
882.125	23364
882.252	23497
882.378	23345
882.505	23414
882.631	23326
882.757	23162
882.883	23140
883.01	23200
883.136	23048
883.262	22828
883.388	22733
883.514	23071
883.64	23044
883.766	22923
883.892	22801
884.018	22877
884.143	23048
884.269	23033
884.395	22736
884.52	22702
884.646	22778
884.772	22615
884.897	22512
885.023	22793
885.148	22679
885.274	22771
885.399	22717
885.524	22721
885.65	22862
885.775	22641
885.9	22546
886.025	22767
886.15	22717
886.275	22557
886.4	22588
886.525	22771
886.65	22603
886.775	22630
886.9	22668
887.025	22744
887.149	22626
887.274	22531
887.399	22466
887.523	22440
887.648	22352
887.773	22325
887.897	22607
888.021	22542
888.146	22367
888.27	22424
888.395	22577
888.519	22405
888.643	22424
888.767	22478
888.891	22341
889.015	22192
889.139	22257
889.263	22211
889.387	22291
889.511	22398
889.635	22348
889.759	22253
889.883	22272
890.006	22230
890.13	22287
890.254	22124
890.377	22192
890.501	21968
890.624	21888
890.748	22013
890.871	21842
890.995	21751
891.118	21652
891.241	21804
891.364	21778
891.488	22006
891.611	21751
891.734	21739
891.857	21842
891.98	21732
892.103	21728
892.226	21835
892.349	21701
892.471	21709
892.594	21618
892.717	21713
892.839	21515
892.962	21720
893.085	21694
893.207	21679
893.33	21553
893.452	21469
893.575	21682
893.697	21534
893.819	21857
893.941	21880
894.064	21823
894.186	21507
894.308	21603
894.43	21656
894.552	21846
894.674	21690
894.796	21469
894.918	21488
895.04	21507
895.161	21694
895.283	21682
895.405	21538
895.526	21595
895.648	21542
895.769	21583
895.891	21663
896.012	21743
896.134	21641
896.255	21511
896.376	21557
896.498	21519
896.619	21656
896.74	21618
896.861	21564
896.982	21869
897.103	22109
897.224	21804
897.345	21701
897.466	21701
897.587	21823
897.708	21998
897.828	21774
897.949	21774
898.07	21599
898.19	21644
898.311	21842
898.431	21739
898.552	21804
898.672	21850
898.792	21899
898.913	21804
899.033	21701
899.153	21675
899.273	21469
899.393	21473
899.513	21519
899.633	21507
899.753	21576
899.873	21420
899.993	21412
900.113	21496
900.232	21477
900.352	21351
900.472	21294
900.591	21222
900.711	21233
900.83	21287
900.95	21325
901.069	21317
901.189	21062
901.308	20883
901.427	20777
901.546	20773
901.665	20838
901.784	20929
901.904	20727
902.023	20537
902.141	20355
902.26	20389
902.379	20366
902.498	20305
902.617	20423
902.735	20404
902.854	20317
902.973	20229
903.091	19970
903.21	20020
903.328	19963
903.446	19902
903.565	19818
903.683	19811
903.801	19693
903.919	19750
904.038	19639
904.156	19502
904.274	19662
904.392	19525
904.51	19567
904.627	19468
904.745	19540
904.863	19422
904.981	19308
905.098	19194
905.216	19213
905.334	19194
905.451	19187
905.569	19137
905.686	19236
905.803	19240
905.921	19076
906.038	19137
906.155	18882
906.272	18779
906.389	18943
906.506	18825
906.623	18661
906.74	18741
906.857	18597
906.974	18764
907.091	18661
907.208	18875
907.324	18665
907.441	18646
907.557	18536
907.674	18452
907.79	18369
907.907	18384
908.023	18445
908.139	18448
908.256	18365
908.372	18342
908.488	18266
908.604	18110
908.72	18102
908.836	18205
908.952	18194
909.068	18232
909.184	18171
909.3	18155
909.415	18224
909.531	18087
909.647	17874
909.762	17783
909.878	17828
909.993	17764
910.108	17855
910.224	17752
910.339	17752
910.454	17752
910.57	17577
910.685	17611
910.8	17840
910.915	17821
911.03	17657
911.145	17452
911.259	17376
911.374	17406
911.489	17322
911.604	17303
911.718	17086
911.833	17147
911.947	17006
912.062	16904
912.176	17083
912.291	17174
912.405	17113
912.519	17307
912.633	17315
912.748	17075
912.862	17212
912.976	16991
913.09	16843
913.204	16987
913.318	16869
913.431	17033
913.545	17010
913.659	16991
913.772	16930
913.886	16793
914	16675
914.113	16763
914.226	16908
914.34	16790
914.453	16740
914.566	16710
914.68	16554
914.793	16519
914.906	16413
915.019	16299
915.132	16188
915.245	16223
915.358	16341
915.47	16238
915.583	16303
915.696	16188
915.809	16428
915.921	16322
916.034	16215
916.146	16150
916.259	16097
916.371	16230
916.483	16230
916.595	16074
916.708	16143
916.82	15968
916.932	15968
917.044	16021
917.156	16135
917.268	15819
917.38	15873
917.491	15892
917.603	15816
917.715	16010
917.826	15987
917.938	15781
918.049	15717
918.161	15850
918.272	15998
918.384	15922
918.495	15736
918.606	15618
918.717	15625
918.828	15660
918.939	15663
919.05	15564
919.161	15660
919.272	15408
919.383	15606
919.494	15671
919.604	15827
919.715	15587
919.826	15492
919.936	15526
920.047	15625
920.157	15606
920.267	15690
920.378	15591
920.488	15557
920.598	15797
920.708	15850
920.818	15629
920.928	15766
921.038	15816
921.148	15724
921.258	15469
921.368	15462
921.477	15408
921.587	15188
921.697	15142
921.806	15264
921.916	15058
922.025	14933
922.134	14960
922.244	14845
922.353	14971
922.462	14796
922.571	14686
922.68	14682
922.789	14556
922.898	14590
923.007	14465
923.116	14587
923.224	14560
923.333	14488
923.442	14484
923.55	14412
923.659	14377
923.767	14438
923.876	14305
923.984	14385
924.092	14263
924.201	14256
924.309	14362
924.417	14180
924.525	14123
924.633	14145
924.741	15203
924.849	13936
924.956	14221
925.064	13928
925.172	13936
925.279	13944
925.387	13925
925.494	13879
925.602	13913
925.709	13875
925.816	13799
925.924	13811
926.031	13936
926.138	13833
926.245	13833
926.352	13723
926.459	13928
926.566	13944
926.673	13769
926.779	13597
926.886	13521
926.993	13468
927.099	13464
927.206	13358
927.312	13415
927.419	13457
927.525	13407
927.631	13434
927.737	13327
927.843	13187
927.95	13202
928.056	13221
928.162	13320
928.267	13228
928.373	13921
928.479	13263
928.585	13145
928.69	13168
928.796	13232
928.901	13053
929.007	12947
929.112	13160
929.218	13076
929.323	12977
929.428	12943
929.533	13015
929.638	12905
929.743	12981
929.848	12970
929.953	12886
930.058	12776
930.163	12612
930.267	12589
930.372	12734
930.477	12559
930.581	12779
930.685	12585
930.79	12551
930.894	12483
930.998	12296
931.103	12578
931.207	12266
931.311	12220
931.415	12003
931.519	11843
931.623	11775
