Data from test_V78500241_3751.txt Node
Date: Fri Mar 25 16:07:47 CST 2022
User: usil
Spectrometer: V785-0024
Trigger mode: 0
Integration Time (sec): 4.000000E-1
Scans to average: 1
Nonlinearity correction enabled: false
Boxcar width: 0
Storing dark spectrum: false
XAxis mode: Wavelengths
Number of Pixels in Spectrum: 1024
>>>>>Begin Spectral Data<<<<<
801.071	28356
801.214	28310
801.356	28143
801.499	28086
801.641	28006
801.783	28021
801.926	28070
802.068	27956
802.211	27838
802.353	27884
802.496	27713
802.638	27587
802.78	27690
802.923	27568
803.065	27553
803.208	27530
803.35	27572
803.492	27827
803.635	27854
803.777	27694
803.919	27808
804.061	28196
804.204	27838
804.346	27781
804.488	27736
804.63	27937
804.773	27789
804.915	27922
805.057	27865
805.199	27717
805.341	27911
805.483	28002
805.626	28032
805.768	27930
805.91	27914
806.052	27895
806.194	27789
806.336	28120
806.478	28150
806.62	27979
806.762	28120
806.904	28348
807.046	28565
807.188	28535
807.33	28485
807.472	28493
807.614	28352
807.756	28363
807.898	28329
808.04	28276
808.182	28230
808.324	28314
808.465	28447
808.607	28592
808.749	28771
808.891	28759
809.033	28927
809.174	28664
809.316	28649
809.458	28706
809.6	28554
809.741	28790
809.883	28782
810.025	28934
810.166	28873
810.308	28873
810.45	28968
810.591	28980
810.733	28930
810.875	28759
811.016	28577
811.158	28569
811.299	28828
811.441	28923
811.582	28824
811.724	28774
811.865	28828
812.007	28641
812.148	28672
812.29	28634
812.431	28892
812.573	29060
812.714	29166
812.855	29258
812.997	29242
813.138	29524
813.279	29216
813.421	29273
813.562	29170
813.703	29041
813.845	28892
813.986	28538
814.127	28508
814.268	28295
814.41	28417
814.551	28417
814.692	28390
814.833	28242
814.974	28451
815.115	28329
815.256	28196
815.397	28261
815.539	28242
815.68	28048
815.821	28040
815.962	28230
816.103	28109
816.244	28120
816.385	28124
816.526	27854
816.666	27690
816.807	27679
816.948	27701
817.089	27842
817.23	27701
817.371	27766
817.512	27686
817.653	27614
817.793	27599
817.934	27797
818.075	27724
818.216	27610
818.356	27595
818.497	27580
818.638	27481
818.778	27462
818.919	27412
819.06	27580
819.2	27511
819.341	27652
819.481	27606
819.622	27835
819.762	28025
819.903	27930
820.043	27884
820.184	27789
820.324	27930
820.465	27865
820.605	27789
820.746	27797
820.886	27850
821.026	27785
821.167	27774
821.307	27797
821.447	27728
821.588	27637
821.728	27603
821.868	27199
822.008	27176
822.149	27108
822.289	27165
822.429	27066
822.569	26864
822.709	26944
822.849	26689
822.99	26724
823.13	26518
823.27	26625
823.41	26632
823.55	26450
823.69	26556
823.83	26480
823.97	26602
824.11	26336
824.25	26282
824.389	26339
824.529	26427
824.669	26381
824.809	26381
824.949	26419
825.089	26473
825.228	26377
825.368	26328
825.508	26336
825.648	26195
825.787	26317
825.927	26317
826.067	26012
826.206	26229
826.346	26309
826.485	26317
826.625	26252
826.765	26240
826.904	26176
827.044	25955
827.183	25940
827.323	25974
827.462	25997
827.601	25963
827.741	25837
827.88	25902
828.02	25864
828.159	25864
828.298	25970
828.437	25974
828.577	25826
828.716	25906
828.855	25879
828.994	25628
829.134	25651
829.273	25712
829.412	25476
829.551	25449
829.69	25548
829.829	25609
829.968	25620
830.107	25803
830.246	25567
830.385	25597
830.524	25438
830.663	25392
830.802	25331
830.941	25202
831.08	25251
831.219	25175
831.357	25278
831.496	25495
831.635	25282
831.774	25183
831.913	25118
832.051	25012
832.19	24935
832.329	25088
832.467	24966
832.606	24970
832.744	24844
832.883	25008
833.022	24875
833.16	24871
833.299	24924
833.437	24939
833.576	25091
833.714	24935
833.852	25084
833.991	24916
834.129	25156
834.267	25069
834.406	25008
834.544	24985
834.682	24966
834.821	24802
834.959	25213
835.097	24928
835.235	24920
835.373	24996
835.511	24882
835.65	24745
835.788	24711
835.926	24684
836.064	24661
836.202	24749
836.34	24852
836.478	24932
836.615	24875
836.753	24753
836.891	24753
837.029	24897
837.167	24863
837.305	24779
837.443	24646
837.58	24639
837.718	24692
837.856	24589
837.993	24555
838.131	24585
838.269	24426
838.406	24555
838.544	24414
838.681	24342
838.819	24254
838.956	24007
839.094	24258
839.231	24087
839.369	24178
839.506	24498
839.643	24281
839.781	24121
839.918	24041
840.055	24015
840.193	24079
840.33	23942
840.467	24026
840.604	23984
840.742	24258
840.879	23843
841.016	23996
841.153	23870
841.29	24110
841.427	23996
841.564	24114
841.701	23889
841.838	23999
841.975	23897
842.112	23840
842.249	23859
842.385	23752
842.522	23809
842.659	23821
842.796	23714
842.933	23779
843.069	23615
843.206	23703
843.343	23863
843.479	23752
843.616	23687
843.752	23611
843.889	23528
844.025	23630
844.162	23497
844.298	23634
844.435	23562
844.571	23455
844.708	23585
844.844	23741
844.98	23767
845.117	23604
845.253	23414
845.389	23421
845.525	23383
845.661	23376
845.798	23265
845.934	23326
846.07	23330
846.206	23326
846.342	23410
846.478	23162
846.614	23155
846.75	22938
846.886	22892
847.022	23090
847.158	22862
847.294	22919
847.429	22908
847.565	22980
847.701	23341
847.837	22630
847.972	22702
848.108	22763
848.244	22850
848.379	22519
848.515	22603
848.65	22603
848.786	22516
848.921	22523
849.057	22615
849.192	22710
849.328	22538
849.463	22474
849.598	22493
849.734	22504
849.869	22215
850.004	22253
850.14	22360
850.275	22295
850.41	22242
850.545	22379
850.68	22284
850.815	22371
850.95	22257
851.085	22519
851.22	22363
851.355	22424
851.49	22382
851.625	22333
851.76	22306
851.895	22329
852.03	22253
852.165	22382
852.299	22284
852.434	22497
852.569	22314
852.703	22466
852.838	22276
852.973	22466
853.107	22466
853.242	22280
853.376	22246
853.511	22025
853.645	22090
853.78	22246
853.914	22143
854.048	22067
854.183	22147
854.317	22242
854.451	22272
854.585	22215
854.72	22124
854.854	22226
854.988	22223
855.122	22303
855.256	21998
855.39	22185
855.524	22200
855.658	22226
855.792	22177
855.926	22169
856.06	22257
856.194	22238
856.327	22105
856.461	21964
856.595	22093
856.729	22173
856.862	22261
856.996	22154
857.13	22230
857.263	22352
857.397	22249
857.53	22139
857.664	22196
857.797	22276
857.931	22162
858.064	22265
858.197	22341
858.331	22181
858.464	22101
858.597	22025
858.731	22287
858.864	22143
858.997	22036
859.13	22215
859.263	22109
859.396	22074
859.529	22181
859.662	22086
859.795	22082
859.928	22196
860.061	22230
860.194	22280
860.327	22150
860.46	22135
860.592	22322
860.725	22382
860.858	22242
860.99	22097
861.123	22131
861.256	22086
861.388	22063
861.521	22862
861.653	21956
861.786	21892
861.918	22006
862.05	22029
862.183	22105
862.315	22131
862.447	22090
862.58	22128
862.712	21945
862.844	21701
862.976	21918
863.108	21960
863.24	22207
863.372	21838
863.504	21793
863.636	21816
863.768	21755
863.9	21918
864.032	21876
864.164	21876
864.296	21911
864.428	21861
864.559	21953
864.691	21892
864.823	21869
864.954	21759
865.086	21698
865.217	21759
865.349	21644
865.48	21648
865.612	21686
865.743	21941
865.875	21660
866.006	21934
866.137	21804
866.269	21762
866.4	21682
866.531	21709
866.662	21679
866.793	21717
866.924	21671
867.055	21797
867.186	21671
867.317	21648
867.448	21587
867.579	21622
867.71	21587
867.841	21641
867.972	21686
868.103	21610
868.233	21766
868.364	21599
868.495	21709
868.625	21880
868.756	21987
868.886	21770
869.017	22029
869.147	22059
869.278	21876
869.408	21895
869.539	21895
869.669	22070
869.799	22063
869.929	22131
870.06	22006
870.19	22143
870.32	22253
870.45	22230
870.58	22234
870.71	22367
870.84	22447
870.97	22329
871.1	22402
871.23	22641
871.36	22580
871.489	22462
871.619	22512
871.749	22596
871.879	22641
872.008	22771
872.138	22428
872.267	22554
872.397	22466
872.526	22394
872.656	22455
872.785	22318
872.915	22573
873.044	22561
873.173	22615
873.303	22626
873.432	22664
873.561	22618
873.69	22470
873.819	22504
873.948	22744
874.077	22554
874.206	22599
874.335	22436
874.464	22797
874.593	22843
874.722	22755
874.851	22782
874.979	22869
875.108	22828
875.237	22729
875.365	22664
875.494	22782
875.623	22835
875.751	22767
875.88	22733
876.008	22873
876.136	22885
876.265	23197
876.393	23277
876.521	23280
876.65	23197
876.778	23223
876.906	23060
877.034	23094
877.162	23102
877.29	23166
877.418	23067
877.546	23200
877.674	23094
877.802	23067
877.93	23109
878.058	23151
878.185	22949
878.313	23102
878.441	23200
878.568	22934
878.696	22904
878.824	23052
878.951	23246
879.079	23235
879.206	23395
879.333	23242
879.461	23140
879.588	23269
879.715	23220
879.842	23383
879.97	23315
880.097	23003
880.224	22873
880.351	23018
880.478	23056
880.605	22854
880.732	22869
880.859	23143
880.986	22927
881.112	22949
881.239	22793
881.366	22516
881.493	22679
881.619	22565
881.746	22519
881.872	22500
881.999	22481
882.125	22432
882.252	22481
882.378	22493
882.505	22497
882.631	22356
882.757	22325
882.883	22428
883.01	22238
883.136	22139
883.262	22029
883.388	22147
883.514	22188
883.64	22124
883.766	22048
883.892	22086
884.018	21918
884.143	22101
884.269	22093
884.395	21918
884.52	21880
884.646	21816
884.772	21804
884.897	21751
885.023	21903
885.148	21915
885.274	21854
885.399	21808
885.524	21827
885.65	21778
885.775	21850
885.9	21793
886.025	21922
886.15	21770
886.275	21857
886.4	21720
886.525	21698
886.65	21648
886.775	21717
886.9	21838
887.025	21911
887.149	21827
887.274	21838
887.399	21549
887.523	21492
887.648	21496
887.773	21431
887.897	21660
888.021	21644
888.146	21439
888.27	21698
888.395	21690
888.519	21576
888.643	21633
888.767	21587
888.891	21431
889.015	21378
889.139	21374
889.263	21367
889.387	21492
889.511	21576
889.635	21397
889.759	21294
889.883	21397
890.006	21310
890.13	21443
890.254	21291
890.377	21283
890.501	21074
890.624	21100
890.748	21230
890.871	20925
890.995	20952
891.118	20876
891.241	21028
891.364	20800
891.488	21135
891.611	20826
891.734	20975
891.857	20918
891.98	20937
892.103	20872
892.226	20872
892.349	20800
892.471	20716
892.594	20735
892.717	20887
892.839	20891
892.962	20883
893.085	20914
893.207	20739
893.33	20602
893.452	20796
893.575	20857
893.697	20731
893.819	20845
893.941	20956
894.064	20990
894.186	20693
894.308	20785
894.43	20906
894.552	20891
894.674	20872
894.796	20663
894.918	20868
895.04	20830
895.161	20826
895.283	20967
895.405	20678
895.526	20754
895.648	20807
895.769	20739
895.891	20921
896.012	20925
896.134	20727
896.255	20765
896.376	20708
896.498	20777
896.619	20804
896.74	20868
896.861	20727
896.982	21131
897.103	21237
897.224	21104
897.345	21051
897.466	21017
897.587	21036
897.708	21100
897.828	21032
897.949	20979
898.07	20819
898.19	20967
898.311	21055
898.431	20933
898.552	20941
898.672	21043
898.792	20948
898.913	21043
899.033	20902
899.153	20727
899.273	20621
899.393	20823
899.513	20705
899.633	20769
899.753	20838
899.873	20727
899.993	20796
900.113	20739
900.232	20609
900.352	20594
900.472	20522
900.591	20419
900.711	20499
900.83	20427
900.95	20590
901.069	20594
901.189	20454
901.308	20145
901.427	20058
901.546	20134
901.665	20111
901.784	20149
901.904	19917
902.023	19799
902.141	19613
902.26	19556
902.379	19632
902.498	19597
902.617	19487
902.735	19601
902.854	19540
902.973	19506
903.091	19335
903.21	19141
903.328	19137
903.446	19133
903.565	19103
903.683	19107
903.801	18954
903.919	18985
904.038	18954
904.156	18757
904.274	18867
904.392	18764
904.51	18711
904.627	18856
904.745	18768
904.863	18859
904.981	18544
905.098	18437
905.216	18608
905.334	18544
905.451	18502
905.569	18506
905.686	18498
905.803	18456
905.921	18289
906.038	18369
906.155	18296
906.272	18163
906.389	18159
906.506	18041
906.623	17855
906.74	18038
906.857	17950
906.974	17950
907.091	18171
907.208	18114
907.324	18102
907.441	17973
907.557	17684
907.674	17764
907.79	17668
907.907	17707
908.023	17722
908.139	17638
908.256	17630
908.372	17657
908.488	17581
908.604	17463
908.72	17368
908.836	17459
908.952	17436
909.068	17398
909.184	17505
909.3	17376
909.415	17493
909.531	17486
909.647	17185
909.762	17170
909.878	17136
909.993	17105
910.108	17064
910.224	17090
910.339	17113
910.454	16968
910.57	17033
910.685	16793
910.8	17041
910.915	17155
911.03	16915
911.145	16710
911.259	16691
911.374	16679
911.489	16626
911.604	16622
911.718	16466
911.833	16409
911.947	16356
912.062	16356
912.176	16489
912.291	16402
912.405	16409
912.519	16611
912.633	16721
912.748	16577
912.862	16470
912.976	16272
913.09	16139
913.204	16261
913.318	16325
913.431	16371
913.545	16337
913.659	16405
913.772	16219
913.886	16086
914	16021
914.113	16124
914.226	16226
914.34	16226
914.453	16010
914.566	16173
914.68	15994
914.793	15949
914.906	15835
915.019	15629
915.132	15682
915.245	15660
915.358	15709
915.47	15679
915.583	15701
915.696	15523
915.809	15812
915.921	15694
916.034	15606
916.146	15580
916.259	15401
916.371	15580
916.483	15500
916.595	15496
916.708	15492
916.82	15526
916.932	15488
917.044	15428
917.156	15294
917.268	15279
917.38	15245
917.491	15252
917.603	15275
917.715	15294
917.826	15348
917.938	15226
918.049	15074
918.161	15173
918.272	15317
918.384	15351
918.495	15218
918.606	15081
918.717	14883
918.828	15097
918.939	15039
919.05	14910
919.161	15017
919.272	14785
919.383	14872
919.494	15070
919.604	15180
919.715	15070
919.826	14929
919.936	14933
920.047	15112
920.157	15013
920.267	15188
920.378	15013
920.488	14937
920.598	15188
920.708	15264
920.818	15138
920.928	15036
921.038	15161
921.148	15298
921.258	14887
921.368	14876
921.477	14727
921.587	14530
921.697	14606
921.806	14773
921.916	14583
922.025	14415
922.134	14343
922.244	14221
922.353	14431
922.462	14278
922.571	14252
922.68	13928
922.789	13963
922.898	14046
923.007	13830
923.116	14046
923.224	13913
923.333	13925
923.442	13868
923.55	13784
923.659	13845
923.767	13742
923.876	13723
923.984	13818
924.092	13689
924.201	13750
924.309	13791
924.417	13674
924.525	13632
924.633	13510
924.741	14518
924.849	13460
924.956	13578
925.064	13415
925.172	13312
925.279	13350
925.387	13396
925.494	13396
925.602	13468
925.709	13377
925.816	13335
925.924	13354
926.031	13365
926.138	13316
926.245	13343
926.352	13187
926.459	13384
926.566	13324
926.673	13149
926.779	13126
926.886	13213
926.993	12973
927.099	12951
927.206	12901
927.312	12894
927.419	12928
927.525	12875
927.631	13008
927.737	12795
927.843	12810
927.95	12662
928.056	12700
928.162	12795
928.267	12719
928.373	13400
928.479	12837
928.585	12601
928.69	12650
928.796	12673
928.901	12574
929.007	12471
929.112	12688
929.218	12589
929.323	12483
929.428	12437
929.533	12570
929.638	12433
929.743	12391
929.848	12475
929.953	12410
930.058	12319
930.163	12125
930.267	12182
930.372	12266
930.477	12072
930.581	12338
930.685	12133
930.79	12049
930.894	12064
930.998	11923
931.103	12041
931.207	11813
931.311	11699
931.415	11570
931.519	11360
931.623	11360
