Data from test_V78500241_379.txt Node
Date: Fri Mar 25 15:44:25 CST 2022
User: usil
Spectrometer: V785-0024
Trigger mode: 0
Integration Time (sec): 4.000000E-1
Scans to average: 1
Nonlinearity correction enabled: false
Boxcar width: 0
Storing dark spectrum: false
XAxis mode: Wavelengths
Number of Pixels in Spectrum: 1024
>>>>>Begin Spectral Data<<<<<
801.071	29570
801.214	29589
801.356	29566
801.499	29341
801.641	29261
801.783	29261
801.926	29162
802.068	29261
802.211	29174
802.353	29010
802.496	28999
802.638	28938
802.78	28904
802.923	28908
803.065	28835
803.208	28961
803.35	28839
803.492	28847
803.635	29079
803.777	28942
803.919	29128
804.061	29239
804.204	29025
804.346	29022
804.488	29010
804.63	28957
804.773	29048
804.915	29094
805.057	29242
805.199	29200
805.341	29044
805.483	29212
805.626	29181
805.768	29174
805.91	29113
806.052	29288
806.194	29212
806.336	29452
806.478	29242
806.62	29189
806.762	29436
806.904	29493
807.046	29756
807.188	29809
807.33	29619
807.472	29668
807.614	29634
807.756	29630
807.898	29505
808.04	29368
808.182	29360
808.324	29474
808.465	29372
808.607	29630
808.749	29805
808.891	30026
809.033	29973
809.174	29904
809.316	29859
809.458	29973
809.6	29893
809.741	30015
809.883	30136
810.025	30148
810.166	30205
810.308	30174
810.45	30277
810.591	29996
810.733	29916
810.875	29775
811.016	29893
811.158	29813
811.299	30106
811.441	29969
811.582	30018
811.724	29908
811.865	29855
812.007	29752
812.148	29805
812.29	29904
812.431	30038
812.573	30174
812.714	30349
812.855	30300
812.997	30475
813.138	30593
813.279	30498
813.421	30528
813.562	30422
813.703	30098
813.845	30144
813.986	29935
814.127	29695
814.268	29478
814.41	29520
814.551	29531
814.692	29505
814.833	29425
814.974	29520
815.115	29581
815.256	29505
815.397	29372
815.539	29372
815.68	29345
815.821	29277
815.962	29444
816.103	29337
816.244	29239
816.385	29075
816.526	29109
816.666	28908
816.807	28847
816.948	28786
817.089	28820
817.23	28809
817.371	28866
817.512	28847
817.653	28641
817.793	28786
817.934	28869
818.075	28706
818.216	28854
818.356	28729
818.497	28694
818.638	28432
818.778	28401
818.919	28637
819.06	28546
819.2	28573
819.341	28831
819.481	28755
819.622	28900
819.762	29041
819.903	28991
820.043	28938
820.184	28946
820.324	28824
820.465	28961
820.605	28968
820.746	28984
820.886	28653
821.026	28888
821.167	28725
821.307	28987
821.447	28816
821.588	28706
821.728	28519
821.868	28386
822.008	28318
822.149	28048
822.289	28295
822.429	27835
822.569	27854
822.709	27819
822.849	27751
822.99	27720
823.13	27580
823.27	27599
823.41	27477
823.55	27450
823.69	27420
823.83	27458
823.97	27389
824.11	27199
824.25	27203
824.389	27389
824.529	27359
824.669	27302
824.809	27439
824.949	27397
825.089	27336
825.228	27523
825.368	27302
825.508	27085
825.648	27214
825.787	27256
825.927	27226
826.067	27211
826.206	27192
826.346	27199
826.485	27294
826.625	27157
826.765	27241
826.904	27169
827.044	26963
827.183	26887
827.323	26739
827.462	26921
827.601	26880
827.741	26804
827.88	26842
828.02	26895
828.159	26857
828.298	26918
828.437	26849
828.577	26826
828.716	26868
828.855	26800
828.994	26571
829.134	26412
829.273	26571
829.412	26374
829.551	26453
829.69	26522
829.829	26473
829.968	26606
830.107	26606
830.246	26457
830.385	26507
830.524	26412
830.663	26381
830.802	26225
830.941	26176
831.08	26206
831.219	26172
831.357	26206
831.496	26233
831.635	25883
831.774	25963
831.913	25887
832.051	25830
832.19	25890
832.329	25826
832.467	25788
832.606	25712
832.744	25639
832.883	25643
833.022	25655
833.16	25776
833.299	25734
833.437	25757
833.576	25849
833.714	25719
833.852	25784
833.991	25852
834.129	25928
834.267	25868
834.406	25780
834.544	25772
834.682	25643
834.821	25811
834.959	25814
835.097	25696
835.235	25757
835.373	25753
835.511	25647
835.65	25525
835.788	25495
835.926	25479
836.064	25251
836.202	25350
836.34	25575
836.478	25693
836.615	25537
836.753	25495
836.891	25556
837.029	25499
837.167	25605
837.305	25445
837.443	25426
837.58	25266
837.718	25518
837.856	25354
837.993	25263
838.131	25316
838.269	25228
838.406	25187
838.544	25190
838.681	25061
838.819	24989
838.956	24810
839.094	24760
839.231	24878
839.369	24970
839.506	25221
839.643	25027
839.781	24703
839.918	24772
840.055	24821
840.193	24734
840.33	24772
840.467	24726
840.604	24852
840.742	24951
840.879	24616
841.016	24585
841.153	24555
841.29	24829
841.427	24700
841.564	24703
841.701	24757
841.838	24578
841.975	24578
842.112	24719
842.249	24433
842.385	24391
842.522	24692
842.659	24536
842.796	24429
842.933	24391
843.069	24357
843.206	24228
843.343	24391
843.479	24429
843.616	24350
843.752	24121
843.889	24243
844.025	24213
844.162	24216
844.298	24304
844.435	24060
844.571	24129
844.708	24182
844.844	24399
844.98	24235
845.117	24091
845.253	24038
845.389	23950
845.525	23992
845.661	23946
845.798	23859
845.934	23843
846.07	23954
846.206	23923
846.342	24003
846.478	23840
846.614	23676
846.75	23581
846.886	23493
847.022	23566
847.158	23672
847.294	23668
847.429	23562
847.565	23611
847.701	23714
847.837	23360
847.972	23220
848.108	23322
848.244	23341
848.379	23208
848.515	23193
848.65	23090
848.786	23220
848.921	23223
849.057	23273
849.192	23284
849.328	23147
849.463	23056
849.598	23143
849.734	22938
849.869	22987
850.004	22911
850.14	22908
850.275	22915
850.41	22759
850.545	22949
850.68	22930
850.815	22824
850.95	22748
851.085	23025
851.22	22923
851.355	22877
851.49	22752
851.625	22866
851.76	22892
851.895	22809
852.03	22774
852.165	22854
852.299	22816
852.434	22942
852.569	22889
852.703	22786
852.838	22915
852.973	22847
853.107	22877
853.242	22835
853.376	22717
853.511	22550
853.645	22535
853.78	22820
853.914	22637
854.048	22565
854.183	22573
854.317	22740
854.451	22915
854.585	22717
854.72	22535
854.854	22672
854.988	22584
855.122	22615
855.256	22512
855.39	22622
855.524	22698
855.658	22630
855.792	22717
855.926	22835
856.06	22687
856.194	22744
856.327	22740
856.461	22535
856.595	22649
856.729	22626
856.862	22706
856.996	22645
857.13	22721
857.263	22683
857.397	22710
857.53	22580
857.664	22615
857.797	22736
857.931	22850
858.064	22618
858.197	22694
858.331	22588
858.464	22588
858.597	22615
858.731	22561
858.864	22626
858.997	22561
859.13	22664
859.263	22535
859.396	22755
859.529	22649
859.662	22451
859.795	22493
859.928	22577
860.061	22687
860.194	22668
860.327	22740
860.46	22653
860.592	22782
860.725	22797
860.858	22824
860.99	22656
861.123	22447
861.256	22618
861.388	22584
861.521	23322
861.653	22508
861.786	22409
861.918	22523
862.05	22577
862.183	22569
862.315	22630
862.447	22500
862.58	22675
862.712	22409
862.844	22318
862.976	22329
863.108	22352
863.24	22706
863.372	22268
863.504	22348
863.636	22310
863.768	22325
863.9	22295
864.032	22310
864.164	22314
864.296	22299
864.428	22375
864.559	22447
864.691	22398
864.823	22318
864.954	22325
865.086	22215
865.217	22124
865.349	22135
865.48	22112
865.612	22249
865.743	22261
865.875	22196
866.006	22090
866.137	22135
866.269	22131
866.4	22200
866.531	22143
866.662	22154
866.793	22188
866.924	22200
867.055	22295
867.186	22128
867.317	22032
867.448	22090
867.579	22055
867.71	22063
867.841	21926
867.972	22006
868.103	22010
868.233	22226
868.364	22074
868.495	22150
868.625	22325
868.756	22386
868.886	22192
869.017	22386
869.147	22424
869.278	22455
869.408	22348
869.539	22428
869.669	22470
869.799	22276
869.929	22428
870.06	22451
870.19	22740
870.32	22611
870.45	22622
870.58	22733
870.71	22900
870.84	22771
870.97	22706
871.1	22733
871.23	22881
871.36	22885
871.489	22957
871.619	22873
871.749	23090
871.879	22919
872.008	23018
872.138	22843
872.267	22987
872.397	22904
872.526	22660
872.656	22698
872.785	22778
872.915	22976
873.044	22980
873.173	22881
873.303	22987
873.432	22987
873.561	22972
873.69	22957
873.819	22976
873.948	23006
874.077	23006
874.206	22953
874.335	22900
874.464	22965
874.593	23147
874.722	23216
874.851	23117
874.979	23311
875.108	23159
875.237	23010
875.365	23079
875.494	23132
875.623	23185
875.751	23109
875.88	23204
876.008	23258
876.136	23277
876.265	23585
876.393	23714
876.521	23691
876.65	23764
876.778	23452
876.906	23452
877.034	23505
877.162	23600
877.29	23463
877.418	23482
877.546	23554
877.674	23421
877.802	23474
877.93	23524
878.058	23429
878.185	23353
878.313	23471
878.441	23528
878.568	23231
878.696	23440
878.824	23414
878.951	23668
879.079	23722
879.206	23870
879.333	23695
879.461	23353
879.588	23566
879.715	23649
879.842	23718
879.97	23528
880.097	23345
880.224	23334
880.351	23334
880.478	23143
880.605	23337
880.732	23284
880.859	23471
880.986	23356
881.112	23315
881.239	23109
881.366	22946
881.493	22919
881.619	22934
881.746	22831
881.872	22949
881.999	22873
882.125	22755
882.252	22911
882.378	22961
882.505	23044
882.631	22774
882.757	22672
882.883	22599
883.01	22660
883.136	22504
883.262	22615
883.388	22200
883.514	22615
883.64	22596
883.766	22569
883.892	22329
884.018	22356
884.143	22531
884.269	22470
884.395	22276
884.52	22295
884.646	22181
884.772	22093
884.897	22150
885.023	22181
885.148	22367
885.274	22466
885.399	22268
885.524	22234
885.65	22295
885.775	22238
885.9	22090
886.025	22318
886.15	22306
886.275	22074
886.4	22112
886.525	22040
886.65	22120
886.775	22192
886.9	22371
887.025	22344
887.149	22055
887.274	22074
887.399	22002
887.523	21949
887.648	21880
887.773	21812
887.897	22002
888.021	21983
888.146	21842
888.27	21972
888.395	22196
888.519	21934
888.643	21895
888.767	21934
888.891	21800
889.015	21690
889.139	21857
889.263	21778
889.387	21876
889.511	21983
889.635	21732
889.759	21694
889.883	21679
890.006	21759
890.13	21739
890.254	21412
890.377	21576
890.501	21545
890.624	21405
890.748	21496
890.871	21355
890.995	21329
891.118	21096
891.241	21268
891.364	21321
891.488	21412
891.611	21428
891.734	21218
891.857	21279
891.98	21317
892.103	21329
892.226	21176
892.349	21131
892.471	21047
892.594	21188
892.717	21135
892.839	21203
892.962	21203
893.085	21260
893.207	21230
893.33	21112
893.452	21100
893.575	21222
893.697	21028
893.819	21313
893.941	21340
894.064	21195
894.186	21005
894.308	21039
894.43	21252
894.552	21207
894.674	21188
894.796	21001
894.918	21146
895.04	21116
895.161	21192
895.283	21112
895.405	21093
895.526	21093
895.648	21161
895.769	21260
895.891	21112
896.012	21165
896.134	21081
896.255	21127
896.376	21119
896.498	21184
896.619	21367
896.74	21100
896.861	21233
896.982	21500
897.103	21610
897.224	21504
897.345	21310
897.466	21355
897.587	21340
897.708	21424
897.828	21313
897.949	21279
898.07	21154
898.19	21195
898.311	21321
898.431	21317
898.552	21424
898.672	21401
898.792	21412
898.913	21260
899.033	21169
899.153	21024
899.273	21017
899.393	21020
899.513	20906
899.633	21108
899.753	21070
899.873	20971
899.993	20967
900.113	20902
900.232	20990
900.352	20944
900.472	20689
900.591	20769
900.711	20754
900.83	20659
900.95	20910
901.069	20925
901.189	20674
901.308	20518
901.427	20358
901.546	20324
901.665	20389
901.784	20355
901.904	20240
902.023	20199
902.141	19944
902.26	19902
902.379	19989
902.498	19963
902.617	19788
902.735	19947
902.854	19921
902.973	19750
903.091	19605
903.21	19529
903.328	19510
903.446	19381
903.565	19403
903.683	19381
903.801	19198
903.919	19217
904.038	19194
904.156	19050
904.274	19133
904.392	19091
904.51	19015
904.627	19023
904.745	19114
904.863	19061
904.981	18741
905.098	18814
905.216	18719
905.334	18688
905.451	18734
905.569	18673
905.686	18711
905.803	18798
905.921	18509
906.038	18650
906.155	18547
906.272	18357
906.389	18490
906.506	18209
906.623	18289
906.74	18190
906.857	18174
906.974	18068
907.091	18315
907.208	18300
907.324	18258
907.441	18072
907.557	18026
907.674	18053
907.79	17969
907.907	17897
908.023	18041
908.139	18011
908.256	17992
908.372	17805
908.488	17760
908.604	17703
908.72	17608
908.836	17703
908.952	17695
909.068	17634
909.184	17756
909.3	17566
909.415	17714
909.531	17661
909.647	17376
909.762	17322
909.878	17334
909.993	17337
910.108	17296
910.224	17231
910.339	17368
910.454	17212
910.57	17155
910.685	17041
910.8	17322
910.915	17318
911.03	17086
911.145	17037
911.259	16889
911.374	16869
911.489	16854
911.604	16733
911.718	16626
911.833	16630
911.947	16531
912.062	16546
912.176	16603
912.291	16603
912.405	16668
912.519	16820
912.633	16820
912.748	16679
912.862	16554
912.976	16466
913.09	16295
913.204	16333
913.318	16394
913.431	16535
913.545	16459
913.659	16462
913.772	16379
913.886	16230
914	16314
914.113	16333
914.226	16303
914.34	16234
914.453	16226
914.566	16280
914.68	16116
914.793	16036
914.906	15842
915.019	15816
915.132	15835
915.245	15899
915.358	15945
915.47	15827
915.583	15888
915.696	15854
915.809	15861
915.921	15880
916.034	15766
916.146	15739
916.259	15686
916.371	15838
916.483	15728
916.595	15610
916.708	15584
916.82	15606
916.932	15606
917.044	15587
917.156	15599
917.268	15340
917.38	15397
917.491	15428
917.603	15408
917.715	15488
917.826	15492
917.938	15401
918.049	15283
918.161	15397
918.272	15466
918.384	15431
918.495	15367
918.606	15218
918.717	15104
918.828	15230
918.939	15188
919.05	15131
919.161	15123
919.272	14876
919.383	15055
919.494	15256
919.604	15393
919.715	15188
919.826	15051
919.936	15104
920.047	15207
920.157	15180
920.267	15291
920.378	15192
920.488	15112
920.598	15325
920.708	15386
920.818	15272
920.928	15226
921.038	15386
921.148	15336
921.258	15066
921.368	14937
921.477	14880
921.587	14804
921.697	14712
921.806	14754
921.916	14689
922.025	14556
922.134	14366
922.244	14412
922.353	14541
922.462	14290
922.571	14301
922.68	14225
922.789	14088
922.898	14130
923.007	14008
923.116	14149
923.224	14092
923.333	14073
923.442	13989
923.55	13947
923.659	13890
923.767	13967
923.876	13830
923.984	13982
924.092	13750
924.201	13909
924.309	13746
924.417	13742
924.525	13791
924.633	13715
924.741	14689
924.849	13472
924.956	13712
925.064	13563
925.172	13483
925.279	13407
925.387	13518
925.494	13434
925.602	13518
925.709	13510
925.816	13434
925.924	13407
926.031	13521
926.138	13468
926.245	13426
926.352	13308
926.459	13441
926.566	13430
926.673	13270
926.779	13179
926.886	13228
926.993	13076
927.099	13053
927.206	12954
927.312	12996
927.419	13103
927.525	13046
927.631	13084
927.737	12905
927.843	12966
927.95	12760
928.056	12810
928.162	12837
928.267	12844
928.373	13381
928.479	12916
928.585	12627
928.69	12764
928.796	12726
928.901	12738
929.007	12589
929.112	12692
929.218	12631
929.323	12582
929.428	12566
929.533	12692
929.638	12525
929.743	12547
929.848	12551
929.953	12448
930.058	12437
930.163	12216
930.267	12277
930.372	12342
930.477	12190
930.581	12334
930.685	12254
930.79	12079
930.894	12102
930.998	12076
931.103	12186
931.207	11866
931.311	11748
931.415	11642
931.519	11448
931.623	11467
