Data from test_V78500241_941.txt Node
Date: Fri Mar 25 15:48:19 CST 2022
User: usil
Spectrometer: V785-0024
Trigger mode: 0
Integration Time (sec): 4.000000E-1
Scans to average: 1
Nonlinearity correction enabled: false
Boxcar width: 0
Storing dark spectrum: false
XAxis mode: Wavelengths
Number of Pixels in Spectrum: 1024
>>>>>Begin Spectral Data<<<<<
801.071	28649
801.214	28573
801.356	28318
801.499	28223
801.641	28166
801.783	28128
801.926	28150
802.068	28013
802.211	28013
802.353	28051
802.496	27907
802.638	27918
802.78	27732
802.923	27812
803.065	27671
803.208	27728
803.35	27918
803.492	27892
803.635	27854
803.777	27838
803.919	28051
804.061	28272
804.204	28055
804.346	27994
804.488	27922
804.63	27991
804.773	27892
804.915	28048
805.057	28219
805.199	28036
805.341	28101
805.483	28131
805.626	28131
805.768	28032
805.91	28105
806.052	28101
806.194	28154
806.336	28538
806.478	28261
806.62	28284
806.762	28535
806.904	28325
807.046	28694
807.188	28729
807.33	28554
807.472	28641
807.614	28641
807.756	28588
807.898	28554
808.04	28466
808.182	28390
808.324	28386
808.465	28611
808.607	28622
808.749	28786
808.891	28957
809.033	29113
809.174	29117
809.316	28767
809.458	28888
809.6	28824
809.741	28938
809.883	29204
810.025	29296
810.166	29227
810.308	29185
810.45	29280
810.591	29105
810.733	28949
810.875	28908
811.016	28854
811.158	28752
811.299	29086
811.441	29044
811.582	29121
811.724	29006
811.865	28892
812.007	28968
812.148	28862
812.29	28968
812.431	29159
812.573	29174
812.714	29235
812.855	29467
812.997	29562
813.138	29707
813.279	29528
813.421	29554
813.562	29356
813.703	29136
813.845	29235
813.986	28831
814.127	28759
814.268	28603
814.41	28615
814.551	28675
814.692	28748
814.833	28546
814.974	28577
815.115	28599
815.256	28455
815.397	28417
815.539	28508
815.68	28440
815.821	28417
815.962	28561
816.103	28462
816.244	28322
816.385	28356
816.526	28204
816.666	28105
816.807	27975
816.948	28044
817.089	28067
817.23	27888
817.371	27895
817.512	28181
817.653	27808
817.793	27835
817.934	27937
818.075	27975
818.216	28116
818.356	27827
818.497	27846
818.638	27652
818.778	27690
818.919	27789
819.06	27819
819.2	27823
819.341	27953
819.481	27918
819.622	28177
819.762	28181
819.903	28341
820.043	28086
820.184	27975
820.324	28181
820.465	28219
820.605	28131
820.746	28021
820.886	27949
821.026	28025
821.167	28021
821.307	28051
821.447	28002
821.588	27937
821.728	27812
821.868	27717
822.008	27591
822.149	27408
822.289	27348
822.429	27199
822.569	27142
822.709	27032
822.849	26940
822.99	26963
823.13	26982
823.27	26804
823.41	26838
823.55	26446
823.69	26807
823.83	26632
823.97	26735
824.11	26632
824.25	26530
824.389	26636
824.529	26712
824.669	26644
824.809	26746
824.949	26613
825.089	26712
825.228	26701
825.368	26370
825.508	26457
825.648	26560
825.787	26484
825.927	26518
826.067	26556
826.206	26393
826.346	26632
826.485	26537
826.625	26419
826.765	26568
826.904	26484
827.044	26278
827.183	26339
827.323	26221
827.462	26107
827.601	26195
827.741	26115
827.88	26221
828.02	26058
828.159	26138
828.298	26103
828.437	26233
828.577	26046
828.716	26294
828.855	26100
828.994	25936
829.134	25875
829.273	25841
829.412	25799
829.551	25940
829.69	25959
829.829	25955
829.968	26001
830.107	26005
830.246	25887
830.385	25875
830.524	25655
830.663	25757
830.802	25651
830.941	25460
831.08	25441
831.219	25605
831.357	25510
831.496	25738
831.635	25449
831.774	25457
831.913	25400
832.051	25377
832.19	25274
832.329	25282
832.467	25232
832.606	25244
832.744	25122
832.883	25088
833.022	25118
833.16	25122
833.299	25308
833.437	25183
833.576	25213
833.714	25304
833.852	25187
833.991	25396
834.129	25362
834.267	25285
834.406	25244
834.544	25244
834.682	25278
834.821	25202
834.959	25346
835.097	25156
835.235	25217
835.373	25103
835.511	25263
835.65	25114
835.788	25019
835.926	24943
836.064	24825
836.202	24757
836.34	24985
836.478	25137
836.615	25042
836.753	25031
836.891	25004
837.029	25000
837.167	24863
837.305	24962
837.443	24939
837.58	24985
837.718	24977
837.856	24970
837.993	24692
838.131	24977
838.269	24734
838.406	24654
838.544	24681
838.681	24563
838.819	24475
838.956	24350
839.094	24323
839.231	24277
839.369	24388
839.506	24745
839.643	24544
839.781	24357
839.918	24140
840.055	24342
840.193	24254
840.33	24186
840.467	24308
840.604	24270
840.742	24521
840.879	24155
841.016	24270
841.153	24174
841.29	24380
841.427	24182
841.564	24266
841.701	24247
841.838	24121
841.975	24079
842.112	24201
842.249	24018
842.385	23984
842.522	24304
842.659	24076
842.796	23980
842.933	23961
843.069	23870
843.206	23939
843.343	23999
843.479	23969
843.616	23942
843.752	23710
843.889	23832
844.025	23882
844.162	23722
844.298	23741
844.435	23756
844.571	23623
844.708	23710
844.844	23779
844.98	23908
845.117	23767
845.253	23760
845.389	23668
845.525	23691
845.661	23676
845.798	23414
845.934	23558
846.07	23512
846.206	23509
846.342	23558
846.478	23486
846.614	23402
846.75	23151
846.886	23200
847.022	23220
847.158	23178
847.294	23200
847.429	23216
847.565	23254
847.701	23520
847.837	22946
847.972	22965
848.108	23037
848.244	23075
848.379	22793
848.515	22828
848.65	22733
848.786	22801
848.921	22843
849.057	22793
849.192	22869
849.328	22843
849.463	22824
849.598	22717
849.734	22812
849.869	22683
850.004	22607
850.14	22577
850.275	22466
850.41	22478
850.545	22451
850.68	22550
850.815	22615
850.95	22649
851.085	22694
851.22	22660
851.355	22603
851.49	22523
851.625	22367
851.76	22554
851.895	22474
852.03	22481
852.165	22596
852.299	22634
852.434	22679
852.569	22607
852.703	22599
852.838	22713
852.973	22740
853.107	22710
853.242	22599
853.376	22466
853.511	22371
853.645	22280
853.78	22447
853.914	22261
854.048	22344
854.183	22390
854.317	22451
854.451	22649
854.585	22432
854.72	22409
854.854	22413
854.988	22306
855.122	22341
855.256	22249
855.39	22512
855.524	22462
855.658	22356
855.792	22341
855.926	22440
856.06	22436
856.194	22550
856.327	22261
856.461	22344
856.595	22200
856.729	22371
856.862	22421
856.996	22356
857.13	22542
857.263	22596
857.397	22394
857.53	22303
857.664	22519
857.797	22443
857.931	22421
858.064	22402
858.197	22584
858.331	22382
858.464	22489
858.597	22306
858.731	22371
858.864	22428
858.997	22306
859.13	22318
859.263	22386
859.396	22516
859.529	22386
859.662	22337
859.795	22371
859.928	22413
860.061	22405
860.194	22516
860.327	22470
860.46	22443
860.592	22489
860.725	22554
860.858	22500
860.99	22375
861.123	22223
861.256	22402
861.388	22417
861.521	23067
861.653	22272
861.786	22207
861.918	22215
862.05	22124
862.183	22356
862.315	22306
862.447	22352
862.58	22086
862.712	22055
862.844	21998
862.976	22143
863.108	22177
863.24	22371
863.372	22078
863.504	22173
863.636	22036
863.768	22131
863.9	22070
864.032	22013
864.164	22116
864.296	22112
864.428	22181
864.559	22154
864.691	22090
864.823	22097
864.954	22025
865.086	22120
865.217	22013
865.349	21785
865.48	22036
865.612	21831
865.743	22078
865.875	22002
866.006	21869
866.137	21945
866.269	21907
866.4	21930
866.531	21922
866.662	21816
866.793	21922
866.924	21903
867.055	21911
867.186	21892
867.317	21857
867.448	21835
867.579	21911
867.71	21800
867.841	21808
867.972	21956
868.103	21823
868.233	21934
868.364	21888
868.495	21918
868.625	22051
868.756	22169
868.886	21987
869.017	22139
869.147	22253
869.278	22223
869.408	22234
869.539	22200
869.669	22192
869.799	22082
869.929	22124
870.06	22185
870.19	22436
870.32	22500
870.45	22508
870.58	22459
870.71	22561
870.84	22573
870.97	22607
871.1	22409
871.23	22664
871.36	22668
871.489	22569
871.619	22577
871.749	22630
871.879	22774
872.008	22816
872.138	22774
872.267	22664
872.397	22637
872.526	22523
872.656	22611
872.785	22519
872.915	22668
873.044	22767
873.173	22748
873.303	22763
873.432	22744
873.561	22805
873.69	22862
873.819	22717
873.948	22744
874.077	22755
874.206	22656
874.335	22573
874.464	22892
874.593	22786
874.722	22839
874.851	22934
874.979	22957
875.108	23071
875.237	22915
875.365	22782
875.494	22919
875.623	22995
875.751	22801
875.88	22866
876.008	23121
876.136	23052
876.265	23337
876.393	23455
876.521	23436
876.65	23379
876.778	23322
876.906	23235
877.034	23231
877.162	23220
877.29	23299
877.418	23299
877.546	23258
877.674	23197
877.802	23235
877.93	23353
878.058	23216
878.185	23178
878.313	23170
878.441	23265
878.568	23060
878.696	23143
878.824	23235
878.951	23265
879.079	23543
879.206	23539
879.333	23577
879.461	23318
879.588	23356
879.715	23501
879.842	23611
879.97	23345
880.097	23136
880.224	23094
880.351	23071
880.478	23155
880.605	23128
880.732	23151
880.859	23269
880.986	23044
881.112	23033
881.239	22892
881.366	22900
881.493	22820
881.619	22672
881.746	22717
881.872	22660
881.999	22672
882.125	22565
882.252	22717
882.378	22546
882.505	22816
882.631	22500
882.757	22390
882.883	22398
883.01	22363
883.136	22390
883.262	22249
883.388	22143
883.514	22398
883.64	22386
883.766	22276
883.892	22128
884.018	22223
884.143	22310
884.269	22390
884.395	22131
884.52	21907
884.646	21960
884.772	21850
884.897	21838
885.023	22063
885.148	22097
885.274	22090
885.399	22093
885.524	22013
885.65	22017
885.775	21903
885.9	22067
886.025	22112
886.15	22173
886.275	21930
886.4	21835
886.525	22067
886.65	21873
886.775	21926
886.9	21922
887.025	22086
887.149	21857
887.274	21846
887.399	21751
887.523	21819
887.648	21724
887.773	21698
887.897	21800
888.021	21724
888.146	21637
888.27	21941
888.395	21926
888.519	21823
888.643	21694
888.767	21873
888.891	21709
889.015	21454
889.139	21534
889.263	21553
889.387	21660
889.511	21739
889.635	21728
889.759	21504
889.883	21439
890.006	21610
890.13	21576
890.254	21454
890.377	21462
890.501	21230
890.624	21222
890.748	21302
890.871	21207
890.995	21017
891.118	20982
891.241	21077
891.364	21039
891.488	21249
891.611	21108
891.734	21146
891.857	21199
891.98	21123
892.103	21085
892.226	21058
892.349	21127
892.471	20891
892.594	20910
892.717	20971
892.839	21047
892.962	21024
893.085	20975
893.207	20975
893.33	20842
893.452	20952
893.575	21096
893.697	20895
893.819	21112
893.941	21203
894.064	21089
894.186	20804
894.308	20956
894.43	21020
894.552	21119
894.674	21077
894.796	20762
894.918	20971
895.04	20887
895.161	20956
895.283	21024
895.405	20948
895.526	20982
895.648	20971
895.769	21039
895.891	21024
896.012	21077
896.134	21085
896.255	21001
896.376	20861
896.498	20941
896.619	20979
896.74	20967
896.861	21005
896.982	21321
897.103	21401
897.224	21161
897.345	21142
897.466	21096
897.587	21226
897.708	21355
897.828	21279
897.949	21024
898.07	21062
898.19	21058
898.311	21154
898.431	21051
898.552	21157
898.672	21203
898.792	21275
898.913	21245
899.033	21055
899.153	20963
899.273	20883
899.393	20758
899.513	20941
899.633	20914
899.753	20864
899.873	20804
899.993	20975
900.113	20705
900.232	20769
900.352	20731
900.472	20689
900.591	20678
900.711	20838
900.83	20598
900.95	20648
901.069	20670
901.189	20492
901.308	20252
901.427	20187
901.546	20191
901.665	20180
901.784	20164
901.904	20088
902.023	20031
902.141	19780
902.26	19719
902.379	19887
902.498	19780
902.617	19643
902.735	19784
902.854	19677
902.973	19712
903.091	19411
903.21	19419
903.328	19316
903.446	19255
903.565	19118
903.683	19206
903.801	19088
903.919	19110
904.038	19152
904.156	18909
904.274	18993
904.392	18935
904.51	18875
904.627	18947
904.745	18970
904.863	19012
904.981	18719
905.098	18616
905.216	18639
905.334	18646
905.451	18722
905.569	18536
905.686	18631
905.803	18711
905.921	18494
906.038	18517
906.155	18410
906.272	18216
906.389	18376
906.506	18152
906.623	18152
906.74	18106
906.857	18041
906.974	18102
907.091	18178
907.208	18228
907.324	18277
907.441	18060
907.557	17965
907.674	17897
907.79	17863
907.907	17878
908.023	17832
908.139	17859
908.256	17817
908.372	17821
908.488	17665
908.604	17653
908.72	17558
908.836	17630
908.952	17615
909.068	17627
909.184	17657
909.3	17509
909.415	17570
909.531	17497
909.647	17353
909.762	17204
909.878	17254
909.993	17273
910.108	17254
910.224	17307
910.339	17235
910.454	17079
910.57	17109
910.685	17113
910.8	17292
910.915	17220
911.03	17003
911.145	16854
911.259	16820
911.374	16854
911.489	16748
911.604	16637
911.718	16561
911.833	16573
911.947	16348
912.062	16417
912.176	16603
912.291	16630
912.405	16573
912.519	16816
912.633	16801
912.748	16592
912.862	16546
912.976	16462
913.09	16318
913.204	16242
913.318	16462
913.431	16550
913.545	16440
913.659	16489
913.772	16284
913.886	16223
914	16219
914.113	16265
914.226	16306
914.34	16185
914.453	15987
914.566	16211
914.68	16082
914.793	16021
914.906	15857
915.019	15785
915.132	15804
915.245	15694
915.358	15747
915.47	15793
915.583	15846
915.696	15694
915.809	15797
915.921	15937
916.034	15698
916.146	15648
916.259	15614
916.371	15793
916.483	15694
916.595	15557
916.708	15523
916.82	15629
916.932	15542
917.044	15538
917.156	15515
917.268	15447
917.38	15450
917.491	15408
917.603	15359
917.715	15462
917.826	15462
917.938	15389
918.049	15298
918.161	15264
918.272	15382
918.384	15488
918.495	15367
918.606	15199
918.717	15131
918.828	15192
918.939	15252
919.05	15062
919.161	15081
919.272	14952
919.383	14994
919.494	15138
919.604	15321
919.715	15131
919.826	15047
919.936	15081
920.047	15131
920.157	15119
920.267	15252
920.378	15077
920.488	15097
920.598	15329
920.708	15367
920.818	15249
920.928	15264
921.038	15485
921.148	15310
921.258	15020
921.368	14971
921.477	14800
921.587	14864
921.697	14754
921.806	14868
921.916	14720
922.025	14549
922.134	14495
922.244	14374
922.353	14552
922.462	14404
922.571	14396
922.68	14180
922.789	14016
922.898	14206
923.007	14043
923.116	14119
923.224	14088
923.333	14035
923.442	14039
923.55	14001
923.659	14016
923.767	14001
923.876	13963
923.984	13993
924.092	13856
924.201	13826
924.309	13826
924.417	13868
924.525	13780
924.633	13868
924.741	14777
924.849	13662
924.956	13746
925.064	13613
925.172	13495
925.279	13552
925.387	13521
925.494	13514
925.602	13655
925.709	13544
925.816	13445
925.924	13453
926.031	13506
926.138	13487
926.245	13548
926.352	13350
926.459	13510
926.566	13434
926.673	13346
926.779	13289
926.886	13175
926.993	13126
927.099	13080
927.206	13069
927.312	12970
927.419	13061
927.525	13065
927.631	13057
927.737	12920
927.843	12981
927.95	12829
928.056	12878
928.162	12932
928.267	12954
928.373	13453
928.479	12894
928.585	12741
928.69	12840
928.796	12829
928.901	12700
929.007	12574
929.112	12673
929.218	12669
929.323	12646
929.428	12585
929.533	12669
929.638	12593
929.743	12547
929.848	12582
929.953	12559
930.058	12407
930.163	12235
930.267	12266
930.372	12399
930.477	12201
930.581	12414
930.685	12251
930.79	12186
930.894	12213
930.998	11950
931.103	12323
931.207	11920
931.311	11794
931.415	11779
931.519	11600
931.623	11486
