Data from test_V78500241_2637.txt Node
Date: Fri Mar 25 16:00:04 CST 2022
User: usil
Spectrometer: V785-0024
Trigger mode: 0
Integration Time (sec): 4.000000E-1
Scans to average: 1
Nonlinearity correction enabled: false
Boxcar width: 0
Storing dark spectrum: false
XAxis mode: Wavelengths
Number of Pixels in Spectrum: 1024
>>>>>Begin Spectral Data<<<<<
801.071	28927
801.214	28949
801.356	28645
801.499	28584
801.641	28554
801.783	28615
801.926	28729
802.068	28596
802.211	28550
802.353	28474
802.496	28230
802.638	28185
802.78	28204
802.923	28143
803.065	28101
803.208	28276
803.35	28329
803.492	28436
803.635	28500
803.777	28455
803.919	28489
804.061	28854
804.204	28523
804.346	28432
804.488	28470
804.63	28409
804.773	28584
804.915	28554
805.057	28497
805.199	28470
805.341	28527
805.483	28660
805.626	28615
805.768	28569
805.91	28771
806.052	28637
806.194	28519
806.336	28866
806.478	28763
806.62	28706
806.762	28805
806.904	28938
807.046	29037
807.188	29094
807.33	29227
807.472	29083
807.614	29071
807.756	29159
807.898	28953
808.04	28953
808.182	29067
808.324	28995
808.465	29064
808.607	29292
808.749	29326
808.891	29341
809.033	29627
809.174	29429
809.316	29353
809.458	29406
809.6	29356
809.741	29455
809.883	29577
810.025	29661
810.166	29646
810.308	29570
810.45	29672
810.591	29482
810.733	29558
810.875	29360
811.016	29467
811.158	29269
811.299	29509
811.441	29570
811.582	29589
811.724	29520
811.865	29421
812.007	29406
812.148	29387
812.29	29493
812.431	29535
812.573	29767
812.714	29805
812.855	29882
812.997	29878
813.138	30087
813.279	30018
813.421	29935
813.562	29843
813.703	29737
813.845	29596
813.986	29406
814.127	29322
814.268	29064
814.41	29109
814.551	29117
814.692	29117
814.833	29109
814.974	29083
815.115	28957
815.256	29037
815.397	28923
815.539	29029
815.68	28873
815.821	28885
815.962	28904
816.103	28972
816.244	28706
816.385	28721
816.526	28687
816.666	28500
816.807	28588
816.948	28557
817.089	28542
817.23	28531
817.371	28356
817.512	28440
817.653	28455
817.793	28424
817.934	28580
818.075	28398
818.216	28367
818.356	28394
818.497	28382
818.638	28207
818.778	28128
818.919	28291
819.06	28325
819.2	28196
819.341	28508
819.481	28474
819.622	28592
819.762	28748
819.903	28653
820.043	28679
820.184	28603
820.324	28637
820.465	28649
820.605	28626
820.746	28599
820.886	28459
821.026	28531
821.167	28474
821.307	28626
821.447	28546
821.588	28344
821.728	28249
821.868	28143
822.008	27968
822.149	27861
822.289	28021
822.429	27686
822.569	27614
822.709	27656
822.849	27576
822.99	27340
823.13	27492
823.27	27382
823.41	27321
823.55	27173
823.69	27294
823.83	27150
823.97	27268
824.11	27093
824.25	27047
824.389	27070
824.529	27150
824.669	27119
824.809	27157
824.949	27233
825.089	27226
825.228	27165
825.368	26872
825.508	27020
825.648	26998
825.787	26994
825.927	27032
826.067	26986
826.206	27081
826.346	26960
826.485	27230
826.625	27020
826.765	27100
826.904	26994
827.044	26834
827.183	26773
827.323	26651
827.462	26674
827.601	26720
827.741	26708
827.88	26750
828.02	26594
828.159	26701
828.298	26701
828.437	26682
828.577	26613
828.716	26727
828.855	26632
828.994	26370
829.134	26377
829.273	26351
829.412	26324
829.551	26324
829.69	26317
829.829	26431
829.968	26434
830.107	26461
830.246	26317
830.385	26195
830.524	26362
830.663	26294
830.802	26020
830.941	25936
831.08	25997
831.219	26065
831.357	26092
831.496	26263
831.635	26012
831.774	26016
831.913	25887
832.051	25902
832.19	25746
832.329	25753
832.467	25738
832.606	25662
832.744	25468
832.883	25757
833.022	25578
833.16	25430
833.299	25632
833.437	25704
833.576	25753
833.714	25788
833.852	25765
833.991	25795
834.129	25723
834.267	25875
834.406	25845
834.544	25693
834.682	25833
834.821	25776
834.959	25818
835.097	25677
835.235	25746
835.373	25601
835.511	25719
835.65	25559
835.788	25685
835.926	25396
836.064	25285
836.202	25407
836.34	25476
836.478	25772
836.615	25483
836.753	25540
836.891	25586
837.029	25540
837.167	25495
837.305	25407
837.443	25422
837.58	25308
837.718	25369
837.856	25396
837.993	25331
838.131	25301
838.269	25107
838.406	25221
838.544	25183
838.681	25034
838.819	24901
838.956	24810
839.094	24916
839.231	24840
839.369	24943
839.506	25133
839.643	25084
839.781	24871
839.918	24734
840.055	24783
840.193	24684
840.33	24730
840.467	24730
840.604	24837
840.742	25072
840.879	24597
841.016	24738
841.153	24688
841.29	24837
841.427	24711
841.564	24757
841.701	24821
841.838	24601
841.975	24711
842.112	24642
842.249	24627
842.385	24471
842.522	24715
842.659	24540
842.796	24395
842.933	24566
843.069	24334
843.206	24391
843.343	24578
843.479	24467
843.616	24494
843.752	24209
843.889	24213
844.025	24319
844.162	24243
844.298	24441
844.435	24296
844.571	24148
844.708	24342
844.844	24418
844.98	24372
845.117	24353
845.253	24178
845.389	24049
845.525	24045
845.661	24190
845.798	24015
845.934	23954
846.07	23961
846.206	23901
846.342	24106
846.478	24015
846.614	23748
846.75	23619
846.886	23630
847.022	23764
847.158	23676
847.294	23687
847.429	23809
847.565	23646
847.701	23988
847.837	23486
847.972	23429
848.108	23486
848.244	23501
848.379	23356
848.515	23360
848.65	23406
848.786	23269
848.921	23368
849.057	23345
849.192	23326
849.328	23254
849.463	23220
849.598	23227
849.734	23220
849.869	23132
850.004	22976
850.14	23113
850.275	23185
850.41	23166
850.545	23102
850.68	23064
850.815	23071
850.95	22968
851.085	23155
851.22	23128
851.355	23022
851.49	22927
851.625	23022
851.76	23048
851.895	22866
852.03	23014
852.165	23029
852.299	23075
852.434	23155
852.569	23121
852.703	23151
852.838	23189
852.973	23220
853.107	23162
853.242	23041
853.376	22858
853.511	22721
853.645	22805
853.78	22919
853.914	22896
854.048	22763
854.183	22828
854.317	22961
854.451	23003
854.585	22987
854.72	22915
854.854	22946
854.988	22767
855.122	22923
855.256	22828
855.39	22866
855.524	23025
855.658	22919
855.792	22847
855.926	22984
856.06	22889
856.194	22938
856.327	22911
856.461	22862
856.595	22854
856.729	22911
856.862	22847
856.996	22961
857.13	22930
857.263	23018
857.397	22904
857.53	22949
857.664	22904
857.797	23033
857.931	22866
858.064	22953
858.197	23006
858.331	22896
858.464	22809
858.597	22706
858.731	22835
858.864	22847
858.997	22790
859.13	22866
859.263	22911
859.396	22965
859.529	22847
859.662	22828
859.795	22721
859.928	22866
860.061	23029
860.194	23124
860.327	22866
860.46	22904
860.592	23041
860.725	22896
860.858	23041
860.99	22877
861.123	22820
861.256	22820
861.388	22854
861.521	23707
861.653	22824
861.786	22565
861.918	22771
862.05	22748
862.183	22698
862.315	22771
862.447	22816
862.58	22858
862.712	22592
862.844	22508
862.976	22729
863.108	22698
863.24	22816
863.372	22584
863.504	22634
863.636	22516
863.768	22618
863.9	22698
864.032	22523
864.164	22630
864.296	22542
864.428	22679
864.559	22656
864.691	22721
864.823	22649
864.954	22569
865.086	22417
865.217	22417
865.349	22485
865.48	22379
865.612	22413
865.743	22580
865.875	22443
866.006	22432
866.137	22493
866.269	22485
866.4	22371
866.531	22569
866.662	22447
866.793	22367
866.924	22409
867.055	22367
867.186	22409
867.317	22249
867.448	22314
867.579	22272
867.71	22394
867.841	22230
867.972	22436
868.103	22211
868.233	22382
868.364	22413
868.495	22440
868.625	22618
868.756	22611
868.886	22516
869.017	22538
869.147	22812
869.278	22683
869.408	22550
869.539	22664
869.669	22763
869.799	22607
869.929	22755
870.06	22736
870.19	22911
870.32	23041
870.45	22919
870.58	23102
870.71	23067
870.84	23098
870.97	22995
871.1	23014
871.23	23200
871.36	23181
871.489	23143
871.619	23094
871.749	23277
871.879	23239
872.008	23220
872.138	23258
872.267	23220
872.397	22938
872.526	23079
872.656	23044
872.785	22980
872.915	23273
873.044	23322
873.173	23189
873.303	23296
873.432	23307
873.561	23303
873.69	23311
873.819	23189
873.948	23360
874.077	23121
874.206	23242
874.335	23098
874.464	23311
874.593	23417
874.722	23436
874.851	23581
874.979	23364
875.108	23349
875.237	23478
875.365	23269
875.494	23425
875.623	23474
875.751	23501
875.88	23531
876.008	23512
876.136	23634
876.265	23851
876.393	23832
876.521	23946
876.65	23973
876.778	23714
876.906	23737
877.034	23779
877.162	23760
877.29	23824
877.418	23794
877.546	23889
877.674	23828
877.802	23809
877.93	23832
878.058	23684
878.185	23630
878.313	23615
878.441	23718
878.568	23589
878.696	23729
878.824	23783
878.951	23767
879.079	23927
879.206	24095
879.333	23984
879.461	23832
879.588	23942
879.715	23939
879.842	23965
879.97	23748
880.097	23710
880.224	23512
880.351	23661
880.478	23585
880.605	23604
880.732	23680
880.859	23726
880.986	23558
881.112	23649
881.239	23334
881.366	23299
881.493	23334
881.619	23102
881.746	23200
881.872	23189
881.999	23056
882.125	23113
882.252	23159
882.378	23227
882.505	23094
882.631	23044
882.757	22892
882.883	22900
883.01	22987
883.136	22790
883.262	22702
883.388	22733
883.514	22797
883.64	22908
883.766	22729
883.892	22603
884.018	22603
884.143	22816
884.269	22801
884.395	22500
884.52	22443
884.646	22535
884.772	22493
884.897	22443
885.023	22436
885.148	22565
885.274	22622
885.399	22455
885.524	22310
885.65	22462
885.775	22497
885.9	22402
886.025	22565
886.15	22485
886.275	22341
886.4	22455
886.525	22314
886.65	22299
886.775	22333
886.9	22542
887.025	22649
887.149	22512
887.274	22280
887.399	22177
887.523	22265
887.648	22234
887.773	22135
887.897	22322
888.021	22318
888.146	22223
888.27	22234
888.395	22276
888.519	22246
888.643	22173
888.767	22246
888.891	22074
889.015	22013
889.139	22006
889.263	22021
889.387	21983
889.511	22093
889.635	22147
889.759	22063
889.883	22036
890.006	21926
890.13	22139
890.254	22120
890.377	21918
890.501	21736
890.624	21568
890.748	21857
890.871	21667
890.995	21534
891.118	21492
891.241	21511
891.364	21557
891.488	21644
891.611	21507
891.734	21511
891.857	21641
891.98	21416
892.103	21595
892.226	21462
892.349	21450
892.471	21462
892.594	21481
892.717	21504
892.839	21420
892.962	21431
893.085	21538
893.207	21416
893.33	21283
893.452	21389
893.575	21473
893.697	21408
893.819	21458
893.941	21523
894.064	21496
894.186	21348
894.308	21340
894.43	21420
894.552	21572
894.674	21473
894.796	21340
894.918	21424
895.04	21408
895.161	21329
895.283	21458
895.405	21393
895.526	21336
895.648	21405
895.769	21351
895.891	21393
896.012	21447
896.134	21420
896.255	21443
896.376	21306
896.498	21424
896.619	21412
896.74	21340
896.861	21439
896.982	21766
897.103	21728
897.224	21610
897.345	21747
897.466	21534
897.587	21652
897.708	21644
897.828	21641
897.949	21496
898.07	21462
898.19	21439
898.311	21652
898.431	21519
898.552	21595
898.672	21679
898.792	21701
898.913	21542
899.033	21504
899.153	21317
899.273	21291
899.393	21272
899.513	21298
899.633	21393
899.753	21462
899.873	21218
899.993	21329
900.113	21249
900.232	21241
900.352	21283
900.472	21116
900.591	21024
900.711	21051
900.83	20925
900.95	21226
901.069	21096
901.189	21093
901.308	20743
901.427	20602
901.546	20575
901.665	20629
901.784	20648
901.904	20511
902.023	20377
902.141	20195
902.26	20278
902.379	20248
902.498	20119
902.617	20107
902.735	20134
902.854	20119
902.973	20046
903.091	19799
903.21	19788
903.328	19803
903.446	19666
903.565	19578
903.683	19480
903.801	19582
903.919	19502
904.038	19400
904.156	19369
904.274	19487
904.392	19419
904.51	19263
904.627	19301
904.745	19441
904.863	19362
904.981	19225
905.098	19004
905.216	19141
905.334	19050
905.451	19034
905.569	19069
905.686	19053
905.803	19012
905.921	18772
906.038	18894
906.155	18920
906.272	18696
906.389	18764
906.506	18532
906.623	18532
906.74	18471
906.857	18376
906.974	18414
907.091	18521
907.208	18665
907.324	18612
907.441	18464
907.557	18277
907.674	18258
907.79	18125
907.907	18300
908.023	18289
908.139	18277
908.256	18102
908.372	18045
908.488	18163
908.604	18015
908.72	17931
908.836	17996
908.952	17885
909.068	17908
909.184	18041
909.3	18019
909.415	17950
909.531	17996
909.647	17817
909.762	17619
909.878	17566
909.993	17665
910.108	17608
910.224	17592
910.339	17684
910.454	17509
910.57	17539
910.685	17395
910.8	17611
910.915	17634
911.03	17436
911.145	17231
911.259	17155
911.374	17212
911.489	17162
911.604	17128
911.718	16930
911.833	16987
911.947	16877
912.062	16793
912.176	16900
912.291	16949
912.405	16995
912.519	17136
912.633	17025
912.748	16968
912.862	16908
912.976	16702
913.09	16618
913.204	16634
913.318	16733
913.431	16774
913.545	16824
913.659	16778
913.772	16687
913.886	16622
914	16512
914.113	16611
914.226	16645
914.34	16569
914.453	16394
914.566	16558
914.68	16417
914.793	16306
914.906	16150
915.019	16105
915.132	16063
915.245	16090
915.358	16086
915.47	16177
915.583	16139
915.696	16143
915.809	16196
915.921	16238
916.034	16036
916.146	16040
916.259	15960
916.371	16097
916.483	16051
916.595	15899
916.708	15953
916.82	16048
916.932	15903
917.044	15865
917.156	15785
917.268	15759
917.38	15739
917.491	15759
917.603	15705
917.715	15861
917.826	15823
917.938	15675
918.049	15599
918.161	15713
918.272	15759
918.384	15903
918.495	15743
918.606	15488
918.717	15492
918.828	15488
918.939	15481
919.05	15348
919.161	15424
919.272	15348
919.383	15344
919.494	15511
919.604	15751
919.715	15523
919.826	15405
919.936	15504
920.047	15534
920.157	15549
920.267	15656
920.378	15496
920.488	15378
920.598	15603
920.708	15648
920.818	15523
920.928	15618
921.038	15686
921.148	15789
921.258	15351
921.368	15359
921.477	15207
921.587	15169
921.697	14998
921.806	15165
921.916	15157
922.025	14918
922.134	14777
922.244	14773
922.353	14796
922.462	14727
922.571	14575
922.68	14454
922.789	14499
922.898	14434
923.007	14473
923.116	14404
923.224	14461
923.333	14377
923.442	14256
923.55	14298
923.659	14282
923.767	14275
923.876	14210
923.984	14214
924.092	14084
924.201	14221
924.309	14115
924.417	14138
924.525	14050
924.633	14005
924.741	14956
924.849	13906
924.956	13993
925.064	13875
925.172	13674
925.279	13795
925.387	13837
925.494	13734
925.602	13951
925.709	13814
925.816	13655
925.924	13742
926.031	13845
926.138	13780
926.245	13830
926.352	13590
926.459	13746
926.566	13772
926.673	13620
926.779	13464
926.886	13400
926.993	13453
927.099	13373
927.206	13301
927.312	13282
927.419	13407
927.525	13282
927.631	13285
927.737	13209
927.843	13198
927.95	13080
928.056	13126
928.162	13251
928.267	13118
928.373	13628
928.479	13183
928.585	12973
928.69	13095
928.796	13065
928.901	13050
929.007	12814
929.112	12989
929.218	12928
929.323	12863
929.428	12909
929.533	12901
929.638	12844
929.743	12776
929.848	12825
929.953	12768
930.058	12757
930.163	12498
930.267	12536
930.372	12646
930.477	12429
930.581	12738
930.685	12635
930.79	12403
930.894	12418
930.998	12357
931.103	12460
931.207	12186
931.311	12041
931.415	11969
931.519	11745
931.623	11710
