Data from test_V78500241_65.txt Node
Date: Fri Mar 25 15:42:15 CST 2022
User: usil
Spectrometer: V785-0024
Trigger mode: 0
Integration Time (sec): 4.000000E-1
Scans to average: 1
Nonlinearity correction enabled: false
Boxcar width: 0
Storing dark spectrum: false
XAxis mode: Wavelengths
Number of Pixels in Spectrum: 1024
>>>>>Begin Spectral Data<<<<<
801.071	29802
801.214	29665
801.356	29703
801.499	29524
801.641	29353
801.783	29375
801.926	29463
802.068	29280
802.211	29124
802.353	29181
802.496	29090
802.638	29025
802.78	28995
802.923	28904
803.065	28854
803.208	28991
803.35	28972
803.492	29094
803.635	29090
803.777	29014
803.919	29128
804.061	29299
804.204	29155
804.346	29128
804.488	29079
804.63	28976
804.773	28938
804.915	28991
805.057	29140
805.199	29105
805.341	29105
805.483	29200
805.626	29174
805.768	29067
805.91	29128
806.052	29143
806.194	29056
806.336	29440
806.478	29018
806.62	29048
806.762	29265
806.904	29345
807.046	29802
807.188	29668
807.33	29623
807.472	29634
807.614	29497
807.756	29417
807.898	29242
808.04	29296
808.182	29250
808.324	29356
808.465	29364
808.607	29501
808.749	29627
808.891	29699
809.033	29889
809.174	29695
809.316	29668
809.458	29661
809.6	29687
809.741	29752
809.883	29843
810.025	29862
810.166	29965
810.308	29889
810.45	29980
810.591	29847
810.733	29680
810.875	29703
811.016	29520
811.158	29528
811.299	29729
811.441	29821
811.582	29809
811.724	29676
811.865	29630
812.007	29573
812.148	29592
812.29	29665
812.431	29882
812.573	29946
812.714	30045
812.855	30053
812.997	30095
813.138	30323
813.279	30273
813.421	30159
813.562	30060
813.703	29840
813.845	29775
813.986	29463
814.127	29250
814.268	29143
814.41	29265
814.551	29326
814.692	29254
814.833	29200
814.974	29071
815.115	29170
815.256	29086
815.397	29098
815.539	29170
815.68	28972
815.821	28843
815.962	29033
816.103	28999
816.244	28850
816.385	28778
816.526	28664
816.666	28550
816.807	28280
816.948	28360
817.089	28443
817.23	28405
817.371	28257
817.512	28272
817.653	28211
817.793	28318
817.934	28272
818.075	28303
818.216	28185
818.356	28230
818.497	28150
818.638	28029
818.778	27953
818.919	28116
819.06	28078
819.2	28143
819.341	28261
819.481	28090
819.622	28280
819.762	28527
819.903	28310
820.043	28405
820.184	28413
820.324	28333
820.465	28352
820.605	28230
820.746	28310
820.886	28063
821.026	28303
821.167	28200
821.307	28272
821.447	28253
821.588	28162
821.728	27983
821.868	27793
822.008	27743
822.149	27606
822.289	27629
822.429	27427
822.569	27367
822.709	27302
822.849	27154
822.99	27154
823.13	27116
823.27	27081
823.41	26906
823.55	26864
823.69	26948
823.83	26906
823.97	26743
824.11	26712
824.25	26750
824.389	26754
824.529	26731
824.669	26568
824.809	26906
824.949	26765
825.089	26773
825.228	26720
825.368	26670
825.508	26511
825.648	26503
825.787	26613
825.927	26564
826.067	26442
826.206	26507
826.346	26453
826.485	26602
826.625	26571
826.765	26636
826.904	26427
827.044	26286
827.183	26153
827.323	26240
827.462	26233
827.601	26126
827.741	26031
827.88	26259
828.02	25978
828.159	26191
828.298	26187
828.437	26339
828.577	26138
828.716	26328
828.855	26130
828.994	25932
829.134	25833
829.273	25845
829.412	25780
829.551	25803
829.69	25833
829.829	25841
829.968	25856
830.107	25799
830.246	25647
830.385	25814
830.524	25575
830.663	25689
830.802	25415
830.941	25457
831.08	25339
831.219	25400
831.357	25487
831.496	25529
831.635	25308
831.774	25289
831.913	25217
832.051	25129
832.19	25099
832.329	25114
832.467	24981
832.606	25004
832.744	24844
832.883	24867
833.022	24829
833.16	25034
833.299	25008
833.437	24905
833.576	25012
833.714	24916
833.852	24913
833.991	24913
834.129	25107
834.267	25053
834.406	25129
834.544	24947
834.682	24943
834.821	24943
834.959	25110
835.097	24795
835.235	24977
835.373	24958
835.511	24935
835.65	24745
835.788	24810
835.926	24673
836.064	24703
836.202	24665
836.34	24852
836.478	24814
836.615	24726
836.753	24700
836.891	24821
837.029	24703
837.167	24639
837.305	24582
837.443	24696
837.58	24559
837.718	24665
837.856	24654
837.993	24475
838.131	24745
838.269	24429
838.406	24437
838.544	24369
838.681	24152
838.819	24292
838.956	24007
839.094	24041
839.231	24083
839.369	24136
839.506	24380
839.643	24296
839.781	23935
839.918	23859
840.055	23904
840.193	23920
840.33	23813
840.467	23855
840.604	23935
840.742	24018
840.879	23729
841.016	23824
841.153	23699
841.29	23916
841.427	23767
841.564	23847
841.701	23882
841.838	23775
841.975	23733
842.112	23676
842.249	23642
842.385	23676
842.522	23809
842.659	23752
842.796	23630
842.933	23596
843.069	23524
843.206	23425
843.343	23638
843.479	23505
843.616	23486
843.752	23315
843.889	23269
844.025	23341
844.162	23288
844.298	23322
844.435	23239
844.571	23307
844.708	23356
844.844	23448
844.98	23433
845.117	23292
845.253	23242
845.389	23105
845.525	23155
845.661	23048
845.798	22862
845.934	23056
846.07	22911
846.206	23071
846.342	23044
846.478	22934
846.614	22763
846.75	22649
846.886	22675
847.022	22763
847.158	22694
847.294	22618
847.429	22683
847.565	22577
847.701	22930
847.837	22371
847.972	22375
848.108	22577
848.244	22417
848.379	22356
848.515	22238
848.65	22223
848.786	22185
848.921	22284
849.057	22219
849.192	22303
849.328	22173
849.463	22200
849.598	22246
849.734	22185
849.869	22036
850.004	22036
850.14	22036
850.275	21987
850.41	21743
850.545	21964
850.68	21827
850.815	21865
850.95	21968
851.085	22158
851.22	22063
851.355	22036
851.49	21846
851.625	21911
851.76	21789
851.895	21724
852.03	21854
852.165	21964
852.299	21915
852.434	21911
852.569	21926
852.703	21915
852.838	22006
852.973	21945
853.107	22002
853.242	21937
853.376	21690
853.511	21656
853.645	21751
853.78	21800
853.914	21713
854.048	21641
854.183	21618
854.317	21660
854.451	21831
854.585	21606
854.72	21648
854.854	21793
854.988	21641
855.122	21637
855.256	21583
855.39	21618
855.524	21660
855.658	21542
855.792	21705
855.926	21694
856.06	21739
856.194	21797
856.327	21755
856.461	21591
856.595	21644
856.729	21701
856.862	21652
856.996	21778
857.13	21713
857.263	21797
857.397	21709
857.53	21534
857.664	21709
857.797	21652
857.931	21629
858.064	21622
858.197	21766
858.331	21599
858.464	21606
858.597	21462
858.731	21580
858.864	21580
858.997	21572
859.13	21622
859.263	21587
859.396	21720
859.529	21587
859.662	21507
859.795	21557
859.928	21587
860.061	21793
860.194	21797
860.327	21618
860.46	21679
860.592	21759
860.725	21671
860.858	21492
860.99	21534
861.123	21561
861.256	21496
861.388	21633
861.521	22295
861.653	21378
861.786	21397
861.918	21424
862.05	21599
862.183	21663
862.315	21709
862.447	21774
862.58	21481
862.712	21393
862.844	21370
862.976	21420
863.108	21428
863.24	21690
863.372	21195
863.504	21393
863.636	21393
863.768	21370
863.9	21382
864.032	21249
864.164	21199
864.296	21287
864.428	21458
864.559	21268
864.691	21389
864.823	21283
864.954	21096
865.086	21264
865.217	21188
865.349	20998
865.48	21150
865.612	21180
865.743	21317
865.875	21093
866.006	21157
866.137	21218
866.269	21165
866.4	21169
866.531	21119
866.662	21013
866.793	21055
866.924	21131
867.055	21195
867.186	21173
867.317	20941
867.448	20925
867.579	20918
867.71	21112
867.841	20994
867.972	21169
868.103	21081
868.233	21074
868.364	21146
868.495	21268
868.625	21310
868.756	21492
868.886	21169
869.017	21329
869.147	21336
869.278	21310
869.408	21408
869.539	21332
869.669	21344
869.799	21310
869.929	21374
870.06	21431
870.19	21682
870.32	21557
870.45	21641
870.58	21667
870.71	21823
870.84	21937
870.97	21587
871.1	21690
871.23	21842
871.36	21907
871.489	21770
871.619	21850
871.749	21842
871.879	21911
872.008	21861
872.138	21884
872.267	21941
872.397	21671
872.526	21743
872.656	21732
872.785	21755
872.915	21785
873.044	22006
873.173	21930
873.303	22025
873.432	21972
873.561	22025
873.69	22032
873.819	21937
873.948	22078
874.077	21892
874.206	21789
874.335	21842
874.464	22135
874.593	22109
874.722	22120
874.851	22139
874.979	22207
875.108	22268
875.237	22082
875.365	22063
875.494	22219
875.623	22200
875.751	22105
875.88	22181
876.008	22341
876.136	22466
876.265	22493
876.393	22679
876.521	22561
876.65	22546
876.778	22542
876.906	22489
877.034	22523
877.162	22504
877.29	22493
877.418	22451
877.546	22527
877.674	22447
877.802	22481
877.93	22504
878.058	22447
878.185	22421
878.313	22470
878.441	22588
878.568	22310
878.696	22390
878.824	22607
878.951	22603
879.079	22675
879.206	22774
879.333	22645
879.461	22413
879.588	22577
879.715	22637
879.842	22653
879.97	22451
880.097	22424
880.224	22417
880.351	22436
880.478	22398
880.605	22173
880.732	22173
880.859	22474
880.986	22352
881.112	22360
881.239	22295
881.366	22116
881.493	22006
881.619	21854
881.746	21915
881.872	21873
881.999	21953
882.125	21804
882.252	21922
882.378	21880
882.505	22086
882.631	21850
882.757	21778
882.883	21701
883.01	21724
883.136	21583
883.262	21458
883.388	21428
883.514	21671
883.64	21686
883.766	21603
883.892	21530
884.018	21405
884.143	21641
884.269	21660
884.395	21485
884.52	21233
884.646	21245
884.772	21192
884.897	21108
885.023	21291
885.148	21249
885.274	21447
885.399	21302
885.524	21260
885.65	21378
885.775	21249
885.9	21306
886.025	21310
886.15	21401
886.275	21214
886.4	21009
886.525	21306
886.65	21245
886.775	21169
886.9	21226
887.025	21443
887.149	21173
887.274	21036
887.399	20876
887.523	20921
887.648	20876
887.773	20918
887.897	21096
888.021	21009
888.146	20876
888.27	20891
888.395	21028
888.519	21024
888.643	20963
888.767	20956
888.891	20796
889.015	20857
889.139	20842
889.263	20788
889.387	20815
889.511	20925
889.635	20804
889.759	20746
889.883	20743
890.006	20746
890.13	20864
890.254	20659
890.377	20697
890.501	20495
890.624	20442
890.748	20552
890.871	20434
890.995	20343
891.118	20320
891.241	20362
891.364	20415
891.488	20476
891.611	20385
891.734	20286
891.857	20396
891.98	20324
892.103	20370
892.226	20320
892.349	20183
892.471	20111
892.594	20282
892.717	20256
892.839	20180
892.962	20157
893.085	20263
893.207	20309
893.33	20252
893.452	20161
893.575	20317
893.697	20183
893.819	20271
893.941	20438
894.064	20351
894.186	20058
894.308	20202
894.43	20282
894.552	20328
894.674	20290
894.796	20062
894.918	20134
895.04	20225
895.161	20343
895.283	20229
895.405	20195
895.526	20157
895.648	20328
895.769	20157
895.891	20290
896.012	20301
896.134	20309
896.255	20301
896.376	20309
896.498	20301
896.619	20438
896.74	20229
896.861	20259
896.982	20621
897.103	20697
897.224	20545
897.345	20526
897.466	20522
897.587	20549
897.708	20590
897.828	20427
897.949	20431
898.07	20309
898.19	20393
898.311	20476
898.431	20480
898.552	20442
898.672	20434
898.792	20431
898.913	20347
899.033	20183
899.153	20145
899.273	20065
899.393	20126
899.513	20100
899.633	20103
899.753	20176
899.873	20065
899.993	20035
900.113	20046
900.232	20043
900.352	20115
900.472	19989
900.591	19856
900.711	19940
900.83	19871
900.95	19982
901.069	19947
901.189	19750
901.308	19643
901.427	19460
901.546	19556
901.665	19556
901.784	19472
901.904	19468
902.023	19236
902.141	19114
902.26	18958
902.379	19152
902.498	19034
902.617	18973
902.735	18962
902.854	18958
902.973	18848
903.091	18646
903.21	18574
903.328	18658
903.446	18585
903.565	18494
903.683	18452
903.801	18357
903.919	18380
904.038	18353
904.156	18232
904.274	18315
904.392	18197
904.51	18205
904.627	18148
904.745	18277
904.863	18315
904.981	17950
905.098	17859
905.216	17973
905.334	17908
905.451	17836
905.569	17817
905.686	17874
905.803	17866
905.921	17764
906.038	17733
906.155	17657
906.272	17471
906.389	17619
906.506	17452
906.623	17387
906.74	17376
906.857	17250
906.974	17288
907.091	17482
907.208	17528
907.324	17368
907.441	17372
907.557	17033
907.674	17170
907.79	17124
907.907	16919
908.023	17014
908.139	17170
908.256	17022
908.372	16839
908.488	16885
908.604	16748
908.72	16740
908.836	16850
908.952	16733
909.068	16774
909.184	16873
909.3	16771
909.415	16790
909.531	16744
909.647	16432
909.762	16424
909.878	16432
909.993	16485
910.108	16295
910.224	16348
910.339	16363
910.454	16352
910.57	16261
910.685	16226
910.8	16447
910.915	16310
911.03	16192
911.145	16074
911.259	15987
911.374	15968
911.489	15854
911.604	15812
911.718	15804
911.833	15778
911.947	15644
912.062	15739
912.176	15793
912.291	15869
912.405	15736
912.519	16002
912.633	15922
912.748	15766
912.862	15686
912.976	15466
913.09	15504
913.204	15496
913.318	15500
913.431	15595
913.545	15671
913.659	15648
913.772	15488
913.886	15344
914	15344
914.113	15466
914.226	15511
914.34	15397
914.453	15325
914.566	15408
914.68	15317
914.793	15211
914.906	15051
915.019	14979
915.132	14960
915.245	15058
915.358	15005
915.47	15028
915.583	15051
915.696	15116
915.809	15112
915.921	15135
916.034	14975
916.146	14830
916.259	14868
916.371	15005
916.483	14937
916.595	14769
916.708	14807
916.82	14887
916.932	14746
917.044	14750
917.156	14807
917.268	14659
917.38	14594
917.491	14587
917.603	14705
917.715	14720
917.826	14746
917.938	14571
918.049	14461
918.161	14499
918.272	14785
918.384	14720
918.495	14613
918.606	14381
918.717	14370
918.828	14404
918.939	14450
919.05	14240
919.161	14332
919.272	14115
919.383	14248
919.494	14400
919.604	14419
919.715	14259
919.826	14256
919.936	14301
920.047	14400
920.157	14400
920.267	14518
920.378	14377
920.488	14290
920.598	14499
920.708	14594
920.818	14480
920.928	14408
921.038	14602
921.148	14533
921.258	14313
921.368	14187
921.477	14176
921.587	14043
921.697	13849
921.806	13993
921.916	13928
922.025	13780
922.134	13620
922.244	13727
922.353	13658
922.462	13575
922.571	13499
922.68	13453
922.789	13362
922.898	13316
923.007	13244
923.116	13350
923.224	13236
923.333	13251
923.442	13122
923.55	13110
923.659	13129
923.767	13225
923.876	13057
923.984	13152
924.092	13015
924.201	13126
924.309	12985
924.417	13031
924.525	13057
924.633	12935
924.741	13883
924.849	12802
924.956	12920
925.064	12810
925.172	12696
925.279	12673
925.387	12684
925.494	12757
925.602	12829
925.709	12798
925.816	12684
925.924	12688
926.031	12772
926.138	12646
926.245	12726
926.352	12536
926.459	12650
926.566	12791
926.673	12467
926.779	12479
926.886	12490
926.993	12410
927.099	12350
927.206	12308
927.312	12357
927.419	12372
927.525	12353
927.631	12224
927.737	12197
927.843	12060
927.95	12045
928.056	12197
928.162	12197
928.267	12163
928.373	12795
928.479	12182
928.585	11958
928.69	12015
928.796	12152
928.901	12011
929.007	11855
929.112	12003
929.218	11870
929.323	11855
929.428	11878
929.533	11992
929.638	11802
929.743	11927
929.848	11897
929.953	11794
930.058	11756
930.163	11516
930.267	11577
930.372	11726
930.477	11528
930.581	11676
930.685	11600
930.79	11467
930.894	11459
930.998	11417
931.103	11493
931.207	11143
931.311	11052
931.415	10976
931.519	10778
931.623	10763
