Data from test_V78500241_607.txt Node
Date: Fri Mar 25 15:46:00 CST 2022
User: usil
Spectrometer: V785-0024
Trigger mode: 0
Integration Time (sec): 4.000000E-1
Scans to average: 1
Nonlinearity correction enabled: false
Boxcar width: 0
Storing dark spectrum: false
XAxis mode: Wavelengths
Number of Pixels in Spectrum: 1024
>>>>>Begin Spectral Data<<<<<
801.071	27542
801.214	27538
801.356	27298
801.499	27096
801.641	27043
801.783	27062
801.926	27123
802.068	27123
802.211	27077
802.353	27001
802.496	26792
802.638	26811
802.78	26769
802.923	26606
803.065	26754
803.208	26670
803.35	26853
803.492	26910
803.635	26929
803.777	26781
803.919	26899
804.061	27211
804.204	27036
804.346	26765
804.488	26769
804.63	26811
804.773	26826
804.915	26895
805.057	26929
805.199	26887
805.341	27070
805.483	27028
805.626	27108
805.768	27001
805.91	27108
806.052	27142
806.194	26921
806.336	27222
806.478	27180
806.62	26975
806.762	27112
806.904	27363
807.046	27663
807.188	27488
807.33	27496
807.472	27519
807.614	27424
807.756	27431
807.898	27397
808.04	27370
808.182	27252
808.324	27401
808.465	27279
808.607	27458
808.749	27656
808.891	27774
809.033	27903
809.174	27804
809.316	27679
809.458	27739
809.6	27675
809.741	27918
809.883	27895
810.025	27975
810.166	27842
810.308	27991
810.45	28063
810.591	27930
810.733	27793
810.875	27606
811.016	27644
811.158	27591
811.299	27694
811.441	27926
811.582	27816
811.724	27667
811.865	27610
812.007	27599
812.148	27644
812.29	27835
812.431	27846
812.573	28070
812.714	27941
812.855	28219
812.997	28226
813.138	28428
813.279	28417
813.421	28310
813.562	28219
813.703	28010
813.845	27869
813.986	27610
814.127	27439
814.268	27420
814.41	27431
814.551	27363
814.692	27427
814.833	27336
814.974	27416
815.115	27359
815.256	27252
815.397	27329
815.539	27256
815.68	27089
815.821	27138
815.962	27138
816.103	26944
816.244	27081
816.385	26883
816.526	26971
816.666	26743
816.807	26689
816.948	26762
817.089	26880
817.23	26640
817.371	26655
817.512	26640
817.653	26663
817.793	26609
817.934	26667
818.075	26560
818.216	26602
818.356	26712
818.497	26499
818.638	26400
818.778	26336
818.919	26313
819.06	26396
819.2	26537
819.341	26625
819.481	26689
819.622	26625
819.762	26944
819.903	26826
820.043	26682
820.184	26754
820.324	26705
820.465	26724
820.605	26708
820.746	26659
820.886	26571
821.026	26678
821.167	26815
821.307	26746
821.447	26621
821.588	26492
821.728	26533
821.868	26202
822.008	26119
822.149	26149
822.289	26024
822.429	25860
822.569	25696
822.709	25746
822.849	25655
822.99	25712
823.13	25639
823.27	25548
823.41	25468
823.55	25457
823.69	25350
823.83	25365
823.97	25377
824.11	25259
824.25	25175
824.389	25179
824.529	25289
824.669	25244
824.809	25350
824.949	25304
825.089	25346
825.228	25293
825.368	25061
825.508	25114
825.648	25213
825.787	25137
825.927	25145
826.067	24981
826.206	25065
826.346	25114
826.485	25118
826.625	25046
826.765	25274
826.904	25129
827.044	24840
827.183	24913
827.323	24707
827.462	24909
827.601	24894
827.741	24677
827.88	24760
828.02	24779
828.159	24753
828.298	24840
828.437	24867
828.577	24814
828.716	24760
828.855	24764
828.994	24494
829.134	24540
829.273	24627
829.412	24521
829.551	24448
829.69	24498
829.829	24608
829.968	24722
830.107	24631
830.246	24464
830.385	24486
830.524	24422
830.663	24209
830.802	24262
830.941	24110
831.08	24022
831.219	24277
831.357	24159
831.496	24384
831.635	24015
831.774	24026
831.913	23908
832.051	23901
832.19	23942
832.329	23923
832.467	23851
832.606	23733
832.744	23802
832.883	23748
833.022	23737
833.16	23745
833.299	23901
833.437	23885
833.576	23859
833.714	23923
833.852	23851
833.991	23988
834.129	24011
834.267	23950
834.406	23904
834.544	23939
834.682	23946
834.821	23710
834.959	23996
835.097	23786
835.235	23908
835.373	23745
835.511	23821
835.65	23676
835.788	23505
835.926	23585
836.064	23516
836.202	23505
836.34	23600
836.478	23680
836.615	23611
836.753	23657
836.891	23779
837.029	23741
837.167	23687
837.305	23547
837.443	23573
837.58	23528
837.718	23619
837.856	23608
837.993	23303
838.131	23493
838.269	23406
838.406	23410
838.544	23326
838.681	23337
838.819	23239
838.956	23052
839.094	22961
839.231	22949
839.369	23170
839.506	23398
839.643	23178
839.781	23041
839.918	23071
840.055	23075
840.193	22835
840.33	22847
840.467	22866
840.604	22904
840.742	23143
840.879	22763
841.016	22873
841.153	22687
841.29	23056
841.427	22987
841.564	22968
841.701	22972
841.838	22843
841.975	22934
842.112	22824
842.249	22615
842.385	22698
842.522	22934
842.659	22767
842.796	22698
842.933	22694
843.069	22660
843.206	22626
843.343	22771
843.479	22683
843.616	22611
843.752	22329
843.889	22432
844.025	22603
844.162	22474
844.298	22557
844.435	22497
844.571	22382
844.708	22565
844.844	22641
844.98	22398
845.117	22626
845.253	22523
845.389	22211
845.525	22409
845.661	22322
845.798	22192
845.934	22177
846.07	22188
846.206	22280
846.342	22287
846.478	22101
846.614	21915
846.75	21880
846.886	21899
847.022	21941
847.158	22010
847.294	21911
847.429	22025
847.565	21861
847.701	22055
847.837	21667
847.972	21610
848.108	21751
848.244	21686
848.379	21618
848.515	21481
848.65	21507
848.786	21523
848.921	21496
849.057	21492
849.192	21538
849.328	21519
849.463	21583
849.598	21469
849.734	21313
849.869	21306
850.004	21348
850.14	21272
850.275	21142
850.41	21135
850.545	21180
850.68	21207
850.815	21245
850.95	21291
851.085	21332
851.22	21279
851.355	21272
851.49	21199
851.625	21203
851.76	21188
851.895	21199
852.03	21165
852.165	21355
852.299	21321
852.434	21310
852.569	21310
852.703	21332
852.838	21302
852.973	21332
853.107	21424
853.242	21123
853.376	21157
853.511	20876
853.645	21138
853.78	21268
853.914	21119
854.048	21020
854.183	21157
854.317	21093
854.451	21370
854.585	21070
854.72	21074
854.854	21161
854.988	20990
855.122	21005
855.256	21089
855.39	20982
855.524	21020
855.658	21173
855.792	21066
855.926	21119
856.06	21184
856.194	21203
856.327	21161
856.461	21089
856.595	21104
856.729	21017
856.862	21237
856.996	21123
857.13	21161
857.263	21222
857.397	21180
857.53	21020
857.664	21127
857.797	21150
857.931	21116
858.064	21146
858.197	21264
858.331	21081
858.464	21013
858.597	21001
858.731	21055
858.864	20971
858.997	21032
859.13	21001
859.263	21123
859.396	21123
859.529	21081
859.662	21009
859.795	20960
859.928	21085
860.061	21256
860.194	21321
860.327	21036
860.46	21062
860.592	21252
860.725	21275
860.858	21100
860.99	21150
861.123	21093
861.256	20925
861.388	21161
861.521	21751
861.653	20918
861.786	20883
861.918	20899
862.05	21020
862.183	20979
862.315	21028
862.447	21142
862.58	21047
862.712	20781
862.844	20765
862.976	20883
863.108	20944
863.24	21230
863.372	20659
863.504	20807
863.636	20807
863.768	20727
863.9	20769
864.032	20678
864.164	20788
864.296	20807
864.428	20811
864.559	20811
864.691	20796
864.823	20796
864.954	20857
865.086	20773
865.217	20731
865.349	20674
865.48	20720
865.612	20640
865.743	20883
865.875	20701
866.006	20545
866.137	20724
866.269	20651
866.4	20594
866.531	20629
866.662	20575
866.793	20602
866.924	20541
867.055	20560
867.186	20621
867.317	20530
867.448	20393
867.579	20533
867.71	20495
867.841	20587
867.972	20674
868.103	20606
868.233	20568
868.364	20625
868.495	20739
868.625	20796
868.756	20868
868.886	20849
869.017	20826
869.147	21028
869.278	21005
869.408	20971
869.539	20921
869.669	20876
869.799	20872
869.929	20990
870.06	21036
870.19	21237
870.32	21268
870.45	21222
870.58	21233
870.71	21408
870.84	21233
870.97	21252
871.1	21245
871.23	21378
871.36	21542
871.489	21428
871.619	21378
871.749	21374
871.879	21519
872.008	21644
872.138	21416
872.267	21481
872.397	21363
872.526	21218
872.656	21272
872.785	21173
872.915	21473
873.044	21549
873.173	21481
873.303	21526
873.432	21568
873.561	21622
873.69	21466
873.819	21454
873.948	21507
874.077	21618
874.206	21313
874.335	21473
874.464	21633
874.593	21690
874.722	21739
874.851	21644
874.979	21709
875.108	21816
875.237	21705
875.365	21530
875.494	21701
875.623	21755
875.751	21667
875.88	21751
876.008	21804
876.136	21968
876.265	22032
876.393	22173
876.521	22177
876.65	22249
876.778	22143
876.906	22040
877.034	21918
877.162	22063
877.29	21922
877.418	22048
877.546	22143
877.674	22013
877.802	22048
877.93	22086
878.058	22017
878.185	21956
878.313	22040
878.441	22044
878.568	21857
878.696	22044
878.824	22006
878.951	22181
879.079	22261
879.206	22417
879.333	22200
879.461	22112
879.588	22185
879.715	22226
879.842	22261
879.97	22215
880.097	21793
880.224	21941
880.351	21937
880.478	21869
880.605	21907
880.732	21880
880.859	22135
880.986	21789
881.112	21888
881.239	21728
881.366	21713
881.493	21576
881.619	21534
881.746	21603
881.872	21538
881.999	21447
882.125	21416
882.252	21538
882.378	21485
882.505	21530
882.631	21367
882.757	21226
882.883	21233
883.01	21249
883.136	21169
883.262	21058
883.388	20986
883.514	21192
883.64	21302
883.766	21096
883.892	20994
884.018	20895
884.143	21173
884.269	21180
884.395	20830
884.52	20769
884.646	20872
884.772	20864
884.897	20845
885.023	20853
885.148	20872
885.274	20880
885.399	20849
885.524	20864
885.65	20891
885.775	20868
885.9	20785
886.025	20834
886.15	20967
886.275	20876
886.4	20739
886.525	20788
886.65	20644
886.775	20659
886.9	20937
887.025	21074
887.149	20769
887.274	20648
887.399	20579
887.523	20636
887.648	20446
887.773	20412
887.897	20655
888.021	20594
888.146	20499
888.27	20609
888.395	20720
888.519	20621
888.643	20609
888.767	20609
888.891	20370
889.015	20351
889.139	20434
889.263	20282
889.387	20564
889.511	20697
889.635	20514
889.759	20362
889.883	20412
890.006	20320
890.13	20408
890.254	20286
890.377	20362
890.501	20149
890.624	20111
890.748	20168
890.871	20046
890.995	19963
891.118	19811
891.241	19974
891.364	20016
891.488	19944
891.611	19940
891.734	19909
891.857	20096
891.98	19959
892.103	20001
892.226	19978
892.349	19913
892.471	19833
892.594	19871
892.717	19875
892.839	19921
892.962	19970
893.085	19936
893.207	19856
893.33	19807
893.452	19887
893.575	19860
893.697	19795
893.819	20073
893.941	20016
894.064	19974
894.186	19818
894.308	19746
894.43	19887
894.552	19986
894.674	20039
894.796	19833
894.918	19860
895.04	19860
895.161	19936
895.283	19925
895.405	19928
895.526	19822
895.648	19833
895.769	19917
895.891	19852
896.012	19982
896.134	19906
896.255	20008
896.376	19909
896.498	19944
896.619	20027
896.74	19906
896.861	19860
896.982	20267
897.103	20317
897.224	20119
897.345	20084
897.466	20103
897.587	20195
897.708	20298
897.828	20134
897.949	20016
898.07	19959
898.19	19951
898.311	20172
898.431	20062
898.552	20130
898.672	20206
898.792	20214
898.913	20069
899.033	20039
899.153	19902
899.273	19803
899.393	19807
899.513	19898
899.633	19814
899.753	19852
899.873	19715
899.993	19826
900.113	19811
900.232	19799
900.352	19826
900.472	19704
900.591	19609
900.711	19799
900.83	19662
900.95	19700
901.069	19791
901.189	19540
901.308	19308
901.427	19274
901.546	19137
901.665	19198
901.784	19285
901.904	19072
902.023	19034
902.141	18753
902.26	18715
902.379	18878
902.498	18684
902.617	18623
902.735	18745
902.854	18738
902.973	18760
903.091	18448
903.21	18464
903.328	18353
903.446	18277
903.565	18285
903.683	18285
903.801	18136
903.919	18159
904.038	18205
904.156	18007
904.274	18064
904.392	17916
904.51	17999
904.627	17931
904.745	18057
904.863	18057
904.981	17748
905.098	17676
905.216	17722
905.334	17741
905.451	17760
905.569	17646
905.686	17729
905.803	17680
905.921	17448
906.038	17490
906.155	17490
906.272	17444
906.389	17345
906.506	17280
906.623	17231
906.74	17147
906.857	17094
906.974	17147
907.091	17254
907.208	17254
907.324	17250
907.441	17159
907.557	16980
907.674	16843
907.79	16896
907.907	16866
908.023	17041
908.139	16957
908.256	16881
908.372	16999
908.488	16736
908.604	16656
908.72	16668
908.836	16637
908.952	16565
909.068	16626
909.184	16672
909.3	16630
909.415	16634
909.531	16656
909.647	16394
909.762	16367
909.878	16382
909.993	16436
910.108	16329
910.224	16333
910.339	16299
910.454	16234
910.57	16162
910.685	16128
910.8	16360
910.915	16284
911.03	16071
911.145	15960
911.259	15926
911.374	15907
911.489	15922
911.604	15785
911.718	15637
911.833	15812
911.947	15675
912.062	15656
912.176	15671
912.291	15739
912.405	15717
912.519	15838
912.633	15842
912.748	15739
912.862	15705
912.976	15530
913.09	15313
913.204	15416
913.318	15462
913.431	15557
913.545	15515
913.659	15511
913.772	15481
913.886	15420
914	15332
914.113	15336
914.226	15477
914.34	15397
914.453	15131
914.566	15241
914.68	15176
914.793	15203
914.906	15001
915.019	14834
915.132	14861
915.245	14963
915.358	14944
915.47	15020
915.583	14861
915.696	14967
915.809	14967
915.921	15127
916.034	14872
916.146	14746
916.259	14872
916.371	14941
916.483	14815
916.595	14739
916.708	14815
916.82	14705
916.932	14792
917.044	14720
917.156	14712
917.268	14556
917.38	14537
917.491	14537
917.603	14629
917.715	14689
917.826	14632
917.938	14560
918.049	14419
918.161	14549
918.272	14625
918.384	14735
918.495	14583
918.606	14431
918.717	14294
918.828	14457
918.939	14419
919.05	14328
919.161	14328
919.272	14134
919.383	14218
919.494	14366
919.604	14590
919.715	14366
919.826	14221
919.936	14282
920.047	14408
920.157	14408
920.267	14454
920.378	14377
920.488	14233
920.598	14503
920.708	14686
920.818	14499
920.928	14484
921.038	14552
921.148	14590
921.258	14237
921.368	14100
921.477	14046
921.587	14043
921.697	13974
921.806	14100
921.916	13811
922.025	13795
922.134	13651
922.244	13685
922.353	13715
922.462	13578
922.571	13567
922.68	13400
922.789	13415
922.898	13289
923.007	13362
923.116	13381
923.224	13263
923.333	13312
923.442	13259
923.55	13175
923.659	13126
923.767	13244
923.876	13145
923.984	13251
924.092	13095
924.201	13183
924.309	13099
924.417	13114
924.525	12970
924.633	13004
924.741	14012
924.849	12806
924.956	13023
925.064	12798
925.172	12654
925.279	12760
925.387	12829
925.494	12814
925.602	12973
925.709	12772
925.816	12673
925.924	12707
926.031	12760
926.138	12696
926.245	12707
926.352	12639
926.459	12833
926.566	12810
926.673	12677
926.779	12536
926.886	12589
926.993	12399
927.099	12338
927.206	12224
927.312	12277
927.419	12448
927.525	12334
927.631	12414
927.737	12266
927.843	12243
927.95	12034
928.056	12155
928.162	12251
928.267	12262
928.373	12825
928.479	12224
928.585	12038
928.69	12087
928.796	12171
928.901	12095
929.007	11870
929.112	12003
929.218	12129
929.323	11916
929.428	11866
929.533	12030
929.638	11897
929.743	11885
929.848	11897
929.953	11885
930.058	11764
930.163	11638
930.267	11627
930.372	11752
930.477	11516
930.581	11840
930.685	11623
930.79	11524
930.894	11532
930.998	11463
931.103	11554
931.207	11334
931.311	11212
931.415	11121
931.519	10869
931.623	10786
