Data from test_V78500241_2263.txt Node
Date: Fri Mar 25 15:57:28 CST 2022
User: usil
Spectrometer: V785-0024
Trigger mode: 0
Integration Time (sec): 4.000000E-1
Scans to average: 1
Nonlinearity correction enabled: false
Boxcar width: 0
Storing dark spectrum: false
XAxis mode: Wavelengths
Number of Pixels in Spectrum: 1024
>>>>>Begin Spectral Data<<<<<
801.071	29174
801.214	29269
801.356	28820
801.499	28919
801.641	28759
801.783	28900
801.926	28873
802.068	28892
802.211	28656
802.353	28599
802.496	28447
802.638	28557
802.78	28432
802.923	28379
803.065	28303
803.208	28474
803.35	28352
803.492	28656
803.635	28634
803.777	28683
803.919	28710
804.061	29086
804.204	28774
804.346	28774
804.488	28835
804.63	28687
804.773	28733
804.915	28820
805.057	28888
805.199	28733
805.341	28801
805.483	28991
805.626	28786
805.768	28843
805.91	29071
806.052	28965
806.194	28915
806.336	29041
806.478	28999
806.62	28843
806.762	29105
806.904	29231
807.046	29474
807.188	29334
807.33	29395
807.472	29471
807.614	29227
807.756	29303
807.898	29315
808.04	29200
808.182	29284
808.324	29197
808.465	29322
808.607	29448
808.749	29665
808.891	29707
809.033	29779
809.174	29604
809.316	29722
809.458	29570
809.6	29512
809.741	29828
809.883	29726
810.025	29958
810.166	30026
810.308	29950
810.45	29832
810.591	29790
810.733	29843
810.875	29516
811.016	29566
811.158	29543
811.299	29710
811.441	29836
811.582	29745
811.724	29752
811.865	29531
812.007	29535
812.148	29672
812.29	29699
812.431	29878
812.573	29961
812.714	30022
812.855	30133
812.997	30205
813.138	30361
813.279	30342
813.421	30235
813.562	30060
813.703	29889
813.845	29874
813.986	29611
814.127	29589
814.268	29467
814.41	29326
814.551	29261
814.692	29490
814.833	29208
814.974	29402
815.115	29444
815.256	29216
815.397	29250
815.539	29223
815.68	29193
815.821	29166
815.962	29353
816.103	29014
816.244	29083
816.385	29025
816.526	28892
816.666	28717
816.807	28767
816.948	28698
817.089	28736
817.23	28809
817.371	28740
817.512	28698
817.653	28637
817.793	28725
817.934	28660
818.075	28828
818.216	28687
818.356	28713
818.497	28481
818.638	28421
818.778	28557
818.919	28459
819.06	28626
819.2	28664
819.341	28778
819.481	28630
819.622	28812
819.762	29121
819.903	28847
820.043	28790
820.184	28805
820.324	28820
820.465	28900
820.605	28888
820.746	28793
820.886	28698
821.026	28888
821.167	28763
821.307	28793
821.447	28725
821.588	28626
821.728	28443
821.868	28219
822.008	28215
822.149	28219
822.289	28090
822.429	27895
822.569	27808
822.709	27827
822.849	27747
822.99	27732
823.13	27690
823.27	27713
823.41	27545
823.55	27526
823.69	27564
823.83	27542
823.97	27485
824.11	27287
824.25	27252
824.389	27321
824.529	27397
824.669	27355
824.809	27447
824.949	27332
825.089	27412
825.228	27294
825.368	27222
825.508	27306
825.648	27256
825.787	27218
825.927	27424
826.067	27211
826.206	27291
826.346	27317
826.485	27272
826.625	27310
826.765	27325
826.904	27397
827.044	26952
827.183	27112
827.323	26910
827.462	27062
827.601	26975
827.741	27001
827.88	27020
828.02	26830
828.159	26967
828.298	26906
828.437	26940
828.577	26979
828.716	27028
828.855	26811
828.994	26701
829.134	26598
829.273	26632
829.412	26701
829.551	26659
829.69	26705
829.829	26640
829.968	26651
830.107	26682
830.246	26716
830.385	26473
830.524	26480
830.663	26408
830.802	26465
830.941	26130
831.08	26172
831.219	26248
831.357	26290
831.496	26492
831.635	26191
831.774	26100
831.913	26199
832.051	26035
832.19	25993
832.329	25993
832.467	25963
832.606	25944
832.744	25799
832.883	25868
833.022	25913
833.16	25807
833.299	25841
833.437	25833
833.576	26020
833.714	25917
833.852	25822
833.991	25928
834.129	25970
834.267	26077
834.406	25841
834.544	25986
834.682	25966
834.821	25925
834.959	26073
835.097	25875
835.235	25894
835.373	25879
835.511	25970
835.65	25849
835.788	25852
835.926	25620
836.064	25594
836.202	25685
836.34	25849
836.478	25898
836.615	25727
836.753	25761
836.891	25818
837.029	25715
837.167	25670
837.305	25632
837.443	25525
837.58	25590
837.718	25635
837.856	25529
837.993	25403
838.131	25601
838.269	25487
838.406	25419
838.544	25324
838.681	25331
838.819	25266
838.956	25168
839.094	25061
839.231	25069
839.369	25396
839.506	25495
839.643	25278
839.781	24992
839.918	24962
840.055	25103
840.193	24981
840.33	24958
840.467	25050
840.604	25057
840.742	25343
840.879	24916
841.016	24951
841.153	24848
841.29	25004
841.427	25008
841.564	25000
841.701	24939
841.838	24901
841.975	24787
842.112	24825
842.249	24848
842.385	24654
842.522	24856
842.659	24932
842.796	24673
842.933	24597
843.069	24517
843.206	24661
843.343	24719
843.479	24650
843.616	24654
843.752	24460
843.889	24513
844.025	24631
844.162	24418
844.298	24551
844.435	24456
844.571	24456
844.708	24483
844.844	24452
844.98	24525
845.117	24597
845.253	24403
845.389	24304
845.525	24357
845.661	24273
845.798	24129
845.934	24323
846.07	24159
846.206	24224
846.342	24357
846.478	24178
846.614	23882
846.75	24007
846.886	23870
847.022	24015
847.158	24018
847.294	23935
847.429	24060
847.565	23893
847.701	24129
847.837	23589
847.972	23630
848.108	23619
848.244	23699
848.379	23463
848.515	23478
848.65	23547
848.786	23512
848.921	23577
849.057	23615
849.192	23619
849.328	23497
849.463	23573
849.598	23463
849.734	23395
849.869	23414
850.004	23318
850.14	23368
850.275	23269
850.41	23136
850.545	23235
850.68	23254
850.815	23178
850.95	23280
851.085	23364
851.22	23524
851.355	23337
851.49	23318
851.625	23197
851.76	23227
851.895	23189
852.03	23250
852.165	23322
852.299	23292
852.434	23417
852.569	23258
852.703	23353
852.838	23296
852.973	23337
853.107	23417
853.242	23220
853.376	23162
853.511	22908
853.645	23067
853.78	23193
853.914	23071
854.048	23044
854.183	23060
854.317	23170
854.451	23303
854.585	23193
854.72	23064
854.854	23261
854.988	23033
855.122	23086
855.256	22976
855.39	23060
855.524	23151
855.658	23117
855.792	23037
855.926	23075
856.06	23067
856.194	23151
856.327	23102
856.461	23083
856.595	23060
856.729	23044
856.862	23178
856.996	23216
857.13	23136
857.263	23128
857.397	23060
857.53	23041
857.664	23109
857.797	23136
857.931	23212
858.064	23098
858.197	23200
858.331	23143
858.464	23029
858.597	22957
858.731	23086
858.864	23079
858.997	23022
859.13	23132
859.263	23052
859.396	23212
859.529	23067
859.662	23094
859.795	23044
859.928	23128
860.061	23288
860.194	23269
860.327	23162
860.46	23193
860.592	23174
860.725	23261
860.858	23193
860.99	23113
861.123	22999
861.256	22911
861.388	23014
861.521	23653
861.653	23003
861.786	22790
861.918	22866
862.05	22885
862.183	22968
862.315	23029
862.447	23018
862.58	22850
862.712	22782
862.844	22816
862.976	22858
863.108	22793
863.24	23315
863.372	22710
863.504	22729
863.636	22774
863.768	22733
863.9	22744
864.032	22710
864.164	22740
864.296	22824
864.428	22790
864.559	22801
864.691	22793
864.823	22797
864.954	22683
865.086	22599
865.217	22592
865.349	22599
865.48	22698
865.612	22580
865.743	22763
865.875	22679
866.006	22557
866.137	22618
866.269	22599
866.4	22607
866.531	22504
866.662	22466
866.793	22443
866.924	22626
867.055	22607
867.186	22656
867.317	22546
867.448	22428
867.579	22493
867.71	22413
867.841	22584
867.972	22508
868.103	22508
868.233	22615
868.364	22398
868.495	22725
868.625	22816
868.756	23022
868.886	22733
869.017	22862
869.147	22938
869.278	22889
869.408	22831
869.539	22710
869.669	22927
869.799	22850
869.929	22911
870.06	22949
870.19	23102
870.32	23044
870.45	23212
870.58	23265
870.71	23140
870.84	23261
870.97	23220
871.1	23242
871.23	23330
871.36	23398
871.489	23265
871.619	23482
871.749	23493
871.879	23398
872.008	23592
872.138	23425
872.267	23448
872.397	23277
872.526	23220
872.656	23318
872.785	23197
872.915	23383
873.044	23570
873.173	23520
873.303	23444
873.432	23376
873.561	23528
873.69	23436
873.819	23269
873.948	23410
874.077	23299
874.206	23383
874.335	23391
874.464	23436
874.593	23665
874.722	23653
874.851	23707
874.979	23566
875.108	23729
875.237	23547
875.365	23486
875.494	23497
875.623	23634
875.751	23596
875.88	23608
876.008	23737
876.136	23775
876.265	23961
876.393	24155
876.521	23984
876.65	23999
876.778	23950
876.906	23904
877.034	23897
877.162	23980
877.29	23912
877.418	23870
877.546	24018
877.674	23908
877.802	23984
877.93	23973
878.058	24007
878.185	23821
878.313	23897
878.441	23863
878.568	23722
878.696	23950
878.824	23965
878.951	24060
879.079	24182
879.206	24300
879.333	24102
879.461	23977
879.588	24022
879.715	24117
879.842	24076
879.97	24026
880.097	23863
880.224	23767
880.351	23695
880.478	23821
880.605	23813
880.732	23707
880.859	23958
880.986	23786
881.112	23790
881.239	23649
881.366	23448
881.493	23410
881.619	23307
881.746	23227
881.872	23353
881.999	23269
882.125	23212
882.252	23315
882.378	23288
882.505	23429
882.631	23083
882.757	22892
882.883	23166
883.01	23037
883.136	22965
883.262	22892
883.388	22839
883.514	22957
883.64	23006
883.766	22938
883.892	22698
884.018	22812
884.143	22957
884.269	23025
884.395	22706
884.52	22565
884.646	22618
884.772	22531
884.897	22516
885.023	22626
885.148	22664
885.274	22641
885.399	22569
885.524	22618
885.65	22622
885.775	22611
885.9	22542
886.025	22687
886.15	22664
886.275	22417
886.4	22337
886.525	22622
886.65	22500
886.775	22512
886.9	22831
887.025	22923
887.149	22607
887.274	22344
887.399	22474
887.523	22443
887.648	22337
887.773	22246
887.897	22493
888.021	22432
888.146	22375
888.27	22588
888.395	22424
888.519	22303
888.643	22379
888.767	22493
888.891	22322
889.015	22097
889.139	22112
889.263	22128
889.387	22329
889.511	22360
889.635	22265
889.759	22109
889.883	22128
890.006	22230
890.13	22211
890.254	21998
890.377	22112
890.501	21907
890.624	21850
890.748	21949
890.871	21743
890.995	21610
891.118	21747
891.241	21717
891.364	21759
891.488	21949
891.611	21701
891.734	21701
891.857	21831
891.98	21728
892.103	21728
892.226	21690
892.349	21663
892.471	21389
892.594	21663
892.717	21717
892.839	21599
892.962	21686
893.085	21606
893.207	21561
893.33	21420
893.452	21515
893.575	21507
893.697	21485
893.819	21606
893.941	21705
894.064	21591
894.186	21408
894.308	21473
894.43	21507
894.552	21762
894.674	21610
894.796	21439
894.918	21401
895.04	21614
895.161	21629
895.283	21519
895.405	21538
895.526	21561
895.648	21534
895.769	21629
895.891	21625
896.012	21629
896.134	21698
896.255	21595
896.376	21439
896.498	21644
896.619	21644
896.74	21564
896.861	21469
896.982	21892
897.103	21934
897.224	21766
897.345	21698
897.466	21774
897.587	21728
897.708	21755
897.828	21739
897.949	21660
898.07	21663
898.19	21778
898.311	21816
898.431	21553
898.552	21812
898.672	21682
898.792	21766
898.913	21797
899.033	21606
899.153	21488
899.273	21462
899.393	21397
899.513	21401
899.633	21511
899.753	21473
899.873	21504
899.993	21504
900.113	21538
900.232	21344
900.352	21408
900.472	21329
900.591	21154
900.711	21169
900.83	21184
900.95	21348
901.069	21302
901.189	21173
901.308	20861
901.427	20880
901.546	20811
901.665	20804
901.784	20769
901.904	20697
902.023	20602
902.141	20374
902.26	20248
902.379	20298
902.498	20347
902.617	20210
902.735	20347
902.854	20267
902.973	20240
903.091	19940
903.21	19906
903.328	19894
903.446	19955
903.565	19746
903.683	19704
903.801	19632
903.919	19677
904.038	19727
904.156	19525
904.274	19438
904.392	19403
904.51	19533
904.627	19521
904.745	19544
904.863	19670
904.981	19343
905.098	19145
905.216	19183
905.334	19206
905.451	19236
905.569	19107
905.686	19228
905.803	19179
905.921	18993
906.038	18947
906.155	18909
906.272	18886
906.389	18932
906.506	18745
906.623	18707
906.74	18715
906.857	18414
906.974	18475
907.091	18627
907.208	18817
907.324	18608
907.441	18616
907.557	18494
907.674	18342
907.79	18334
907.907	18308
908.023	18365
908.139	18357
908.256	18308
908.372	18285
908.488	18174
908.604	18102
908.72	17996
908.836	18007
908.952	18022
909.068	17999
909.184	18129
909.3	18091
909.415	18114
909.531	17946
909.647	17870
909.762	17786
909.878	17718
909.993	17707
910.108	17745
910.224	17741
910.339	17760
910.454	17653
910.57	17474
910.685	17490
910.8	17824
910.915	17767
911.03	17482
911.145	17436
911.259	17345
911.374	17429
911.489	17261
911.604	17159
911.718	17033
911.833	17045
911.947	16991
912.062	16896
912.176	17147
912.291	17155
912.405	17025
912.519	17288
912.633	17258
912.748	17052
912.862	17094
912.976	16877
913.09	16752
913.204	16805
913.318	16953
913.431	16946
913.545	16976
913.659	16938
913.772	16782
913.886	16698
914	16778
914.113	16729
914.226	16797
914.34	16622
914.453	16478
914.566	16687
914.68	16527
914.793	16538
914.906	16333
915.019	16276
915.132	16226
915.245	16154
915.358	16257
915.47	16249
915.583	16226
915.696	16325
915.809	16322
915.921	16329
916.034	16166
916.146	16139
916.259	16021
916.371	16185
916.483	16082
916.595	16036
916.708	16048
916.82	15972
916.932	15953
917.044	16051
917.156	15960
917.268	15831
917.38	15899
917.491	15819
917.603	15953
917.715	15983
917.826	15926
917.938	15861
918.049	15679
918.161	15766
918.272	15903
918.384	15892
918.495	15755
918.606	15618
918.717	15530
918.828	15572
918.939	15629
919.05	15401
919.161	15553
919.272	15405
919.383	15408
919.494	15629
919.604	15705
919.715	15447
919.826	15511
919.936	15591
920.047	15477
920.157	15591
920.267	15713
920.378	15526
920.488	15443
920.598	15694
920.708	15861
920.818	15606
920.928	15717
921.038	15778
921.148	15762
921.258	15386
921.368	15401
921.477	15302
921.587	15268
921.697	15085
921.806	15165
921.916	15039
922.025	15047
922.134	14883
922.244	14785
922.353	14876
922.462	14712
922.571	14689
922.68	14518
922.789	14469
922.898	14545
923.007	14484
923.116	14438
923.224	14522
923.333	14503
923.442	14358
923.55	14355
923.659	14309
923.767	14336
923.876	14267
923.984	14332
924.092	14206
924.201	14229
924.309	14294
924.417	14084
924.525	14142
924.633	14218
924.741	14952
924.849	13883
924.956	13993
925.064	13883
925.172	13833
925.279	13837
925.387	13917
925.494	13807
925.602	13989
925.709	13856
925.816	13784
925.924	13772
926.031	13890
926.138	13715
926.245	13719
926.352	13696
926.459	13830
926.566	13833
926.673	13636
926.779	13556
926.886	13533
926.993	13468
927.099	13388
927.206	13384
927.312	13282
927.419	13396
927.525	13362
927.631	13426
927.737	13240
927.843	13228
927.95	13221
928.056	13160
928.162	13236
928.267	13259
928.373	13837
928.479	13209
928.585	13012
928.69	13122
928.796	13206
928.901	13091
929.007	12901
929.112	13034
929.218	13023
929.323	12932
929.428	12856
929.533	13008
929.638	12719
929.743	12837
929.848	12882
929.953	12878
930.058	12722
930.163	12620
930.267	12566
930.372	12669
930.477	12532
930.581	12779
930.685	12620
930.79	12555
930.894	12395
930.998	12467
931.103	12509
931.207	12167
931.311	12114
931.415	12007
931.519	11672
931.623	11836
