Data from test_V78500241_24.txt Node
Date: Fri Mar 25 15:41:58 CST 2022
User: usil
Spectrometer: V785-0024
Trigger mode: 0
Integration Time (sec): 4.000000E-1
Scans to average: 1
Nonlinearity correction enabled: false
Boxcar width: 0
Storing dark spectrum: false
XAxis mode: Wavelengths
Number of Pixels in Spectrum: 1024
>>>>>Begin Spectral Data<<<<<
801.071	27157
801.214	27081
801.356	26940
801.499	26948
801.641	26670
801.783	26583
801.926	26640
802.068	26769
802.211	26598
802.353	26499
802.496	26305
802.638	26248
802.78	26122
802.923	26069
803.065	26073
803.208	26103
803.35	26138
803.492	26138
803.635	26400
803.777	26142
803.919	26290
804.061	26552
804.204	26138
804.346	26157
804.488	26012
804.63	26020
804.773	25921
804.915	26107
805.057	26271
805.199	26008
805.341	26134
805.483	26225
805.626	26244
805.768	26031
805.91	26202
806.052	26267
806.194	26180
806.336	26248
806.478	26218
806.62	26157
806.762	26206
806.904	26351
807.046	26663
807.188	26473
807.33	26518
807.472	26579
807.614	26438
807.756	26552
807.898	26358
808.04	26214
808.182	26218
808.324	26180
808.465	26355
808.607	26256
808.749	26568
808.891	26541
809.033	26678
809.174	26724
809.316	26511
809.458	26606
809.6	26518
809.741	26621
809.883	26613
810.025	26880
810.166	26883
810.308	26876
810.45	26727
810.591	26560
810.733	26457
810.875	26389
811.016	26404
811.158	26298
811.299	26518
811.441	26724
811.582	26556
811.724	26457
811.865	26389
812.007	26427
812.148	26446
812.29	26503
812.431	26640
812.573	26762
812.714	26724
812.855	26861
812.997	27100
813.138	27161
813.279	27085
813.421	26910
813.562	26796
813.703	26712
813.845	26495
813.986	26366
814.127	25974
814.268	25925
814.41	26058
814.551	26050
814.692	26084
814.833	25974
814.974	25909
815.115	25890
815.256	25849
815.397	25928
815.539	25753
815.68	25628
815.821	25616
815.962	25632
816.103	25464
816.244	25426
816.385	25479
816.526	25350
816.666	25194
816.807	25091
816.948	25133
817.089	25160
817.23	25171
817.371	25015
817.512	25012
817.653	25038
817.793	24867
817.934	24996
818.075	24878
818.216	25114
818.356	24947
818.497	24829
818.638	24654
818.778	24639
818.919	24677
819.06	24650
819.2	24878
819.341	24882
819.481	24772
819.622	25034
819.762	25072
819.903	25000
820.043	24935
820.184	24901
820.324	24985
820.465	25046
820.605	24905
820.746	24909
820.886	24768
821.026	24901
821.167	24810
821.307	24943
821.447	24814
821.588	24798
821.728	24627
821.868	24388
822.008	24304
822.149	24338
822.289	24258
822.429	24038
822.569	24045
822.709	23988
822.849	23813
822.99	23786
823.13	23783
823.27	23661
823.41	23459
823.55	23448
823.69	23611
823.83	23505
823.97	23501
824.11	23315
824.25	23410
824.389	23204
824.529	23322
824.669	23265
824.809	23421
824.949	23303
825.089	23520
825.228	23330
825.368	23208
825.508	23151
825.648	23143
825.787	23006
825.927	23132
826.067	23041
826.206	23044
826.346	23086
826.485	23029
826.625	23220
826.765	23265
826.904	23193
827.044	22774
827.183	22911
827.323	22801
827.462	22698
827.601	22653
827.741	22641
827.88	22778
828.02	22618
828.159	22634
828.298	22748
828.437	22736
828.577	22557
828.716	22755
828.855	22645
828.994	22375
829.134	22424
829.273	22443
829.412	22402
829.551	22268
829.69	22409
829.829	22417
829.968	22379
830.107	22356
830.246	22295
830.385	22318
830.524	22379
830.663	22143
830.802	22017
830.941	21861
831.08	21903
831.219	21983
831.357	21941
831.496	22131
831.635	21937
831.774	21831
831.913	21892
832.051	21667
832.19	21641
832.329	21686
832.467	21610
832.606	21435
832.744	21439
832.883	21553
833.022	21561
833.16	21576
833.299	21637
833.437	21538
833.576	21698
833.714	21519
833.852	21587
833.991	21641
834.129	21766
834.267	21542
834.406	21534
834.544	21618
834.682	21557
834.821	21511
834.959	21637
835.097	21492
835.235	21622
835.373	21633
835.511	21557
835.65	21332
835.788	21382
835.926	21157
836.064	21138
836.202	21195
836.34	21534
836.478	21405
836.615	21348
836.753	21378
836.891	21538
837.029	21412
837.167	21340
837.305	21214
837.443	21135
837.58	21207
837.718	21367
837.856	21306
837.993	21112
838.131	21355
838.269	21199
838.406	21108
838.544	21055
838.681	20963
838.819	20815
838.956	20758
839.094	20587
839.231	20754
839.369	20762
839.506	21051
839.643	20800
839.781	20674
839.918	20571
840.055	20651
840.193	20655
840.33	20651
840.467	20579
840.604	20689
840.742	20788
840.879	20465
841.016	20499
841.153	20590
841.29	20590
841.427	20636
841.564	20579
841.701	20533
841.838	20423
841.975	20476
842.112	20366
842.249	20404
842.385	20339
842.522	20522
842.659	20278
842.796	20396
842.933	20183
843.069	20256
843.206	20126
843.343	20233
843.479	20172
843.616	20256
843.752	20024
843.889	20027
844.025	20180
844.162	20020
844.298	20134
844.435	20035
844.571	19833
844.708	19959
844.844	20149
844.98	20161
845.117	20058
845.253	19742
845.389	19803
845.525	19913
845.661	19921
845.798	19719
845.934	19734
846.07	19704
846.206	19849
846.342	19818
846.478	19662
846.614	19529
846.75	19400
846.886	19411
847.022	19506
847.158	19491
847.294	19495
847.429	19480
847.565	19472
847.701	19616
847.837	19118
847.972	19072
848.108	19384
848.244	19187
848.379	19122
848.515	18932
848.65	19000
848.786	19023
848.921	19084
849.057	19171
849.192	19198
849.328	19031
849.463	19015
849.598	18882
849.734	18897
849.869	18875
850.004	18753
850.14	18753
850.275	18711
850.41	18612
850.545	18582
850.68	18604
850.815	18730
850.95	18715
851.085	18871
851.22	18776
851.355	18757
851.49	18749
851.625	18764
851.76	18692
851.895	18502
852.03	18559
852.165	18673
852.299	18768
852.434	18734
852.569	18642
852.703	18623
852.838	18741
852.973	18886
853.107	18878
853.242	18536
853.376	18574
853.511	18414
853.645	18448
853.78	18513
853.914	18627
854.048	18452
854.183	18452
854.317	18563
854.451	18661
854.585	18441
854.72	18433
854.854	18650
854.988	18429
855.122	18418
855.256	18350
855.39	18460
855.524	18589
855.658	18642
855.792	18646
855.926	18475
856.06	18604
856.194	18467
856.327	18502
856.461	18429
856.595	18555
856.729	18441
856.862	18555
856.996	18456
857.13	18559
857.263	18563
857.397	18608
857.53	18486
857.664	18589
857.797	18498
857.931	18525
858.064	18566
858.197	18555
858.331	18479
858.464	18448
858.597	18323
858.731	18361
858.864	18414
858.997	18490
859.13	18490
859.263	18490
859.396	18464
859.529	18418
859.662	18357
859.795	18323
859.928	18369
860.061	18635
860.194	18456
860.327	18426
860.46	18338
860.592	18513
860.725	18502
860.858	18559
860.99	18384
861.123	18342
861.256	18395
861.388	18384
861.521	18916
861.653	18300
861.786	18273
861.918	18357
862.05	18365
862.183	18414
862.315	18429
862.447	18490
862.58	18334
862.712	18289
862.844	18060
862.976	18273
863.108	18334
863.24	18445
863.372	18140
863.504	18182
863.636	18064
863.768	18155
863.9	18144
864.032	17980
864.164	17984
864.296	18194
864.428	18235
864.559	18182
864.691	18163
864.823	18186
864.954	18133
865.086	18110
865.217	18186
865.349	17950
865.48	18068
865.612	18057
865.743	18178
865.875	18015
866.006	17984
866.137	18091
866.269	18091
866.4	18148
866.531	18053
866.662	17901
866.793	18007
866.924	17969
867.055	18072
867.186	17939
867.317	17942
867.448	17999
867.579	18007
867.71	17904
867.841	17870
867.972	18095
868.103	17980
868.233	17999
868.364	18038
868.495	18152
868.625	18285
868.756	18323
868.886	18171
869.017	18171
869.147	18289
869.278	18182
869.408	18247
869.539	18178
869.669	18380
869.799	18190
869.929	18399
870.06	18346
870.19	18448
870.32	18525
870.45	18563
870.58	18585
870.71	18779
870.84	18639
870.97	18589
871.1	18620
871.23	18726
871.36	18920
871.489	18711
871.619	18798
871.749	18798
871.879	18779
872.008	19046
872.138	18909
872.267	18924
872.397	18738
872.526	18715
872.656	18658
872.785	18559
872.915	18791
873.044	18935
873.173	18954
873.303	18943
873.432	18958
873.561	18867
873.69	18886
873.819	18996
873.948	19015
874.077	19012
874.206	18840
874.335	18932
874.464	18966
874.593	19206
874.722	19152
874.851	19110
874.979	19251
875.108	19141
875.237	19099
875.365	19069
875.494	19175
875.623	19316
875.751	19069
875.88	19122
876.008	19331
876.136	19464
876.265	19658
876.393	19708
876.521	19624
876.65	19548
876.778	19567
876.906	19609
877.034	19525
877.162	19460
877.29	19521
877.418	19480
877.546	19590
877.674	19552
877.802	19381
877.93	19563
878.058	19480
878.185	19422
878.313	19563
878.441	19464
878.568	19396
878.696	19495
878.824	19559
878.951	19594
879.079	19632
879.206	19784
879.333	19689
879.461	19590
879.588	19567
879.715	19620
879.842	19837
879.97	19540
880.097	19422
880.224	19304
880.351	19362
880.478	19308
880.605	19259
880.732	19407
880.859	19620
880.986	19480
881.112	19358
881.239	19255
881.366	19152
881.493	19034
881.619	18993
881.746	19061
881.872	18981
881.999	18871
882.125	18947
882.252	18954
882.378	18947
882.505	19088
882.631	18867
882.757	18787
882.883	18943
883.01	18760
883.136	18696
883.262	18559
883.388	18563
883.514	18913
883.64	18814
883.766	18776
883.892	18570
884.018	18585
884.143	18669
884.269	18776
884.395	18570
884.52	18471
884.646	18399
884.772	18410
884.897	18350
885.023	18414
885.148	18570
885.274	18631
885.399	18559
885.524	18388
885.65	18544
885.775	18471
885.9	18414
886.025	18494
886.15	18437
886.275	18338
886.4	18327
886.525	18399
886.65	18327
886.775	18346
886.9	18479
887.025	18623
887.149	18376
887.274	18232
887.399	18186
887.523	18190
887.648	18163
887.773	18178
887.897	18285
888.021	18319
888.146	17984
888.27	18197
888.395	18327
888.519	18174
888.643	18232
888.767	18247
888.891	18049
889.015	18003
889.139	18091
889.263	18057
889.387	18110
889.511	18292
889.635	18167
889.759	18026
889.883	17904
890.006	18064
890.13	18049
890.254	17882
890.377	18019
890.501	17783
890.624	17695
890.748	17817
890.871	17695
890.995	17627
891.118	17509
891.241	17646
891.364	17596
891.488	17733
891.611	17539
891.734	17661
891.857	17672
891.98	17611
892.103	17615
892.226	17691
892.349	17608
892.471	17516
892.594	17524
892.717	17619
892.839	17535
892.962	17657
893.085	17642
893.207	17680
893.33	17376
893.452	17482
893.575	17581
893.697	17585
893.819	17726
893.941	17783
894.064	17657
894.186	17490
894.308	17573
894.43	17703
894.552	17836
894.674	17619
894.796	17493
894.918	17577
895.04	17478
895.161	17619
895.283	17608
895.405	17547
895.526	17707
895.648	17592
895.769	17619
895.891	17684
896.012	17707
896.134	17676
896.255	17589
896.376	17577
896.498	17627
896.619	17752
896.74	17813
896.861	17805
896.982	17954
897.103	18125
897.224	17999
897.345	17935
897.466	17851
897.587	17996
897.708	17908
897.828	17904
897.949	17855
898.07	17718
898.19	17821
898.311	17931
898.431	17851
898.552	17965
898.672	17935
898.792	17893
898.913	17843
899.033	17790
899.153	17691
899.273	17543
899.393	17627
899.513	17752
899.633	17581
899.753	17809
899.873	17551
899.993	17710
900.113	17600
900.232	17619
900.352	17577
900.472	17581
900.591	17505
900.711	17448
900.83	17391
900.95	17558
901.069	17524
901.189	17406
901.308	17208
901.427	17056
901.546	17052
901.665	17147
901.784	17048
901.904	17022
902.023	16854
902.141	16653
902.26	16569
902.379	16641
902.498	16596
902.617	16607
902.735	16584
902.854	16592
902.973	16504
903.091	16318
903.21	16360
903.328	16219
903.446	16226
903.565	16051
903.683	16169
903.801	16032
903.919	16211
904.038	16204
904.156	15949
904.274	16078
904.392	15964
904.51	15994
904.627	15953
904.745	15911
904.863	15956
904.981	15682
905.098	15599
905.216	15633
905.334	15629
905.451	15698
905.569	15580
905.686	15534
905.803	15530
905.921	15424
906.038	15412
906.155	15294
906.272	15241
906.389	15283
906.506	15066
906.623	15184
906.74	15138
906.857	15028
906.974	15051
907.091	15207
907.208	15298
907.324	15119
907.441	15089
907.557	14883
907.674	14887
907.79	14823
907.907	14765
908.023	14788
908.139	14826
908.256	14796
908.372	14773
908.488	14629
908.604	14473
908.72	14602
908.836	14583
908.952	14427
909.068	14564
909.184	14564
909.3	14522
909.415	14659
909.531	14457
909.647	14275
909.762	14221
909.878	14278
909.993	14317
910.108	14221
910.224	14142
910.339	14240
910.454	14111
910.57	14012
910.685	14065
910.8	14339
910.915	14134
911.03	14008
911.145	13750
911.259	13890
911.374	13936
911.489	13833
911.604	13784
911.718	13586
911.833	13689
911.947	13559
912.062	13495
912.176	13662
912.291	13738
912.405	13571
912.519	13841
912.633	13811
912.748	13628
912.862	13632
912.976	13400
913.09	13388
913.204	13327
913.318	13441
913.431	13578
913.545	13476
913.659	13677
913.772	13369
913.886	13278
914	13266
914.113	13331
914.226	13438
914.34	13411
914.453	13240
914.566	13396
914.68	13278
914.793	13122
914.906	12966
915.019	12943
915.132	12829
915.245	12913
915.358	13000
915.47	12920
915.583	13061
915.696	13012
915.809	13141
915.921	13084
916.034	12928
916.146	12867
916.259	12817
916.371	13015
916.483	12909
916.595	12852
916.708	12863
916.82	12779
916.932	12772
917.044	12787
917.156	12886
917.268	12681
917.38	12734
917.491	12684
917.603	12681
917.715	12692
917.826	12734
917.938	12620
918.049	12585
918.161	12623
918.272	12798
918.384	12833
918.495	12677
918.606	12620
918.717	12395
918.828	12475
918.939	12467
919.05	12369
919.161	12384
919.272	12300
919.383	12315
919.494	12513
919.604	12703
919.715	12460
919.826	12346
919.936	12410
920.047	12498
920.157	12498
920.267	12642
920.378	12414
920.488	12460
920.598	12635
920.708	12814
920.818	12528
920.928	12574
921.038	12768
921.148	12662
921.258	12369
921.368	12327
921.477	12232
921.587	12254
921.697	12091
921.806	12140
921.916	12026
922.025	11958
922.134	11901
922.244	11923
922.353	11885
922.462	11813
922.571	11786
922.68	11562
922.789	11623
922.898	11558
923.007	11490
923.116	11528
923.224	11532
923.333	11444
923.442	11372
923.55	11368
923.659	11455
923.767	11539
923.876	11376
923.984	11452
924.092	11330
924.201	11311
924.309	11406
924.417	11280
924.525	11254
924.633	11376
924.741	12251
924.849	11025
924.956	11258
925.064	11197
925.172	11022
925.279	11056
925.387	10999
925.494	11102
925.602	11223
925.709	11242
925.816	11037
925.924	11102
926.031	11201
926.138	11147
926.245	11098
926.352	11041
926.459	11136
926.566	11132
926.673	11033
926.779	10869
926.886	10862
926.993	10714
927.099	10611
927.206	10717
927.312	10710
927.419	10828
927.525	10744
927.631	10740
927.737	10679
927.843	10611
927.95	10542
928.056	10588
928.162	10538
928.267	10618
928.373	11296
928.479	10634
928.585	10413
928.69	10546
928.796	10596
928.901	10402
929.007	10257
929.112	10382
929.218	10462
929.323	10333
929.428	10253
929.533	10523
929.638	10234
929.743	10215
929.848	10344
929.953	10238
930.058	10162
930.163	10017
930.267	10036
930.372	10246
930.477	10002
930.581	10242
930.685	10109
930.79	10071
930.894	9953
930.998	9926
931.103	10021
931.207	9747
931.311	9599
931.415	9591
931.519	9332
931.623	9401
