Data from test_V78500241_1213.txt Node
Date: Fri Mar 25 15:50:12 CST 2022
User: usil
Spectrometer: V785-0024
Trigger mode: 0
Integration Time (sec): 4.000000E-1
Scans to average: 1
Nonlinearity correction enabled: false
Boxcar width: 0
Storing dark spectrum: false
XAxis mode: Wavelengths
Number of Pixels in Spectrum: 1024
>>>>>Begin Spectral Data<<<<<
801.071	28759
801.214	28710
801.356	28432
801.499	28306
801.641	28428
801.783	28177
801.926	28382
802.068	28223
802.211	28086
802.353	28253
802.496	28025
802.638	27941
802.78	28025
802.923	27914
803.065	27979
803.208	27991
803.35	28086
803.492	28177
803.635	28310
803.777	28147
803.919	28169
804.061	28603
804.204	28246
804.346	28135
804.488	28143
804.63	28219
804.773	28147
804.915	28226
805.057	28459
805.199	28287
805.341	28360
805.483	28306
805.626	28421
805.768	28147
805.91	28363
806.052	28356
806.194	28295
806.336	28660
806.478	28508
806.62	28440
806.762	28519
806.904	28622
807.046	28934
807.188	28930
807.33	28801
807.472	29003
807.614	28683
807.756	28786
807.898	28721
808.04	28603
808.182	28649
808.324	28645
808.465	28683
808.607	28946
808.749	29041
808.891	29025
809.033	29189
809.174	29239
809.316	29071
809.458	29250
809.6	29086
809.741	29155
809.883	29166
810.025	29353
810.166	29402
810.308	29497
810.45	29322
810.591	29410
810.733	29025
810.875	28957
811.016	28968
811.158	29109
811.299	29048
811.441	29197
811.582	29337
811.724	28946
811.865	29098
812.007	29086
812.148	29044
812.29	29090
812.431	29372
812.573	29429
812.714	29547
812.855	29691
812.997	29836
813.138	29752
813.279	29794
813.421	29589
813.562	29718
813.703	29524
813.845	29246
813.986	29052
814.127	28919
814.268	28793
814.41	28835
814.551	28866
814.692	28930
814.833	28721
814.974	28915
815.115	28793
815.256	28626
815.397	28675
815.539	28557
815.68	28519
815.821	28481
815.962	28577
816.103	28645
816.244	28413
816.385	28371
816.526	28443
816.666	28371
816.807	28192
816.948	28253
817.089	28341
817.23	28158
817.371	28070
817.512	28105
817.653	28078
817.793	27987
817.934	28082
818.075	28078
818.216	28067
818.356	28070
818.497	27991
818.638	27823
818.778	27812
818.919	27956
819.06	28070
819.2	28135
819.341	27972
819.481	28162
819.622	28291
819.762	28497
819.903	28363
820.043	28390
820.184	28280
820.324	28318
820.465	28379
820.605	28352
820.746	28295
820.886	28177
821.026	28253
821.167	28268
821.307	28196
821.447	28173
821.588	28078
821.728	27949
821.868	27816
822.008	27553
822.149	27694
822.289	27595
822.429	27355
822.569	27241
822.709	27211
822.849	27184
822.99	27093
823.13	27275
823.27	27150
823.41	26925
823.55	26777
823.69	26963
823.83	26838
823.97	27066
824.11	26906
824.25	26754
824.389	26769
824.529	26906
824.669	26895
824.809	26853
824.949	26876
825.089	26880
825.228	26864
825.368	26746
825.508	26648
825.648	26750
825.787	26689
825.927	26819
826.067	26625
826.206	26792
826.346	26689
826.485	26659
826.625	26716
826.765	26777
826.904	26705
827.044	26473
827.183	26336
827.323	26358
827.462	26427
827.601	26434
827.741	26256
827.88	26533
828.02	26271
828.159	26286
828.298	26377
828.437	26324
828.577	26404
828.716	26453
828.855	26309
828.994	26111
829.134	26043
829.273	26176
829.412	26065
829.551	26012
829.69	26043
829.829	26183
829.968	26187
830.107	26199
830.246	26058
830.385	25963
830.524	25997
830.663	25830
830.802	25799
830.941	25723
831.08	25712
831.219	25784
831.357	25788
831.496	25959
831.635	25639
831.774	25624
831.913	25552
832.051	25381
832.19	25419
832.329	25388
832.467	25308
832.606	25289
832.744	25240
832.883	25263
833.022	25213
833.16	25479
833.299	25358
833.437	25369
833.576	25502
833.714	25381
833.852	25430
833.991	25510
834.129	25419
834.267	25483
834.406	25396
834.544	25308
834.682	25407
834.821	25483
834.959	25643
835.097	25381
835.235	25445
835.373	25422
835.511	25426
835.65	25289
835.788	25346
835.926	25168
836.064	25019
836.202	25080
836.34	25122
836.478	25190
836.615	25232
836.753	25240
836.891	25274
837.029	25244
837.167	25095
837.305	25126
837.443	25072
837.58	25004
837.718	25209
837.856	25145
837.993	25015
838.131	24920
838.269	24935
838.406	24878
838.544	24833
838.681	24650
838.819	24646
838.956	24544
839.094	24445
839.231	24616
839.369	24692
839.506	24981
839.643	24681
839.781	24578
839.918	24448
840.055	24479
840.193	24429
840.33	24479
840.467	24479
840.604	24391
840.742	24696
840.879	24426
841.016	24308
841.153	24300
841.29	24509
841.427	24441
841.564	24414
841.701	24334
841.838	24540
841.975	24327
842.112	24315
842.249	24182
842.385	24148
842.522	24388
842.659	24228
842.796	24289
842.933	24140
843.069	24030
843.206	24053
843.343	24155
843.479	24182
843.616	24262
843.752	23923
843.889	23923
844.025	24095
844.162	23908
844.298	24083
844.435	23817
844.571	23836
844.708	23893
844.844	23977
844.98	24159
845.117	24068
845.253	23912
845.389	23805
845.525	23821
845.661	23840
845.798	23752
845.934	23836
846.07	23634
846.206	23703
846.342	23859
846.478	23786
846.614	23577
846.75	23356
846.886	23402
847.022	23414
847.158	23406
847.294	23452
847.429	23391
847.565	23414
847.701	23741
847.837	23216
847.972	23083
848.108	23292
848.244	23200
848.379	23136
848.515	23060
848.65	22835
848.786	22976
848.921	23010
849.057	23025
849.192	23124
849.328	23086
849.463	23109
849.598	22896
849.734	22934
849.869	22976
850.004	22717
850.14	22748
850.275	22850
850.41	22634
850.545	22748
850.68	22869
850.815	22869
850.95	22713
851.085	22908
851.22	22873
851.355	22900
851.49	22793
851.625	22767
851.76	22729
851.895	22694
852.03	22577
852.165	22771
852.299	22946
852.434	22774
852.569	22816
852.703	22809
852.838	22877
852.973	22866
853.107	22866
853.242	22782
853.376	22668
853.511	22459
853.645	22569
853.78	22694
853.914	22615
854.048	22592
854.183	22710
854.317	22656
854.451	22816
854.585	22542
854.72	22512
854.854	22664
854.988	22577
855.122	22630
855.256	22451
855.39	22436
855.524	22805
855.658	22599
855.792	22668
855.926	22603
856.06	22637
856.194	22778
856.327	22611
856.461	22519
856.595	22599
856.729	22603
856.862	22656
856.996	22725
857.13	22584
857.263	22812
857.397	22653
857.53	22618
857.664	22596
857.797	22649
857.931	22702
858.064	22645
858.197	22668
858.331	22493
858.464	22527
858.597	22516
858.731	22432
858.864	22596
858.997	22379
859.13	22694
859.263	22592
859.396	22611
859.529	22580
859.662	22611
859.795	22493
859.928	22554
860.061	22866
860.194	22771
860.327	22645
860.46	22557
860.592	22584
860.725	22774
860.858	22634
860.99	22500
861.123	22599
861.256	22637
861.388	22546
861.521	23261
861.653	22455
861.786	22428
861.918	22580
862.05	22493
862.183	22413
862.315	22512
862.447	22584
862.58	22455
862.712	22276
862.844	22291
862.976	22322
863.108	22295
863.24	22691
863.372	22204
863.504	22375
863.636	22268
863.768	22272
863.9	22215
864.032	21987
864.164	22154
864.296	22284
864.428	22261
864.559	22295
864.691	22272
864.823	22356
864.954	22215
865.086	22280
865.217	22215
865.349	22109
865.48	22131
865.612	22246
865.743	22295
865.875	22177
866.006	22211
866.137	22025
866.269	22154
866.4	22215
866.531	22097
866.662	22082
866.793	21987
866.924	22093
867.055	22131
867.186	22093
867.317	22093
867.448	22070
867.579	22055
867.71	22082
867.841	21937
867.972	22006
868.103	22029
868.233	22112
868.364	22055
868.495	22230
868.625	22318
868.756	22417
868.886	22242
869.017	22249
869.147	22314
869.278	22382
869.408	22402
869.539	22417
869.669	22295
869.799	22318
869.929	22481
870.06	22352
870.19	22694
870.32	22634
870.45	22706
870.58	22641
870.71	22660
870.84	22721
870.97	22771
871.1	22820
871.23	22904
871.36	22854
871.489	22831
871.619	22877
871.749	22976
871.879	23037
872.008	23147
872.138	22915
872.267	22942
872.397	22839
872.526	22850
872.656	22767
872.785	22721
872.915	23010
873.044	23079
873.173	23086
873.303	23048
873.432	23060
873.561	23052
873.69	22942
873.819	22972
873.948	23060
874.077	22873
874.206	22923
874.335	23003
874.464	23033
874.593	23197
874.722	23121
874.851	23204
874.979	23239
875.108	23117
875.237	23143
875.365	23018
875.494	23178
875.623	23143
875.751	23075
875.88	23246
876.008	23208
876.136	23311
876.265	23474
876.393	23615
876.521	23592
876.65	23638
876.778	23440
876.906	23486
877.034	23493
877.162	23395
877.29	23520
877.418	23577
877.546	23463
877.674	23402
877.802	23505
877.93	23589
878.058	23311
878.185	23337
878.313	23349
878.441	23395
878.568	23334
878.696	23421
878.824	23604
878.951	23547
879.079	23630
879.206	23802
879.333	23741
879.461	23539
879.588	23566
879.715	23558
879.842	23775
879.97	23592
880.097	23414
880.224	23299
880.351	23376
880.478	23318
880.605	23330
880.732	23197
880.859	23535
880.986	23261
881.112	23372
881.239	23166
881.366	23044
881.493	22900
881.619	22877
881.746	22946
881.872	22755
881.999	22904
882.125	22877
882.252	22885
882.378	22835
882.505	23044
882.631	22687
882.757	22649
882.883	22592
883.01	22542
883.136	22508
883.262	22310
883.388	22459
883.514	22603
883.64	22512
883.766	22428
883.892	22303
884.018	22443
884.143	22588
884.269	22615
884.395	22348
884.52	22166
884.646	22166
884.772	22139
884.897	21979
885.023	22116
885.148	22166
885.274	22295
885.399	22219
885.524	22150
885.65	22074
885.775	22120
885.9	22169
886.025	22276
886.15	22306
886.275	22166
886.4	22154
886.525	22128
886.65	22082
886.775	22090
886.9	22169
887.025	22379
887.149	22185
887.274	21937
887.399	21918
887.523	21880
887.648	21789
887.773	21751
887.897	21884
888.021	22040
888.146	21895
888.27	22044
888.395	22059
888.519	21975
888.643	21979
888.767	21998
888.891	21827
889.015	21637
889.139	21694
889.263	21755
889.387	21979
889.511	21937
889.635	21819
889.759	21530
889.883	21713
890.006	21739
890.13	21846
890.254	21511
890.377	21682
890.501	21526
890.624	21469
890.748	21557
890.871	21359
890.995	21203
891.118	21192
891.241	21313
891.364	21351
891.488	21351
891.611	21313
891.734	21268
891.857	21329
891.98	21310
892.103	21401
892.226	21169
892.349	21192
892.471	21066
892.594	21165
892.717	21146
892.839	21146
892.962	21218
893.085	21230
893.207	21112
893.33	21104
893.452	21062
893.575	21245
893.697	21142
893.819	21230
893.941	21389
894.064	21268
894.186	21142
894.308	21001
894.43	21211
894.552	21294
894.674	21252
894.796	21135
894.918	21051
895.04	21154
895.161	21165
895.283	21184
895.405	21066
895.526	21081
895.648	21085
895.769	21123
895.891	21100
896.012	21287
896.134	21169
896.255	21146
896.376	21055
896.498	21161
896.619	21142
896.74	21039
896.861	21192
896.982	21504
897.103	21553
897.224	21378
897.345	21367
897.466	21245
897.587	21351
897.708	21443
897.828	21355
897.949	21310
898.07	21294
898.19	21252
898.311	21386
898.431	21275
898.552	21313
898.672	21321
898.792	21283
898.913	21317
899.033	21287
899.153	21108
899.273	21001
899.393	21100
899.513	21135
899.633	21070
899.753	21032
899.873	20975
899.993	20956
900.113	20960
900.232	20967
900.352	20986
900.472	20990
900.591	20868
900.711	20842
900.83	20785
900.95	20861
901.069	20857
901.189	20781
901.308	20507
901.427	20423
901.546	20374
901.665	20317
901.784	20408
901.904	20248
902.023	20138
902.141	19845
902.26	19852
902.379	19986
902.498	19811
902.617	19841
902.735	19875
902.854	19864
902.973	19693
903.091	19643
903.21	19491
903.328	19464
903.446	19449
903.565	19209
903.683	19324
903.801	19293
903.919	19285
904.038	19308
904.156	19168
904.274	19095
904.392	19145
904.51	18958
904.627	19103
904.745	19122
904.863	19057
904.981	18920
905.098	18757
905.216	18753
905.334	18776
905.451	18817
905.569	18719
905.686	18776
905.803	18802
905.921	18620
906.038	18688
906.155	18612
906.272	18479
906.389	18391
906.506	18319
906.623	18266
906.74	18342
906.857	18205
906.974	18254
907.091	18338
907.208	18311
907.324	18429
907.441	18247
907.557	17996
907.674	18038
907.79	17855
907.907	17988
908.023	17942
908.139	18057
908.256	17973
908.372	17882
908.488	17863
908.604	17805
908.72	17707
908.836	17802
908.952	17718
909.068	17733
909.184	17836
909.3	17592
909.415	17767
909.531	17726
909.647	17509
909.762	17486
909.878	17379
909.993	17398
910.108	17349
910.224	17326
910.339	17360
910.454	17227
910.57	17147
910.685	17094
910.8	17406
910.915	17349
911.03	17124
911.145	17033
911.259	16919
911.374	17071
911.489	16987
911.604	16858
911.718	16744
911.833	16725
911.947	16588
912.062	16691
912.176	16763
912.291	16790
912.405	16759
912.519	16938
912.633	16824
912.748	16862
912.862	16793
912.976	16588
913.09	16409
913.204	16443
913.318	16493
913.431	16721
913.545	16542
913.659	16588
913.772	16459
913.886	16405
914	16314
914.113	16497
914.226	16333
914.34	16447
914.453	16181
914.566	16284
914.68	16234
914.793	16086
914.906	16029
915.019	15979
915.132	15838
915.245	15812
915.358	15979
915.47	15934
915.583	15907
915.696	15876
915.809	15968
915.921	16002
916.034	15854
916.146	15857
916.259	15850
916.371	15907
916.483	15835
916.595	15660
916.708	15823
916.82	15675
916.932	15793
917.044	15701
917.156	15637
917.268	15584
917.38	15660
917.491	15591
917.603	15587
917.715	15572
917.826	15732
917.938	15496
918.049	15450
918.161	15488
918.272	15622
918.384	15663
918.495	15507
918.606	15325
918.717	15252
918.828	15317
918.939	15382
919.05	15154
919.161	15184
919.272	15135
919.383	15176
919.494	15325
919.604	15435
919.715	15279
919.826	15123
919.936	15176
920.047	15279
920.157	15279
920.267	15329
920.378	15252
920.488	15264
920.598	15397
920.708	15591
920.818	15340
920.928	15405
921.038	15553
921.148	15504
921.258	15173
921.368	15116
921.477	15058
921.587	14925
921.697	14773
921.806	15043
921.916	14769
922.025	14629
922.134	14659
922.244	14590
922.353	14720
922.462	14461
922.571	14484
922.68	14286
922.789	14313
922.898	14256
923.007	14084
923.116	14240
923.224	14199
923.333	14172
923.442	14062
923.55	14020
923.659	14157
923.767	14218
923.876	14024
923.984	14016
924.092	13997
924.201	13951
924.309	13932
924.417	14001
924.525	13811
924.633	13898
924.741	14644
924.849	13700
924.956	13818
925.064	13757
925.172	13616
925.279	13609
925.387	13674
925.494	13636
925.602	13769
925.709	13651
925.816	13438
925.924	13559
926.031	13681
926.138	13540
926.245	13647
926.352	13369
926.459	13590
926.566	13609
926.673	13563
926.779	13362
926.886	13441
926.993	13263
927.099	13206
927.206	13236
927.312	13122
927.419	13129
927.525	13145
927.631	13236
927.737	13118
927.843	12954
927.95	12894
928.056	12913
928.162	12951
928.267	12966
928.373	13647
928.479	13133
928.585	12791
928.69	12875
928.796	12909
928.901	12867
929.007	12684
929.112	12696
929.218	12875
929.323	12715
929.428	12635
929.533	12844
929.638	12578
929.743	12646
929.848	12677
929.953	12620
930.058	12486
930.163	12391
930.267	12494
930.372	12460
930.477	12304
930.581	12525
930.685	12395
930.79	12102
930.894	12281
930.998	12266
931.103	12342
931.207	11950
931.311	11939
931.415	11695
931.519	11638
931.623	11577
