Data from test_V78500241_1366.txt Node
Date: Fri Mar 25 15:51:15 CST 2022
User: usil
Spectrometer: V785-0024
Trigger mode: 0
Integration Time (sec): 4.000000E-1
Scans to average: 1
Nonlinearity correction enabled: false
Boxcar width: 0
Storing dark spectrum: false
XAxis mode: Wavelengths
Number of Pixels in Spectrum: 1024
>>>>>Begin Spectral Data<<<<<
801.071	28219
801.214	28093
801.356	28029
801.499	27884
801.641	27739
801.783	27724
801.926	27823
802.068	27660
802.211	27641
802.353	27709
802.496	27488
802.638	27355
802.78	27431
802.923	27344
803.065	27382
803.208	27325
803.35	27504
803.492	27629
803.635	27587
803.777	27538
803.919	27622
804.061	28013
804.204	27686
804.346	27545
804.488	27671
804.63	27728
804.773	27450
804.915	27553
805.057	27816
805.199	27751
805.341	27622
805.483	27823
805.626	27797
805.768	27690
805.91	27838
806.052	27800
806.194	27739
806.336	28025
806.478	27899
806.62	27880
806.762	27869
806.904	28006
807.046	28405
807.188	28166
807.33	28230
807.472	28265
807.614	28139
807.756	28226
807.898	28154
808.04	28074
808.182	28166
808.324	28128
808.465	28207
808.607	28329
808.749	28417
808.891	28466
809.033	28634
809.174	28550
809.316	28428
809.458	28489
809.6	28375
809.741	28535
809.883	28607
810.025	28687
810.166	28820
810.308	28809
810.45	28888
810.591	28599
810.733	28641
810.875	28386
811.016	28447
811.158	28363
811.299	28607
811.441	28645
811.582	28565
811.724	28409
811.865	28447
812.007	28375
812.148	28512
812.29	28500
812.431	28603
812.573	28793
812.714	28710
812.855	28904
812.997	29052
813.138	29170
813.279	29178
813.421	29018
813.562	28991
813.703	28847
813.845	28641
813.986	28489
814.127	28318
814.268	28147
814.41	28192
814.551	28086
814.692	28246
814.833	28078
814.974	28086
815.115	28090
815.256	28112
815.397	27880
815.539	27987
815.68	27956
815.821	27880
815.962	28040
816.103	28051
816.244	27759
816.385	27812
816.526	27652
816.666	27644
816.807	27370
816.948	27427
817.089	27431
817.23	27511
817.371	27515
817.512	27386
817.653	27393
817.793	27351
817.934	27469
818.075	27485
818.216	27424
818.356	27389
818.497	27306
818.638	27119
818.778	27279
818.919	27176
819.06	27256
819.2	27264
819.341	27363
819.481	27462
819.622	27671
819.762	27911
819.903	27682
820.043	27648
820.184	27473
820.324	27698
820.465	27622
820.605	27629
820.746	27545
820.886	27443
821.026	27652
821.167	27561
821.307	27625
821.447	27526
821.588	27393
821.728	27283
821.868	27074
822.008	26769
822.149	26982
822.289	26971
822.429	26735
822.569	26636
822.709	26693
822.849	26469
822.99	26400
823.13	26446
823.27	26400
823.41	26233
823.55	26252
823.69	26377
823.83	26237
823.97	26351
824.11	26065
824.25	25982
824.389	26069
824.529	26214
824.669	26054
824.809	26252
824.949	26199
825.089	26233
825.228	26164
825.368	25963
825.508	25928
825.648	26039
825.787	25993
825.927	25959
826.067	25902
826.206	25978
826.346	26016
826.485	26008
826.625	25898
826.765	26172
826.904	25894
827.044	25677
827.183	25616
827.323	25597
827.462	25723
827.601	25613
827.741	25677
827.88	25616
828.02	25624
828.159	25677
828.298	25776
828.437	25719
828.577	25674
828.716	25822
828.855	25582
828.994	25407
829.134	25331
829.273	25358
829.412	25312
829.551	25274
829.69	25468
829.829	25441
829.968	25415
830.107	25403
830.246	25388
830.385	25346
830.524	25259
830.663	25183
830.802	25053
830.941	25118
831.08	24863
831.219	25061
831.357	25206
831.496	25251
831.635	24958
831.774	24833
831.913	24939
832.051	24825
832.19	24871
832.329	24863
832.467	24700
832.606	24521
832.744	24688
832.883	24669
833.022	24563
833.16	24627
833.299	24661
833.437	24764
833.576	24772
833.714	24665
833.852	24768
833.991	24749
834.129	24920
834.267	24715
834.406	24688
834.544	24677
834.682	24669
834.821	24642
834.959	24772
835.097	24631
835.235	24741
835.373	24745
835.511	24654
835.65	24486
835.788	24665
835.926	24426
836.064	24445
836.202	24365
836.34	24547
836.478	24604
836.615	24505
836.753	24646
836.891	24566
837.029	24616
837.167	24467
837.305	24369
837.443	24403
837.58	24395
837.718	24342
837.856	24365
837.993	24247
838.131	24342
838.269	24273
838.406	24171
838.544	24159
838.681	23946
838.819	24034
838.956	23714
839.094	23885
839.231	23843
839.369	24095
839.506	24277
839.643	23912
839.781	23817
839.918	23802
840.055	23665
840.193	23764
840.33	23733
840.467	23771
840.604	23786
840.742	24026
840.879	23524
841.016	23627
841.153	23646
841.29	23901
841.427	23657
841.564	23794
841.701	23764
841.838	23710
841.975	23684
842.112	23623
842.249	23668
842.385	23478
842.522	23703
842.659	23554
842.796	23417
842.933	23547
843.069	23459
843.206	23509
843.343	23471
843.479	23551
843.616	23505
843.752	23254
843.889	23231
844.025	23467
844.162	23284
844.298	23311
844.435	23231
844.571	23166
844.708	23395
844.844	23516
844.98	23417
845.117	23315
845.253	23208
845.389	23200
845.525	23029
845.661	23162
845.798	23037
845.934	23060
846.07	23037
846.206	23003
846.342	23155
846.478	23025
846.614	22744
846.75	22679
846.886	22622
847.022	22858
847.158	22706
847.294	22755
847.429	22805
847.565	22729
847.701	22968
847.837	22478
847.972	22565
848.108	22561
848.244	22565
848.379	22424
848.515	22280
848.65	22295
848.786	22284
848.921	22379
849.057	22508
849.192	22447
849.328	22322
849.463	22379
849.598	22284
849.734	22272
849.869	22131
850.004	22021
850.14	22124
850.275	22207
850.41	22013
850.545	22040
850.68	22082
850.815	21975
850.95	22128
851.085	22242
851.22	22249
851.355	22177
851.49	22013
851.625	22010
851.76	22025
851.895	21911
852.03	22006
852.165	21956
852.299	22150
852.434	22101
852.569	22154
852.703	22048
852.838	22154
852.973	22249
853.107	22109
853.242	21960
853.376	21884
853.511	21831
853.645	21884
853.78	21983
853.914	21838
854.048	21850
854.183	21888
854.317	21907
854.451	22010
854.585	21915
854.72	21968
854.854	21987
854.988	21781
855.122	21850
855.256	21751
855.39	21899
855.524	21953
855.658	22010
855.792	21827
855.926	21922
856.06	21918
856.194	21934
856.327	21888
856.461	21850
856.595	21892
856.729	21911
856.862	21979
856.996	21865
857.13	21926
857.263	22059
857.397	21922
857.53	21873
857.664	22010
857.797	21941
857.931	22036
858.064	21888
858.197	21975
858.331	21979
858.464	21823
858.597	21800
858.731	21911
858.864	21873
858.997	21857
859.13	21926
859.263	21869
859.396	22002
859.529	21903
859.662	21915
859.795	21774
859.928	22078
860.061	22017
860.194	22128
860.327	21994
860.46	22002
860.592	21915
860.725	22044
860.858	22002
860.99	21869
861.123	21884
861.256	21835
861.388	21899
861.521	22497
861.653	21785
861.786	21644
861.918	21846
862.05	21800
862.183	21759
862.315	21724
862.447	21892
862.58	21808
862.712	21633
862.844	21599
862.976	21625
863.108	21583
863.24	22169
863.372	21686
863.504	21549
863.636	21515
863.768	21629
863.9	21568
864.032	21580
864.164	21557
864.296	21675
864.428	21705
864.559	21709
864.691	21629
864.823	21690
864.954	21622
865.086	21538
865.217	21564
865.349	21389
865.48	21488
865.612	21500
865.743	21583
865.875	21538
866.006	21428
866.137	21610
866.269	21549
866.4	21526
866.531	21458
866.662	21485
866.793	21420
866.924	21443
867.055	21416
867.186	21416
867.317	21431
867.448	21211
867.579	21412
867.71	21378
867.841	21302
867.972	21393
868.103	21511
868.233	21439
868.364	21469
868.495	21538
868.625	21583
868.756	21747
868.886	21656
869.017	21633
869.147	21671
869.278	21701
869.408	21785
869.539	21694
869.669	21823
869.799	21648
869.929	21732
870.06	21857
870.19	21972
870.32	21975
870.45	22048
870.58	21956
870.71	22192
870.84	22078
870.97	22025
871.1	21983
871.23	22268
871.36	22207
871.489	22162
871.619	22242
871.749	22268
871.879	22360
872.008	22333
872.138	22280
872.267	22207
872.397	22139
872.526	22055
872.656	22109
872.785	22147
872.915	22200
873.044	22421
873.173	22367
873.303	22341
873.432	22249
873.561	22379
873.69	22261
873.819	22287
873.948	22531
874.077	22314
874.206	22207
874.335	22322
874.464	22455
874.593	22512
874.722	22398
874.851	22516
874.979	22561
875.108	22470
875.237	22432
875.365	22413
875.494	22508
875.623	22573
875.751	22436
875.88	22455
876.008	22721
876.136	22759
876.265	22847
876.393	23113
876.521	23052
876.65	23064
876.778	22873
876.906	22854
877.034	22892
877.162	22850
877.29	22774
877.418	22763
877.546	22805
877.674	22885
877.802	22805
877.93	22828
878.058	22812
878.185	22691
878.313	22767
878.441	22854
878.568	22675
878.696	22774
878.824	23010
878.951	22797
879.079	23006
879.206	23124
879.333	22999
879.461	22835
879.588	22987
879.715	23060
879.842	23132
879.97	23010
880.097	22702
880.224	22771
880.351	22824
880.478	22660
880.605	22725
880.732	22801
880.859	22839
880.986	22763
881.112	22668
881.239	22497
881.366	22474
881.493	22223
881.619	22280
881.746	22265
881.872	22284
881.999	22379
882.125	22215
882.252	22329
882.378	22249
882.505	22325
882.631	22051
882.757	22013
882.883	22093
883.01	21880
883.136	21911
883.262	21778
883.388	21835
883.514	21899
883.64	21903
883.766	21857
883.892	21720
884.018	21724
884.143	21911
884.269	21941
884.395	21671
884.52	21545
884.646	21523
884.772	21420
884.897	21412
885.023	21530
885.148	21580
885.274	21736
885.399	21633
885.524	21580
885.65	21606
885.775	21633
885.9	21599
886.025	21690
886.15	21530
886.275	21561
886.4	21458
886.525	21587
886.65	21477
886.775	21477
886.9	21644
887.025	21816
887.149	21416
887.274	21405
887.399	21389
887.523	21332
887.648	21233
887.773	21272
887.897	21359
888.021	21466
888.146	21138
888.27	21477
888.395	21389
888.519	21306
888.643	21329
888.767	21428
888.891	21150
889.015	21184
889.139	21222
889.263	21089
889.387	21127
889.511	21260
889.635	21256
889.759	21081
889.883	21020
890.006	21123
890.13	21192
890.254	20948
890.377	21135
890.501	20887
890.624	20891
890.748	21005
890.871	20587
890.995	20682
891.118	20670
891.241	20750
891.364	20720
891.488	20724
891.611	20834
891.734	20720
891.857	20678
891.98	20720
892.103	20823
892.226	20708
892.349	20697
892.471	20526
892.594	20530
892.717	20552
892.839	20602
892.962	20613
893.085	20659
893.207	20636
893.33	20457
893.452	20541
893.575	20705
893.697	20655
893.819	20735
893.941	20807
894.064	20659
894.186	20571
894.308	20476
894.43	20632
894.552	20705
894.674	20644
894.796	20518
894.918	20541
895.04	20499
895.161	20560
895.283	20621
895.405	20629
895.526	20484
895.648	20568
895.769	20587
895.891	20670
896.012	20621
896.134	20541
896.255	20613
896.376	20495
896.498	20465
896.619	20587
896.74	20621
896.861	20697
896.982	20899
897.103	21043
897.224	20857
897.345	20777
897.466	20830
897.587	20754
897.708	20872
897.828	20800
897.949	20697
898.07	20609
898.19	20758
898.311	20830
898.431	20739
898.552	20762
898.672	20785
898.792	20796
898.913	20838
899.033	20796
899.153	20579
899.273	20488
899.393	20533
899.513	20613
899.633	20579
899.753	20560
899.873	20389
899.993	20545
900.113	20442
900.232	20492
900.352	20355
900.472	20396
900.591	20324
900.711	20385
900.83	20267
900.95	20457
901.069	20343
901.189	20176
901.308	19940
901.427	19909
901.546	19814
901.665	19879
901.784	19871
901.904	19723
902.023	19655
902.141	19445
902.26	19430
902.379	19518
902.498	19441
902.617	19369
902.735	19460
902.854	19324
902.973	19327
903.091	19160
903.21	19057
903.328	19232
903.446	19042
903.565	18958
903.683	18859
903.801	18753
903.919	18856
904.038	18837
904.156	18711
904.274	18612
904.392	18650
904.51	18620
904.627	18730
904.745	18566
904.863	18585
904.981	18414
905.098	18251
905.216	18304
905.334	18350
905.451	18281
905.569	18182
905.686	18239
905.803	18197
905.921	18049
906.038	18213
906.155	18026
906.272	18034
906.389	17973
906.506	17859
906.623	17771
906.74	17897
906.857	17665
906.974	17722
907.091	17805
907.208	17961
907.324	17775
907.441	17585
907.557	17547
907.674	17562
907.79	17459
907.907	17501
908.023	17535
908.139	17520
908.256	17387
908.372	17467
908.488	17322
908.604	17330
908.72	17208
908.836	17208
908.952	17189
909.068	17296
909.184	17364
909.3	17250
909.415	17334
909.531	17208
909.647	16995
909.762	16987
909.878	16915
909.993	16961
910.108	16934
910.224	16862
910.339	16889
910.454	16824
910.57	16717
910.685	16740
910.8	17018
910.915	16744
911.03	16797
911.145	16527
911.259	16481
911.374	16584
911.489	16577
911.604	16409
911.718	16280
911.833	16348
911.947	16185
912.062	16120
912.176	16318
912.291	16402
912.405	16242
912.519	16508
912.633	16417
912.748	16337
912.862	16215
912.976	16063
913.09	16013
913.204	16048
913.318	16071
913.431	16105
913.545	16025
913.659	16173
913.772	16059
913.886	15880
914	15823
914.113	15926
914.226	16025
914.34	15869
914.453	15869
914.566	15953
914.68	15816
914.793	15698
914.906	15526
915.019	15504
915.132	15416
915.245	15481
915.358	15439
915.47	15466
915.583	15428
915.696	15515
915.809	15637
915.921	15553
916.034	15386
916.146	15412
916.259	15298
916.371	15386
916.483	15378
916.595	15268
916.708	15329
916.82	15370
916.932	15222
917.044	15306
917.156	15226
917.268	15173
917.38	15157
917.491	15192
917.603	15176
917.715	15108
917.826	15184
917.938	15093
918.049	14925
918.161	15097
918.272	15230
918.384	15135
918.495	15093
918.606	14853
918.717	14788
918.828	14899
918.939	14876
919.05	14804
919.161	14826
919.272	14579
919.383	14689
919.494	14914
919.604	15070
919.715	14872
919.826	14754
919.936	14826
920.047	14910
920.157	14861
920.267	14944
920.378	14887
920.488	14788
920.598	15062
920.708	15165
920.818	14982
920.928	14918
921.038	15089
921.148	15058
921.258	14830
921.368	14670
921.477	14579
921.587	14560
921.697	14377
921.806	14526
921.916	14415
922.025	14298
922.134	14290
922.244	14161
922.353	14229
922.462	14054
922.571	14031
922.68	13917
922.789	13772
922.898	13811
923.007	13791
923.116	13852
923.224	13822
923.333	13799
923.442	13772
923.55	13601
923.659	13731
923.767	13765
923.876	13666
923.984	13681
924.092	13529
924.201	13681
924.309	13582
924.417	13540
924.525	13445
924.633	13468
924.741	14408
924.849	13274
924.956	13441
925.064	13343
925.172	13221
925.279	13221
925.387	13266
925.494	13285
925.602	13278
925.709	13312
925.816	13179
925.924	13194
926.031	13324
926.138	13247
926.245	13255
926.352	13110
926.459	13145
926.566	13190
926.673	13145
926.779	13050
926.886	12928
926.993	12901
927.099	12810
927.206	12722
927.312	12741
927.419	12783
927.525	12741
927.631	12844
927.737	12749
927.843	12646
927.95	12502
928.056	12585
928.162	12688
928.267	12631
928.373	13183
928.479	12684
928.585	12395
928.69	12601
928.796	12566
928.901	12490
929.007	12350
929.112	12395
929.218	12418
929.323	12422
929.428	12338
929.533	12353
929.638	12213
929.743	12300
929.848	12296
929.953	12277
930.058	12083
930.163	11961
930.267	12068
930.372	12121
930.477	11980
930.581	12190
930.685	12007
930.79	11904
930.894	11897
930.998	11901
931.103	11984
931.207	11653
931.311	11592
931.415	11497
931.519	11223
931.623	11212
