Data from test_V78500241_56.txt Node
Date: Fri Mar 25 15:42:11 CST 2022
User: usil
Spectrometer: V785-0024
Trigger mode: 0
Integration Time (sec): 4.000000E-1
Scans to average: 1
Nonlinearity correction enabled: false
Boxcar width: 0
Storing dark spectrum: false
XAxis mode: Wavelengths
Number of Pixels in Spectrum: 1024
>>>>>Begin Spectral Data<<<<<
801.071	29691
801.214	29596
801.356	29421
801.499	29334
801.641	29044
801.783	29151
801.926	29200
802.068	29056
802.211	29083
802.353	28961
802.496	28793
802.638	29029
802.78	28660
802.923	28653
803.065	28656
803.208	28713
803.35	28858
803.492	29010
803.635	28873
803.777	28843
803.919	29022
804.061	29231
804.204	28911
804.346	28767
804.488	28710
804.63	28984
804.773	28858
804.915	28896
805.057	28995
805.199	28809
805.341	28885
805.483	28999
805.626	28934
805.768	28691
805.91	28976
806.052	28949
806.194	28831
806.336	29258
806.478	29048
806.62	29102
806.762	29147
806.904	29204
807.046	29497
807.188	29360
807.33	29368
807.472	29383
807.614	29337
807.756	29326
807.898	29105
808.04	29208
808.182	29117
808.324	29242
808.465	29220
808.607	29277
808.749	29528
808.891	29551
809.033	29767
809.174	29535
809.316	29467
809.458	29638
809.6	29455
809.741	29592
809.883	29531
810.025	29687
810.166	29661
810.308	29843
810.45	29661
810.591	29585
810.733	29608
810.875	29520
811.016	29391
811.158	29322
811.299	29596
811.441	29642
811.582	29714
811.724	29463
811.865	29375
812.007	29486
812.148	29372
812.29	29497
812.431	29707
812.573	29695
812.714	29741
812.855	29973
812.997	29973
813.138	30011
813.279	30068
813.421	29992
813.562	29931
813.703	29668
813.845	29592
813.986	29296
814.127	29071
814.268	29067
814.41	28995
814.551	29056
814.692	29155
814.833	28934
814.974	29060
815.115	28938
815.256	28858
815.397	28839
815.539	28805
815.68	28763
815.821	28733
815.962	28691
816.103	28698
816.244	28656
816.385	28512
816.526	28443
816.666	28242
816.807	28188
816.948	28154
817.089	28215
817.23	28093
817.371	28002
817.512	28150
817.653	27987
817.793	28006
817.934	28116
818.075	28169
818.216	28139
818.356	28013
818.497	28036
818.638	27922
818.778	27770
818.919	27732
819.06	27873
819.2	27949
819.341	27994
819.481	27968
819.622	28093
819.762	28272
819.903	28405
820.043	28215
820.184	28131
820.324	28044
820.465	28196
820.605	28173
820.746	28067
820.886	28029
821.026	28013
821.167	28101
821.307	28253
821.447	28078
821.588	27899
821.728	27686
821.868	27534
822.008	27473
822.149	27435
822.289	27378
822.429	27222
822.569	27051
822.709	27165
822.849	26948
822.99	26960
823.13	26887
823.27	26845
823.41	26731
823.55	26518
823.69	26670
823.83	26807
823.97	26560
824.11	26450
824.25	26541
824.389	26366
824.529	26522
824.669	26537
824.809	26522
824.949	26530
825.089	26476
825.228	26434
825.368	26183
825.508	26370
825.648	26176
825.787	26332
825.927	26404
826.067	26271
826.206	26267
826.346	26336
826.485	26442
826.625	26263
826.765	26393
826.904	26358
827.044	25982
827.183	26016
827.323	25982
827.462	26012
827.601	25822
827.741	25917
827.88	26039
828.02	25704
828.159	25909
828.298	25875
828.437	26077
828.577	25788
828.716	25913
828.855	25708
828.994	25559
829.134	25639
829.273	25647
829.412	25430
829.551	25445
829.69	25499
829.829	25685
829.968	25605
830.107	25761
830.246	25502
830.385	25510
830.524	25350
830.663	25350
830.802	25259
830.941	25038
831.08	25145
831.219	25221
831.357	25099
831.496	25255
831.635	25137
831.774	25012
831.913	24916
832.051	24821
832.19	24821
832.329	24833
832.467	24661
832.606	24642
832.744	24650
832.883	24684
833.022	24707
833.16	24783
833.299	24764
833.437	24772
833.576	24738
833.714	24639
833.852	24768
833.991	24684
834.129	24760
834.267	24829
834.406	24650
834.544	24612
834.682	24650
834.821	24642
834.959	24821
835.097	24574
835.235	24669
835.373	24684
835.511	24623
835.65	24604
835.788	24532
835.926	24395
836.064	24346
836.202	24448
836.34	24494
836.478	24631
836.615	24475
836.753	24509
836.891	24536
837.029	24513
837.167	24422
837.305	24528
837.443	24266
837.58	24369
837.718	24376
837.856	24235
837.993	24311
838.131	24365
838.269	24186
838.406	24144
838.544	24152
838.681	24049
838.819	23939
838.956	23748
839.094	23767
839.231	23832
839.369	23821
839.506	24072
839.643	23946
839.781	23703
839.918	23623
840.055	23745
840.193	23691
840.33	23459
840.467	23516
840.604	23634
840.742	23904
840.879	23562
841.016	23520
841.153	23448
841.29	23691
841.427	23672
841.564	23623
841.701	23627
841.838	23455
841.975	23501
842.112	23330
842.249	23398
842.385	23299
842.522	23516
842.659	23410
842.796	23185
842.933	23197
843.069	23174
843.206	23277
843.343	23277
843.479	23265
843.616	23166
843.752	23136
843.889	23006
844.025	23079
844.162	23056
844.298	22972
844.435	22934
844.571	22923
844.708	23064
844.844	23250
844.98	23075
845.117	23006
845.253	22843
845.389	22877
845.525	22900
845.661	22889
845.798	22759
845.934	22816
846.07	22557
846.206	22752
846.342	22790
846.478	22759
846.614	22455
846.75	22413
846.886	22443
847.022	22466
847.158	22474
847.294	22409
847.429	22531
847.565	22360
847.701	22531
847.837	22086
847.972	22181
848.108	22265
848.244	22150
848.379	22029
848.515	21854
848.65	21937
848.786	21934
848.921	21876
849.057	22120
849.192	21892
849.328	22010
849.463	21865
849.598	21876
849.734	21926
849.869	21762
850.004	21781
850.14	21759
850.275	21606
850.41	21637
850.545	21603
850.68	21686
850.815	21618
850.95	21599
851.085	21956
851.22	21713
851.355	21606
851.49	21545
851.625	21622
851.76	21583
851.895	21572
852.03	21504
852.165	21606
852.299	21709
852.434	21690
852.569	21743
852.703	21625
852.838	21652
852.973	21751
853.107	21739
853.242	21519
853.376	21454
853.511	21450
853.645	21386
853.78	21523
853.914	21428
854.048	21439
854.183	21393
854.317	21545
854.451	21633
854.585	21549
854.72	21313
854.854	21542
854.988	21435
855.122	21500
855.256	21374
855.39	21382
855.524	21526
855.658	21466
855.792	21412
855.926	21408
856.06	21496
856.194	21405
856.327	21435
856.461	21348
856.595	21340
856.729	21386
856.862	21500
856.996	21401
857.13	21564
857.263	21538
857.397	21408
857.53	21370
857.664	21408
857.797	21401
857.931	21370
858.064	21534
858.197	21488
858.331	21485
858.464	21252
858.597	21256
858.731	21310
858.864	21294
858.997	21146
859.13	21378
859.263	21439
859.396	21481
859.529	21348
859.662	21298
859.795	21279
859.928	21230
860.061	21580
860.194	21450
860.327	21450
860.46	21393
860.592	21542
860.725	21393
860.858	21439
860.99	21344
861.123	21313
861.256	21203
861.388	21473
861.521	21873
861.653	21249
861.786	21135
861.918	21359
862.05	21291
862.183	21306
862.315	21428
862.447	21447
862.58	21405
862.712	21142
862.844	21100
862.976	21043
863.108	21138
863.24	21447
863.372	20921
863.504	20982
863.636	21024
863.768	21116
863.9	20998
864.032	21028
864.164	20906
864.296	21112
864.428	21146
864.559	21176
864.691	21055
864.823	21047
864.954	20960
865.086	20941
865.217	20925
865.349	20868
865.48	20956
865.612	20956
865.743	20982
865.875	20929
866.006	20906
866.137	21070
866.269	20952
866.4	20891
866.531	20941
866.662	20948
866.793	20914
866.924	20796
867.055	20902
867.186	20937
867.317	20655
867.448	20712
867.579	20804
867.71	20788
867.841	20674
867.972	20826
868.103	20880
868.233	20861
868.364	20845
868.495	21024
868.625	20971
868.756	21180
868.886	20963
869.017	21001
869.147	21173
869.278	21055
869.408	21123
869.539	21085
869.669	21142
869.799	21104
869.929	21287
870.06	21135
870.19	21317
870.32	21310
870.45	21351
870.58	21424
870.71	21572
870.84	21492
870.97	21504
871.1	21580
871.23	21614
871.36	21728
871.489	21485
871.619	21603
871.749	21618
871.879	21679
872.008	21739
872.138	21698
872.267	21629
872.397	21663
872.526	21466
872.656	21477
872.785	21408
872.915	21641
873.044	21793
873.173	21606
873.303	21736
873.432	21751
873.561	21800
873.69	21728
873.819	21682
873.948	21739
874.077	21694
874.206	21523
874.335	21724
874.464	21778
874.593	21960
874.722	21968
874.851	21983
874.979	21987
875.108	21926
875.237	21819
875.365	21774
875.494	21972
875.623	21918
875.751	21968
875.88	22029
876.008	22109
876.136	22192
876.265	22284
876.393	22504
876.521	22371
876.65	22367
876.778	22253
876.906	22238
877.034	22291
877.162	22257
877.29	22215
877.418	22276
877.546	22238
877.674	22344
877.802	22344
877.93	22192
878.058	22249
878.185	22032
878.313	22242
878.441	22295
878.568	22097
878.696	22185
878.824	22310
878.951	22325
879.079	22478
879.206	22508
879.333	22424
879.461	22322
879.588	22405
879.715	22386
879.842	22603
879.97	22459
880.097	22021
880.224	22051
880.351	22196
880.478	22040
880.605	22059
880.732	22105
880.859	22310
880.986	22135
881.112	21949
881.239	21956
881.366	21835
881.493	21732
881.619	21656
881.746	21724
881.872	21629
881.999	21572
882.125	21622
882.252	21720
882.378	21637
882.505	21873
882.631	21526
882.757	21439
882.883	21481
883.01	21397
883.136	21363
883.262	21264
883.388	21241
883.514	21504
883.64	21397
883.766	21275
883.892	21256
884.018	21211
884.143	21515
884.269	21557
884.395	21096
884.52	21036
884.646	21116
884.772	21020
884.897	20937
885.023	21138
885.148	21135
885.274	21199
885.399	21192
885.524	21093
885.65	21131
885.775	21043
885.9	20872
886.025	21100
886.15	21135
886.275	20910
886.4	20826
886.525	20872
886.65	20937
886.775	20914
886.9	21169
887.025	21188
887.149	20971
887.274	20883
887.399	20750
887.523	20800
887.648	20674
887.773	20655
887.897	20796
888.021	20788
888.146	20826
888.27	20872
888.395	20800
888.519	20876
888.643	20796
888.767	20857
888.891	20629
889.015	20670
889.139	20739
889.263	20655
889.387	20625
889.511	20716
889.635	20758
889.759	20632
889.883	20644
890.006	20488
890.13	20621
890.254	20412
890.377	20473
890.501	20336
890.624	20240
890.748	20385
890.871	20073
890.995	20100
891.118	20142
891.241	20092
891.364	20073
891.488	20202
891.611	20062
891.734	20103
891.857	20229
891.98	20172
892.103	20206
892.226	20084
892.349	19993
892.471	19978
892.594	19982
892.717	20138
892.839	20001
892.962	20031
893.085	20168
893.207	19978
893.33	19894
893.452	20027
893.575	20065
893.697	19993
893.819	20221
893.941	20301
894.064	20202
894.186	19906
894.308	19947
894.43	20202
894.552	20145
894.674	20134
894.796	19963
894.918	19925
895.04	19993
895.161	20024
895.283	20100
895.405	19989
895.526	19989
895.648	20001
895.769	20145
895.891	20020
896.012	20142
896.134	20058
896.255	20092
896.376	20058
896.498	20096
896.619	20111
896.74	20119
896.861	20153
896.982	20461
897.103	20571
897.224	20412
897.345	20434
897.466	20244
897.587	20332
897.708	20400
897.828	20221
897.949	20294
898.07	20016
898.19	20142
898.311	20374
898.431	20214
898.552	20301
898.672	20278
898.792	20271
898.913	20214
899.033	20126
899.153	20088
899.273	19852
899.393	20016
899.513	19864
899.633	19909
899.753	19932
899.873	19864
899.993	19925
900.113	19871
900.232	19921
900.352	19818
900.472	19788
900.591	19700
900.711	19772
900.83	19693
900.95	19818
901.069	19734
901.189	19666
901.308	19552
901.427	19331
901.546	19285
901.665	19377
901.784	19240
901.904	19168
902.023	19084
902.141	18863
902.26	18867
902.379	18894
902.498	18943
902.617	18795
902.735	18886
902.854	18738
902.973	18563
903.091	18536
903.21	18403
903.328	18437
903.446	18399
903.565	18163
903.683	18372
903.801	18117
903.919	18330
904.038	18182
904.156	18155
904.274	18205
904.392	18110
904.51	18019
904.627	17988
904.745	18030
904.863	18034
904.981	17756
905.098	17748
905.216	17668
905.334	17798
905.451	17642
905.569	17680
905.686	17783
905.803	17684
905.921	17486
906.038	17497
906.155	17440
906.272	17417
906.389	17402
906.506	17220
906.623	17284
906.74	17128
906.857	17102
906.974	17064
907.091	17170
907.208	17341
907.324	17269
907.441	17193
907.557	16938
907.674	16877
907.79	16904
907.907	16889
908.023	16877
908.139	16801
908.256	16835
908.372	16755
908.488	16706
908.604	16580
908.72	16527
908.836	16603
908.952	16626
909.068	16618
909.184	16622
909.3	16470
909.415	16653
909.531	16550
909.647	16280
909.762	16299
909.878	16306
909.993	16325
910.108	16299
910.224	16265
910.339	16207
910.454	16154
910.57	16021
910.685	15975
910.8	16211
910.915	16166
911.03	16158
911.145	15876
911.259	15960
911.374	15911
911.489	15861
911.604	15694
911.718	15618
911.833	15694
911.947	15538
912.062	15412
912.176	15618
912.291	15709
912.405	15698
912.519	15857
912.633	15831
912.748	15599
912.862	15511
912.976	15359
913.09	15351
913.204	15370
913.318	15469
913.431	15584
913.545	15412
913.659	15557
913.772	15412
913.886	15283
914	15218
914.113	15374
914.226	15279
914.34	15291
914.453	15135
914.566	15298
914.68	15097
914.793	15081
914.906	14941
915.019	14800
915.132	14765
915.245	14876
915.358	14872
915.47	14857
915.583	14899
915.696	14857
915.809	15074
915.921	15032
916.034	14777
916.146	14674
916.259	14663
916.371	14842
916.483	14777
916.595	14552
916.708	14731
916.82	14632
916.932	14644
917.044	14606
917.156	14568
917.268	14514
917.38	14495
917.491	14522
917.603	14568
917.715	14556
917.826	14579
917.938	14396
918.049	14263
918.161	14450
918.272	14480
918.384	14541
918.495	14438
918.606	14328
918.717	14218
918.828	14229
918.939	14317
919.05	14088
919.161	14259
919.272	14024
919.383	14005
919.494	14298
919.604	14351
919.715	14138
919.826	14130
919.936	14081
920.047	14305
920.157	14199
920.267	14343
920.378	14145
920.488	14103
920.598	14400
920.708	14476
920.818	14305
920.928	14313
921.038	14480
921.148	14484
921.258	14172
921.368	13997
921.477	13955
921.587	13849
921.697	13734
921.806	13864
921.916	13803
922.025	13643
922.134	13575
922.244	13548
922.353	13616
922.462	13419
922.571	13415
922.68	13183
922.789	13221
922.898	13202
923.007	13156
923.116	13225
923.224	13137
923.333	13110
923.442	13091
923.55	13046
923.659	13061
923.767	13069
923.876	12852
923.984	13091
924.092	12734
924.201	12882
924.309	12939
924.417	12962
924.525	12787
924.633	12848
924.741	13723
924.849	12658
924.956	12760
925.064	12662
925.172	12608
925.279	12555
925.387	12616
925.494	12612
925.602	12787
925.709	12589
925.816	12585
925.924	12574
926.031	12677
926.138	12585
926.245	12639
926.352	12467
926.459	12700
926.566	12669
926.673	12460
926.779	12334
926.886	12376
926.993	12205
927.099	12171
927.206	12155
927.312	12136
927.419	12178
927.525	12220
927.631	12285
927.737	12125
927.843	12034
927.95	11927
928.056	12003
928.162	12076
928.267	12019
928.373	12646
928.479	12026
928.585	11832
928.69	11999
928.796	11992
928.901	11847
929.007	11668
929.112	11866
929.218	11802
929.323	11748
929.428	11623
929.533	11885
929.638	11661
929.743	11710
929.848	11771
929.953	11653
930.058	11570
930.163	11433
930.267	11474
930.372	11642
930.477	11368
930.581	11627
930.685	11467
930.79	11402
930.894	11360
930.998	11277
931.103	11414
931.207	11098
931.311	10946
931.415	10911
931.519	10653
931.623	10611
