Data from test_V78500241_3219.txt Node
Date: Fri Mar 25 16:04:06 CST 2022
User: usil
Spectrometer: V785-0024
Trigger mode: 0
Integration Time (sec): 4.000000E-1
Scans to average: 1
Nonlinearity correction enabled: false
Boxcar width: 0
Storing dark spectrum: false
XAxis mode: Wavelengths
Number of Pixels in Spectrum: 1024
>>>>>Begin Spectral Data<<<<<
801.071	28778
801.214	28645
801.356	28421
801.499	28428
801.641	28344
801.783	28348
801.926	28500
802.068	28249
802.211	28299
802.353	28223
802.496	28109
802.638	28105
802.78	28086
802.923	28025
803.065	27934
803.208	27914
803.35	28010
803.492	28101
803.635	28242
803.777	28143
803.919	28223
804.061	28588
804.204	28329
804.346	28086
804.488	28070
804.63	28185
804.773	28253
804.915	28394
805.057	28325
805.199	28143
805.341	28287
805.483	28481
805.626	28436
805.768	28257
805.91	28356
806.052	28432
806.194	28371
806.336	28557
806.478	28436
806.62	28497
806.762	28607
806.904	28774
807.046	28984
807.188	28645
807.33	29014
807.472	28987
807.614	28828
807.756	28843
807.898	28713
808.04	28481
808.182	28523
808.324	28759
808.465	28877
808.607	29025
808.749	29174
808.891	29083
809.033	29246
809.174	29102
809.316	29098
809.458	29003
809.6	29105
809.741	29037
809.883	29250
810.025	29436
810.166	29455
810.308	29368
810.45	29448
810.591	29220
810.733	29170
810.875	29052
811.016	29261
811.158	29181
811.299	29280
811.441	29220
811.582	29299
811.724	29143
811.865	29136
812.007	29212
812.148	29113
812.29	29216
812.431	29261
812.573	29474
812.714	29684
812.855	29672
812.997	29760
813.138	29935
813.279	29859
813.421	29767
813.562	29707
813.703	29467
813.845	29311
813.986	29094
814.127	29010
814.268	28869
814.41	28801
814.551	28911
814.692	28869
814.833	28862
814.974	28683
815.115	28847
815.256	28649
815.397	28729
815.539	28809
815.68	28805
815.821	28561
815.962	28694
816.103	28634
816.244	28432
816.385	28390
816.526	28519
816.666	28147
816.807	28040
816.948	28181
817.089	28234
817.23	28150
817.371	28078
817.512	28082
817.653	28078
817.793	28322
817.934	28185
818.075	28196
818.216	28032
818.356	28143
818.497	28032
818.638	27785
818.778	27914
818.919	27918
819.06	28051
819.2	28063
819.341	28204
819.481	28147
819.622	28322
819.762	28440
819.903	28535
820.043	28394
820.184	28352
820.324	28333
820.465	28413
820.605	28329
820.746	28390
820.886	28211
821.026	28154
821.167	28238
821.307	28226
821.447	28280
821.588	28036
821.728	28090
821.868	27857
822.008	27770
822.149	27538
822.289	27652
822.429	27473
822.569	27310
822.709	27298
822.849	27275
822.99	27195
823.13	27096
823.27	27203
823.41	27055
823.55	26967
823.69	26967
823.83	26971
823.97	26952
824.11	26811
824.25	26731
824.389	26667
824.529	26857
824.669	26842
824.809	26857
824.949	27013
825.089	26937
825.228	26842
825.368	26678
825.508	26727
825.648	26708
825.787	26724
825.927	26682
826.067	26640
826.206	26705
826.346	26758
826.485	26712
826.625	26705
826.765	26830
826.904	26731
827.044	26609
827.183	26442
827.323	26278
827.462	26560
827.601	26408
827.741	26427
827.88	26438
828.02	26294
828.159	26374
828.298	26434
828.437	26438
828.577	26419
828.716	26552
828.855	26298
828.994	26126
829.134	26039
829.273	26145
829.412	26065
829.551	26138
829.69	26233
829.829	26100
829.968	26202
830.107	26237
830.246	26096
830.385	26005
830.524	26016
830.663	25963
830.802	25860
830.941	25689
831.08	25784
831.219	25811
831.357	25791
831.496	25951
831.635	25845
831.774	25632
831.913	25696
832.051	25476
832.19	25514
832.329	25556
832.467	25525
832.606	25346
832.744	25270
832.883	25476
833.022	25312
833.16	25441
833.299	25403
833.437	25487
833.576	25422
833.714	25487
833.852	25582
833.991	25350
834.129	25521
834.267	25525
834.406	25434
834.544	25441
834.682	25472
834.821	25491
834.959	25556
835.097	25346
835.235	25499
835.373	25483
835.511	25335
835.65	25373
835.788	25343
835.926	25160
836.064	25133
836.202	25145
836.34	25297
836.478	25339
836.615	25266
836.753	25240
836.891	25426
837.029	25396
837.167	25339
837.305	25164
837.443	24996
837.58	25099
837.718	25171
837.856	25095
837.993	24989
838.131	25065
838.269	25091
838.406	24882
838.544	24939
838.681	24684
838.819	24852
838.956	24585
839.094	24593
839.231	24479
839.369	24928
839.506	25118
839.643	24825
839.781	24593
839.918	24475
840.055	24578
840.193	24555
840.33	24494
840.467	24578
840.604	24517
840.742	24620
840.879	24350
841.016	24437
841.153	24273
841.29	24460
841.427	24407
841.564	24426
841.701	24433
841.838	24429
841.975	24414
842.112	24346
842.249	24300
842.385	24125
842.522	24361
842.659	24448
842.796	24365
842.933	24330
843.069	24083
843.206	24205
843.343	24334
843.479	24296
843.616	24167
843.752	24049
843.889	24030
844.025	24133
844.162	24072
844.298	24091
844.435	23958
844.571	23927
844.708	23954
844.844	24220
844.98	24319
845.117	23999
845.253	24007
845.389	23824
845.525	23988
845.661	23794
845.798	23748
845.934	23798
846.07	23722
846.206	23893
846.342	23843
846.478	23866
846.614	23600
846.75	23429
846.886	23516
847.022	23638
847.158	23524
847.294	23524
847.429	23463
847.565	23512
847.701	23684
847.837	23273
847.972	23250
848.108	23318
848.244	23216
848.379	23071
848.515	23090
848.65	22987
848.786	23132
848.921	23056
849.057	23197
849.192	23132
849.328	23094
849.463	23006
849.598	22976
849.734	22957
849.869	23003
850.004	22774
850.14	22946
850.275	22847
850.41	22653
850.545	22885
850.68	22683
850.815	22820
850.95	22698
851.085	23003
851.22	22820
851.355	22908
851.49	22835
851.625	22812
851.76	22824
851.895	22706
852.03	22767
852.165	22729
852.299	22900
852.434	22889
852.569	22793
852.703	22869
852.838	22786
852.973	23003
853.107	23079
853.242	22774
853.376	22744
853.511	22428
853.645	22599
853.78	22790
853.914	22618
854.048	22645
854.183	22523
854.317	22584
854.451	22767
854.585	22641
854.72	22679
854.854	22744
854.988	22653
855.122	22668
855.256	22550
855.39	22550
855.524	22675
855.658	22664
855.792	22702
855.926	22596
856.06	22675
856.194	22752
856.327	22656
856.461	22573
856.595	22535
856.729	22653
856.862	22641
856.996	22691
857.13	22740
857.263	22698
857.397	22618
857.53	22626
857.664	22755
857.797	22717
857.931	22664
858.064	22774
858.197	22733
858.331	22679
858.464	22599
858.597	22653
858.731	22622
858.864	22546
858.997	22660
859.13	22607
859.263	22611
859.396	22717
859.529	22702
859.662	22645
859.795	22653
859.928	22626
860.061	22850
860.194	22812
860.327	22683
860.46	22679
860.592	22694
860.725	22752
860.858	22793
860.99	22710
861.123	22573
861.256	22527
861.388	22565
861.521	23315
861.653	22596
861.786	22424
861.918	22367
862.05	22466
862.183	22523
862.315	22611
862.447	22535
862.58	22660
862.712	22459
862.844	22303
862.976	22481
863.108	22303
863.24	22782
863.372	22246
863.504	22341
863.636	22322
863.768	22417
863.9	22436
864.032	22238
864.164	22432
864.296	22371
864.428	22417
864.559	22299
864.691	22432
864.823	22417
864.954	22360
865.086	22341
865.217	22306
865.349	22101
865.48	22204
865.612	22226
865.743	22455
865.875	22287
866.006	22284
866.137	22147
866.269	22276
866.4	22166
866.531	22192
866.662	22116
866.793	22154
866.924	22143
867.055	22116
867.186	22325
867.317	22082
867.448	22048
867.579	22188
867.71	22112
867.841	22101
867.972	22006
868.103	22173
868.233	22131
868.364	22166
868.495	22192
868.625	22318
868.756	22531
868.886	22356
869.017	22341
869.147	22485
869.278	22432
869.408	22379
869.539	22360
869.669	22417
869.799	22504
869.929	22531
870.06	22527
870.19	22706
870.32	22698
870.45	22733
870.58	22759
870.71	22980
870.84	22828
870.97	22740
871.1	22869
871.23	22946
871.36	23060
871.489	22908
871.619	23041
871.749	23025
871.879	23086
872.008	23037
872.138	22896
872.267	22930
872.397	22972
872.526	22805
872.656	22850
872.785	22847
872.915	22987
873.044	23132
873.173	22957
873.303	23033
873.432	23010
873.561	23204
873.69	23037
873.819	22946
873.948	23117
874.077	23064
874.206	22896
874.335	22942
874.464	23143
874.593	23277
874.722	23212
874.851	23185
874.979	23292
875.108	23200
875.237	23052
875.365	23265
875.494	23322
875.623	23360
875.751	23246
875.88	23212
876.008	23261
876.136	23429
876.265	23623
876.393	23756
876.521	23623
876.65	23783
876.778	23615
876.906	23543
877.034	23627
877.162	23608
877.29	23482
877.418	23486
877.546	23611
877.674	23611
877.802	23585
877.93	23551
878.058	23482
878.185	23402
878.313	23547
878.441	23562
878.568	23322
878.696	23490
878.824	23619
878.951	23531
879.079	23809
879.206	23927
879.333	23783
879.461	23687
879.588	23634
879.715	23680
879.842	23775
879.97	23767
880.097	23444
880.224	23398
880.351	23421
880.478	23482
880.605	23360
880.732	23250
880.859	23619
880.986	23383
881.112	23520
881.239	23208
881.366	23048
881.493	22949
881.619	23041
881.746	22900
881.872	22942
881.999	22869
882.125	22869
882.252	22919
882.378	22831
882.505	23018
882.631	22767
882.757	22550
882.883	22668
883.01	22660
883.136	22634
883.262	22550
883.388	22485
883.514	22622
883.64	22656
883.766	22641
883.892	22402
884.018	22287
884.143	22599
884.269	22603
884.395	22443
884.52	22242
884.646	22325
884.772	22295
884.897	22074
885.023	22147
885.148	22310
885.274	22440
885.399	22287
885.524	22131
885.65	22192
885.775	22192
885.9	22181
886.025	22249
886.15	22276
886.275	22211
886.4	22192
886.525	22276
886.65	22124
886.775	22059
886.9	22257
887.025	22295
887.149	22166
887.274	22082
887.399	21979
887.523	22070
887.648	21895
887.773	21812
887.897	22112
888.021	22112
888.146	21934
888.27	22021
888.395	22010
888.519	22040
888.643	22097
888.767	22063
888.891	21975
889.015	21800
889.139	21789
889.263	21732
889.387	21994
889.511	21983
889.635	21899
889.759	21713
889.883	21755
890.006	21861
890.13	21922
890.254	21709
890.377	21816
890.501	21500
890.624	21504
890.748	21606
890.871	21466
890.995	21393
891.118	21332
891.241	21405
891.364	21363
891.488	21610
891.611	21382
891.734	21431
891.857	21340
891.98	21313
892.103	21389
892.226	21412
892.349	21218
892.471	21188
892.594	21249
892.717	21256
892.839	21180
892.962	21207
893.085	21260
893.207	21207
893.33	21279
893.452	21142
893.575	21226
893.697	21135
893.819	21401
893.941	21268
894.064	21405
894.186	21226
894.308	21192
894.43	21344
894.552	21351
894.674	21306
894.796	21169
894.918	21176
895.04	21207
895.161	21294
895.283	21374
895.405	21085
895.526	21188
895.648	21298
895.769	21119
895.891	21233
896.012	21241
896.134	21382
896.255	21252
896.376	21138
896.498	21241
896.619	21268
896.74	21104
896.861	21275
896.982	21481
897.103	21781
897.224	21466
897.345	21321
897.466	21256
897.587	21439
897.708	21545
897.828	21424
897.949	21351
898.07	21306
898.19	21386
898.311	21504
898.431	21469
898.552	21310
898.672	21488
898.792	21488
898.913	21473
899.033	21268
899.153	21291
899.273	21100
899.393	21123
899.513	21138
899.633	21184
899.753	21108
899.873	21081
899.993	21100
900.113	21058
900.232	21195
900.352	21108
900.472	20868
900.591	20845
900.711	20861
900.83	20815
900.95	20933
901.069	21013
901.189	20773
901.308	20606
901.427	20366
901.546	20476
901.665	20473
901.784	20526
901.904	20332
902.023	20256
902.141	20058
902.26	19936
902.379	20062
902.498	19989
902.617	19890
902.735	19944
902.854	19902
902.973	19875
903.091	19624
903.21	19476
903.328	19639
903.446	19491
903.565	19449
903.683	19324
903.801	19293
903.919	19392
904.038	19350
904.156	19255
904.274	19369
904.392	19114
904.51	19209
904.627	19145
904.745	19259
904.863	19198
904.981	18947
905.098	18905
905.216	18935
905.334	18966
905.451	18806
905.569	18764
905.686	18913
905.803	18711
905.921	18631
906.038	18757
906.155	18635
906.272	18403
906.389	18544
906.506	18357
906.623	18437
906.74	18376
906.857	18251
906.974	18304
907.091	18448
907.208	18448
907.324	18414
907.441	18319
907.557	18129
907.674	17954
907.79	18038
907.907	18121
908.023	18102
908.139	18045
908.256	18007
908.372	17882
908.488	17866
908.604	17817
908.72	17859
908.836	17760
908.952	17809
909.068	17813
909.184	17893
909.3	17847
909.415	17843
909.531	17707
909.647	17478
909.762	17372
909.878	17414
909.993	17486
910.108	17379
910.224	17433
910.339	17482
910.454	17280
910.57	17231
910.685	17299
910.8	17448
910.915	17429
911.03	17250
911.145	17212
911.259	17136
911.374	17037
911.489	16999
911.604	16942
911.718	16839
911.833	16869
911.947	16771
912.062	16660
912.176	16763
912.291	16869
912.405	16820
912.519	16930
912.633	16927
912.748	16839
912.862	16843
912.976	16596
913.09	16455
913.204	16641
913.318	16675
913.431	16679
913.545	16679
913.659	16698
913.772	16558
913.886	16474
914	16402
914.113	16466
914.226	16584
914.34	16466
914.453	16306
914.566	16443
914.68	16314
914.793	16219
914.906	16040
915.019	16032
915.132	15937
915.245	15953
915.358	15937
915.47	16017
915.583	15941
915.696	15998
915.809	16082
915.921	15991
916.034	15956
916.146	15857
916.259	15835
916.371	15892
916.483	15873
916.595	15766
916.708	15785
916.82	15743
916.932	15747
917.044	15819
917.156	15762
917.268	15679
917.38	15667
917.491	15633
917.603	15561
917.715	15675
917.826	15584
917.938	15450
918.049	15431
918.161	15443
918.272	15675
918.384	15625
918.495	15462
918.606	15393
918.717	15348
918.828	15298
918.939	15420
919.05	15241
919.161	15268
919.272	15104
919.383	15207
919.494	15336
919.604	15523
919.715	15237
919.826	15192
919.936	15237
920.047	15428
920.157	15245
920.267	15580
920.378	15272
920.488	15321
920.598	15435
920.708	15625
920.818	15439
920.928	15462
921.038	15553
921.148	15587
921.258	15211
921.368	15226
921.477	15070
921.587	14990
921.697	14941
921.806	15047
921.916	14864
922.025	14750
922.134	14682
922.244	14621
922.353	14655
922.462	14610
922.571	14461
922.68	14290
922.789	14202
922.898	14317
923.007	14305
923.116	14252
923.224	14263
923.333	14309
923.442	14115
923.55	14123
923.659	14161
923.767	14199
923.876	13997
923.984	14218
924.092	13993
924.201	13974
924.309	14050
924.417	14073
924.525	13909
924.633	13909
924.741	14693
924.849	13742
924.956	13898
925.064	13811
925.172	13674
925.279	13700
925.387	13666
925.494	13696
925.602	13849
925.709	13655
925.816	13655
925.924	13639
926.031	13746
926.138	13552
926.245	13677
926.352	13491
926.459	13628
926.566	13658
926.673	13487
926.779	13445
926.886	13438
926.993	13320
927.099	13232
927.206	13152
927.312	13103
927.419	13297
927.525	13225
927.631	13236
927.737	13084
927.843	13061
927.95	12954
928.056	13027
928.162	13015
928.267	13050
928.373	13552
928.479	13061
928.585	12787
928.69	12951
928.796	12947
928.901	12875
929.007	12681
929.112	12894
929.218	12802
929.323	12787
929.428	12673
929.533	12833
929.638	12585
929.743	12642
929.848	12753
929.953	12749
930.058	12616
930.163	12445
930.267	12471
930.372	12460
930.477	12327
930.581	12566
930.685	12414
930.79	12292
930.894	12346
930.998	12205
931.103	12433
931.207	12091
931.311	11965
931.415	11824
931.519	11619
931.623	11665
