Data from test_V78500241_3184.txt Node
Date: Fri Mar 25 16:03:51 CST 2022
User: usil
Spectrometer: V785-0024
Trigger mode: 0
Integration Time (sec): 4.000000E-1
Scans to average: 1
Nonlinearity correction enabled: false
Boxcar width: 0
Storing dark spectrum: false
XAxis mode: Wavelengths
Number of Pixels in Spectrum: 1024
>>>>>Begin Spectral Data<<<<<
801.071	28736
801.214	28702
801.356	28493
801.499	28516
801.641	28211
801.783	28234
801.926	28299
802.068	28310
802.211	28185
802.353	28166
802.496	28147
802.638	27778
802.78	28086
802.923	27850
803.065	27934
803.208	28029
803.35	28013
803.492	28135
803.635	28120
803.777	28257
803.919	28226
804.061	28371
804.204	28329
804.346	28230
804.488	28299
804.63	28265
804.773	28120
804.915	28470
805.057	28489
805.199	28466
805.341	28424
805.483	28421
805.626	28478
805.768	28390
805.91	28352
806.052	28401
806.194	28443
806.336	28462
806.478	28344
806.62	28375
806.762	28516
806.904	28694
807.046	28835
807.188	28839
807.33	28866
807.472	28927
807.614	28763
807.756	28953
807.898	28748
808.04	28637
808.182	28713
808.324	28805
808.465	28835
808.607	28854
808.749	29033
808.891	29109
809.033	29273
809.174	29071
809.316	29189
809.458	29124
809.6	29140
809.741	29360
809.883	29204
810.025	29330
810.166	29322
810.308	29482
810.45	29417
810.591	29375
810.733	29128
810.875	29151
811.016	29071
811.158	29048
811.299	29296
811.441	29242
811.582	29269
811.724	29064
811.865	29037
812.007	29098
812.148	29140
812.29	29166
812.431	29341
812.573	29425
812.714	29463
812.855	29562
812.997	29809
813.138	29958
813.279	29775
813.421	29600
813.562	29524
813.703	29387
813.845	29360
813.986	29018
814.127	29060
814.268	28892
814.41	28869
814.551	28869
814.692	28831
814.833	28744
814.974	28809
815.115	28919
815.256	28599
815.397	28759
815.539	28664
815.68	28577
815.821	28626
815.962	28557
816.103	28641
816.244	28675
816.385	28360
816.526	28329
816.666	28162
816.807	28093
816.948	28226
817.089	28143
817.23	28143
817.371	28135
817.512	28177
817.653	28112
817.793	28116
817.934	28196
818.075	28166
818.216	28021
818.356	28200
818.497	27991
818.638	27930
818.778	27968
818.919	27979
819.06	27979
819.2	28097
819.341	28006
819.481	28097
819.622	28440
819.762	28485
819.903	28508
820.043	28299
820.184	28325
820.324	28303
820.465	28287
820.605	28295
820.746	28154
820.886	28200
821.026	28192
821.167	28143
821.307	28386
821.447	28223
821.588	28078
821.728	28105
821.868	27770
822.008	27660
822.149	27515
822.289	27576
822.429	27393
822.569	27272
822.709	27367
822.849	27188
822.99	27138
823.13	27138
823.27	27017
823.41	27036
823.55	26823
823.69	27013
823.83	26899
823.97	26826
824.11	26918
824.25	26667
824.389	26648
824.529	26918
824.669	26807
824.809	26944
824.949	26804
825.089	26796
825.228	26906
825.368	26579
825.508	26689
825.648	26625
825.787	26845
825.927	26716
826.067	26716
826.206	26712
826.346	26655
826.485	26815
826.625	26625
826.765	26765
826.904	26788
827.044	26415
827.183	26469
827.323	26404
827.462	26621
827.601	26465
827.741	26305
827.88	26541
828.02	26336
828.159	26317
828.298	26309
828.437	26560
828.577	26278
828.716	26408
828.855	26358
828.994	26054
829.134	26138
829.273	26153
829.412	26027
829.551	25947
829.69	26039
829.829	26126
829.968	26176
830.107	26309
830.246	26035
830.385	25955
830.524	25830
830.663	25955
830.802	25727
830.941	25662
831.08	25487
831.219	25563
831.357	25704
831.496	25856
831.635	25601
831.774	25727
831.913	25540
832.051	25575
832.19	25426
832.329	25384
832.467	25407
832.606	25316
832.744	25255
832.883	25377
833.022	25388
833.16	25426
833.299	25403
833.437	25365
833.576	25438
833.714	25468
833.852	25453
833.991	25419
834.129	25609
834.267	25499
834.406	25365
834.544	25578
834.682	25499
834.821	25373
834.959	25639
835.097	25168
835.235	25476
835.373	25396
835.511	25438
835.65	25244
835.788	25278
835.926	25217
836.064	25019
836.202	25076
836.34	25190
836.478	25369
836.615	25301
836.753	25339
836.891	25316
837.029	25289
837.167	25217
837.305	25141
837.443	25065
837.58	25107
837.718	25126
837.856	25126
837.993	25069
838.131	25080
838.269	24951
838.406	24954
838.544	24970
838.681	24859
838.819	24722
838.956	24517
839.094	24585
839.231	24540
839.369	24726
839.506	24951
839.643	24833
839.781	24650
839.918	24399
840.055	24521
840.193	24525
840.33	24422
840.467	24460
840.604	24372
840.742	24817
840.879	24232
841.016	24429
841.153	24258
841.29	24589
841.427	24369
841.564	24502
841.701	24479
841.838	24357
841.975	24277
842.112	24372
842.249	24239
842.385	24224
842.522	24384
842.659	24228
842.796	24319
842.933	24194
843.069	24232
843.206	24148
843.343	24399
843.479	24277
843.616	24300
843.752	24022
843.889	24034
844.025	24121
844.162	23954
844.298	24114
844.435	23958
844.571	23927
844.708	23965
844.844	24125
844.98	24136
845.117	23973
845.253	23851
845.389	23786
845.525	23901
845.661	23756
845.798	23767
845.934	23714
846.07	23737
846.206	23699
846.342	23771
846.478	23600
846.614	23482
846.75	23318
846.886	23391
847.022	23497
847.158	23395
847.294	23467
847.429	23402
847.565	23364
847.701	23714
847.837	23227
847.972	23155
848.108	23208
848.244	23265
848.379	23060
848.515	23003
848.65	23155
848.786	23029
848.921	23056
849.057	23071
849.192	22995
849.328	23124
849.463	22908
849.598	22991
849.734	22866
849.869	22946
850.004	22824
850.14	22698
850.275	22763
850.41	22797
850.545	22694
850.68	22801
850.815	22812
850.95	22660
851.085	22869
851.22	22881
851.355	22793
851.49	22736
851.625	22778
851.76	22824
851.895	22653
852.03	22740
852.165	22748
852.299	22896
852.434	22763
852.569	22767
852.703	22793
852.838	22809
852.973	22896
853.107	22873
853.242	22759
853.376	22675
853.511	22428
853.645	22512
853.78	22759
853.914	22645
854.048	22489
854.183	22622
854.317	22797
854.451	22828
854.585	22546
854.72	22668
854.854	22668
854.988	22538
855.122	22626
855.256	22451
855.39	22637
855.524	22713
855.658	22645
855.792	22561
855.926	22561
856.06	22580
856.194	22538
856.327	22523
856.461	22527
856.595	22485
856.729	22546
856.862	22721
856.996	22630
857.13	22493
857.263	22637
857.397	22641
857.53	22527
857.664	22611
857.797	22599
857.931	22717
858.064	22554
858.197	22672
858.331	22538
858.464	22592
858.597	22405
858.731	22527
858.864	22531
858.997	22413
859.13	22569
859.263	22607
859.396	22634
859.529	22622
859.662	22649
859.795	22512
859.928	22542
860.061	22637
860.194	22820
860.327	22557
860.46	22603
860.592	22816
860.725	22733
860.858	22683
860.99	22664
861.123	22535
861.256	22618
861.388	22592
861.521	23349
861.653	22428
861.786	22325
861.918	22352
862.05	22481
862.183	22493
862.315	22592
862.447	22538
862.58	22523
862.712	22360
862.844	22253
862.976	22371
863.108	22356
863.24	22694
863.372	22230
863.504	22409
863.636	22268
863.768	22352
863.9	22371
864.032	22238
864.164	22150
864.296	22314
864.428	22557
864.559	22443
864.691	22386
864.823	22337
864.954	22246
865.086	22162
865.217	22341
865.349	22177
865.48	22036
865.612	22322
865.743	22280
865.875	22158
866.006	22173
866.137	22280
866.269	22150
866.4	22166
866.531	22109
866.662	22051
866.793	22029
866.924	22124
867.055	22223
867.186	22158
867.317	22105
867.448	22070
867.579	22253
867.71	21968
867.841	21983
867.972	22162
868.103	22097
868.233	22169
868.364	22131
868.495	22226
868.625	22204
868.756	22421
868.886	22150
869.017	22333
869.147	22386
869.278	22557
869.408	22432
869.539	22238
869.669	22535
869.799	22325
869.929	22554
870.06	22459
870.19	22497
870.32	22702
870.45	22733
870.58	22831
870.71	22854
870.84	22839
870.97	22664
871.1	22687
871.23	22919
871.36	22839
871.489	22896
871.619	22904
871.749	22889
871.879	23102
872.008	23166
872.138	22740
872.267	23041
872.397	22816
872.526	22744
872.656	22831
872.785	22748
872.915	22957
873.044	23079
873.173	22946
873.303	22965
873.432	23067
873.561	23147
873.69	22980
873.819	22923
873.948	23136
874.077	23006
874.206	22919
874.335	23022
874.464	22995
874.593	23109
874.722	23239
874.851	23235
874.979	23250
875.108	23379
875.237	23132
875.365	23067
875.494	23109
875.623	23181
875.751	23239
875.88	23189
876.008	23326
876.136	23452
876.265	23596
876.393	23699
876.521	23611
876.65	23630
876.778	23630
876.906	23551
877.034	23509
877.162	23444
877.29	23486
877.418	23448
877.546	23551
877.674	23505
877.802	23467
877.93	23490
878.058	23345
878.185	23368
878.313	23410
878.441	23341
878.568	23452
878.696	23391
878.824	23589
878.951	23596
879.079	23668
879.206	23783
879.333	23638
879.461	23604
879.588	23623
879.715	23718
879.842	23893
879.97	23455
880.097	23406
880.224	23379
880.351	23280
880.478	23231
880.605	23341
880.732	23296
880.859	23592
880.986	23356
881.112	23376
881.239	23170
881.366	23018
881.493	22904
881.619	22976
881.746	22980
881.872	22889
881.999	22816
882.125	22790
882.252	22881
882.378	22771
882.505	22847
882.631	22748
882.757	22588
882.883	22698
883.01	22641
883.136	22599
883.262	22440
883.388	22402
883.514	22626
883.64	22611
883.766	22451
883.892	22329
884.018	22333
884.143	22573
884.269	22542
884.395	22234
884.52	22116
884.646	22181
884.772	22105
884.897	22238
885.023	22128
885.148	22238
885.274	22329
885.399	22284
885.524	22147
885.65	22318
885.775	22200
885.9	22109
886.025	22325
886.15	22272
886.275	22051
886.4	22143
886.525	22112
886.65	22196
886.775	22131
886.9	22337
887.025	22478
887.149	22143
887.274	22128
887.399	21994
887.523	22025
887.648	21876
887.773	21846
887.897	21994
888.021	22006
888.146	21854
888.27	22070
888.395	22063
888.519	22040
888.643	21956
888.767	21953
888.891	21850
889.015	21816
889.139	21907
889.263	21838
889.387	21979
889.511	21964
889.635	21804
889.759	21599
889.883	21656
890.006	21739
890.13	21827
890.254	21679
890.377	21774
890.501	21530
890.624	21401
890.748	21564
890.871	21374
890.995	21241
891.118	21329
891.241	21180
891.364	21249
891.488	21405
891.611	21428
891.734	21348
891.857	21367
891.98	21291
892.103	21291
892.226	21367
892.349	21249
892.471	21104
892.594	21268
892.717	21146
892.839	21112
892.962	21245
893.085	21287
893.207	21142
893.33	21119
893.452	21169
893.575	21226
893.697	21074
893.819	21332
893.941	21336
894.064	21382
894.186	21218
894.308	21165
894.43	21310
894.552	21176
894.674	21184
894.796	21116
894.918	21123
895.04	21043
895.161	21283
895.283	21096
895.405	21104
895.526	21116
895.648	21157
895.769	21055
895.891	21089
896.012	21336
896.134	21203
896.255	21233
896.376	21108
896.498	21074
896.619	21268
896.74	21169
896.861	21252
896.982	21431
897.103	21644
897.224	21408
897.345	21306
897.466	21325
897.587	21306
897.708	21526
897.828	21428
897.949	21211
898.07	21070
898.19	21294
898.311	21355
898.431	21317
898.552	21340
898.672	21450
898.792	21378
898.913	21355
899.033	21275
899.153	21203
899.273	20979
899.393	21123
899.513	21169
899.633	21161
899.753	21138
899.873	20994
899.993	21039
900.113	20941
900.232	21043
900.352	21070
900.472	20925
900.591	20948
900.711	20834
900.83	20861
900.95	21024
901.069	20895
901.189	20659
901.308	20454
901.427	20324
901.546	20507
901.665	20412
901.784	20366
901.904	20259
902.023	20259
902.141	19921
902.26	19932
902.379	19997
902.498	19894
902.617	19864
902.735	19830
902.854	19951
902.973	19795
903.091	19609
903.21	19563
903.328	19624
903.446	19578
903.565	19403
903.683	19426
903.801	19362
903.919	19293
904.038	19346
904.156	19038
904.274	19282
904.392	19225
904.51	19171
904.627	18989
904.745	19080
904.863	19148
904.981	18916
905.098	18798
905.216	18856
905.334	18878
905.451	18916
905.569	18829
905.686	18856
905.803	18730
905.921	18578
906.038	18700
906.155	18760
906.272	18494
906.389	18448
906.506	18460
906.623	18388
906.74	18270
906.857	18159
906.974	18273
907.091	18410
907.208	18391
907.324	18433
907.441	18178
907.557	18053
907.674	17965
907.79	17984
907.907	17977
908.023	18117
908.139	17992
908.256	17999
908.372	17935
908.488	17908
908.604	17813
908.72	17748
908.836	17817
908.952	17775
909.068	17764
909.184	17904
909.3	17699
909.415	17809
909.531	17775
909.647	17471
909.762	17505
909.878	17577
909.993	17459
910.108	17455
910.224	17402
910.339	17364
910.454	17288
910.57	17322
910.685	17261
910.8	17463
910.915	17433
911.03	17261
911.145	17029
911.259	17083
911.374	17117
911.489	16965
911.604	16896
911.718	16771
911.833	16816
911.947	16694
912.062	16637
912.176	16713
912.291	16797
912.405	16805
912.519	16889
912.633	16953
912.748	16812
912.862	16782
912.976	16584
913.09	16584
913.204	16550
913.318	16538
913.431	16702
913.545	16786
913.659	16653
913.772	16519
913.886	16500
914	16291
914.113	16424
914.226	16455
914.34	16322
914.453	16280
914.566	16398
914.68	16318
914.793	16249
914.906	16090
915.019	16006
915.132	15861
915.245	15930
915.358	16006
915.47	15945
915.583	16010
915.696	16048
915.809	16090
915.921	16166
916.034	15930
916.146	15888
916.259	15819
916.371	15808
916.483	15922
916.595	15770
916.708	15770
916.82	15831
916.932	15759
917.044	15732
917.156	15774
917.268	15603
917.38	15679
917.491	15515
917.603	15584
917.715	15778
917.826	15656
917.938	15557
918.049	15538
918.161	15488
918.272	15587
918.384	15553
918.495	15553
918.606	15340
918.717	15176
918.828	15283
918.939	15359
919.05	15329
919.161	15294
919.272	15081
919.383	15188
919.494	15397
919.604	15515
919.715	15310
919.826	15146
919.936	15283
920.047	15275
920.157	15355
920.267	15462
920.378	15313
920.488	15233
920.598	15397
920.708	15591
920.818	15466
920.928	15325
921.038	15477
921.148	15496
921.258	15245
921.368	15207
921.477	15051
921.587	14933
921.697	14773
921.806	14979
921.916	14902
922.025	14667
922.134	14571
922.244	14480
922.353	14689
922.462	14469
922.571	14473
922.68	14343
922.789	14275
922.898	14309
923.007	14286
923.116	14263
923.224	14301
923.333	14202
923.442	14263
923.55	14069
923.659	14161
923.767	14176
923.876	14005
923.984	14088
924.092	13921
924.201	14035
924.309	13970
924.417	14020
924.525	13868
924.633	13906
924.741	14651
924.849	13795
924.956	13875
925.064	13643
925.172	13575
925.279	13628
925.387	13681
925.494	13628
925.602	13795
925.709	13708
925.816	13510
925.924	13609
926.031	13693
926.138	13548
926.245	13594
926.352	13521
926.459	13731
926.566	13696
926.673	13472
926.779	13377
926.886	13304
926.993	13282
927.099	13187
927.206	13149
927.312	13019
927.419	13297
927.525	13171
927.631	13247
927.737	13084
927.843	13069
927.95	12875
928.056	12916
928.162	13095
928.267	13027
928.373	13586
928.479	13053
928.585	12779
928.69	12993
928.796	13004
928.901	12817
929.007	12783
929.112	12757
929.218	12814
929.323	12696
929.428	12711
929.533	12837
929.638	12677
929.743	12639
929.848	12627
929.953	12604
930.058	12528
930.163	12426
930.267	12369
930.372	12642
930.477	12277
930.581	12593
930.685	12486
930.79	12155
930.894	12243
930.998	12216
931.103	12327
931.207	12117
931.311	11912
931.415	11824
931.519	11634
931.623	11619
