Data from test_V78500241_1506.txt Node
Date: Fri Mar 25 15:52:14 CST 2022
User: usil
Spectrometer: V785-0024
Trigger mode: 0
Integration Time (sec): 4.000000E-1
Scans to average: 1
Nonlinearity correction enabled: false
Boxcar width: 0
Storing dark spectrum: false
XAxis mode: Wavelengths
Number of Pixels in Spectrum: 1024
>>>>>Begin Spectral Data<<<<<
801.071	28040
801.214	27983
801.356	27884
801.499	27728
801.641	27652
801.783	27629
801.926	27717
802.068	27679
802.211	27610
802.353	27488
802.496	27230
802.638	27294
802.78	27256
802.923	27154
803.065	27310
803.208	27150
803.35	27389
803.492	27469
803.635	27458
803.777	27370
803.919	27469
804.061	27823
804.204	27606
804.346	27492
804.488	27363
804.63	27397
804.773	27443
804.915	27393
805.057	27671
805.199	27412
805.341	27629
805.483	27603
805.626	27622
805.768	27500
805.91	27618
806.052	27648
806.194	27637
806.336	27808
806.478	27732
806.62	27732
806.762	27728
806.904	27903
807.046	28070
807.188	28143
807.33	28090
807.472	28344
807.614	28051
807.756	28139
807.898	28025
808.04	27880
808.182	28002
808.324	27899
808.465	28097
808.607	28257
808.749	28344
808.891	28440
809.033	28512
809.174	28363
809.316	28215
809.458	28185
809.6	28371
809.741	28394
809.883	28462
810.025	28622
810.166	28500
810.308	28489
810.45	28470
810.591	28546
810.733	28333
810.875	28508
811.016	28166
811.158	28204
811.299	28314
811.441	28390
811.582	28405
811.724	28253
811.865	28238
812.007	28124
812.148	28196
812.29	28135
812.431	28478
812.573	28611
812.714	28660
812.855	28771
812.997	28850
813.138	29098
813.279	28839
813.421	28786
813.562	28694
813.703	28710
813.845	28455
813.986	28207
814.127	28097
814.268	28032
814.41	28097
814.551	27998
814.692	27968
814.833	27987
814.974	27930
815.115	27998
815.256	27880
815.397	27998
815.539	27808
815.68	27743
815.821	27865
815.962	27736
816.103	27766
816.244	27637
816.385	27515
816.526	27496
816.666	27332
816.807	27348
816.948	27252
817.089	27367
817.23	27310
817.371	27131
817.512	27226
817.653	27306
817.793	27123
817.934	27332
818.075	27218
818.216	27275
818.356	27256
818.497	27100
818.638	26979
818.778	27066
818.919	27039
819.06	27009
819.2	27112
819.341	27108
819.481	27233
819.622	27496
819.762	27591
819.903	27538
820.043	27401
820.184	27424
820.324	27313
820.465	27336
820.605	27477
820.746	27256
820.886	27112
821.026	27401
821.167	27222
821.307	27450
821.447	27321
821.588	27188
821.728	27146
821.868	26921
822.008	26762
822.149	26792
822.289	26785
822.429	26526
822.569	26385
822.709	26415
822.849	26336
822.99	26221
823.13	26320
823.27	26202
823.41	26031
823.55	25959
823.69	26065
823.83	26115
823.97	25982
824.11	26012
824.25	25803
824.389	25860
824.529	25982
824.669	25989
824.809	26016
824.949	26039
825.089	26008
825.228	26008
825.368	25727
825.508	25761
825.648	25776
825.787	25784
825.927	25837
826.067	25791
826.206	25780
826.346	25742
826.485	25807
826.625	25761
826.765	25780
826.904	25761
827.044	25476
827.183	25609
827.323	25384
827.462	25594
827.601	25525
827.741	25312
827.88	25632
828.02	25499
828.159	25514
828.298	25495
828.437	25578
828.577	25563
828.716	25624
828.855	25331
828.994	25236
829.134	25148
829.273	25270
829.412	25164
829.551	25137
829.69	25202
829.829	25198
829.968	25316
830.107	25232
830.246	25122
830.385	25164
830.524	25202
830.663	24863
830.802	24787
830.941	24814
831.08	24825
831.219	24878
831.357	24787
831.496	24886
831.635	24681
831.774	24772
831.913	24642
832.051	24692
832.19	24654
832.329	24551
832.467	24422
832.606	24365
832.744	24460
832.883	24525
833.022	24384
833.16	24502
833.299	24509
833.437	24502
833.576	24536
833.714	24604
833.852	24532
833.991	24395
834.129	24608
834.267	24582
834.406	24490
834.544	24639
834.682	24597
834.821	24429
834.959	24551
835.097	24403
835.235	24441
835.373	24574
835.511	24475
835.65	24429
835.788	24369
835.926	24330
836.064	24190
836.202	24144
836.34	24403
836.478	24528
836.615	24136
836.753	24380
836.891	24441
837.029	24357
837.167	24239
837.305	24334
837.443	24148
837.58	24235
837.718	24194
837.856	24266
837.993	24117
838.131	24129
838.269	24247
838.406	24057
838.544	24003
838.681	23707
838.819	23916
838.956	23756
839.094	23741
839.231	23581
839.369	23771
839.506	23889
839.643	23901
839.781	23627
839.918	23585
840.055	23687
840.193	23756
840.33	23752
840.467	23653
840.604	23589
840.742	23767
840.879	23444
841.016	23528
841.153	23630
841.29	23699
841.427	23539
841.564	23630
841.701	23676
841.838	23695
841.975	23474
842.112	23512
842.249	23486
842.385	23303
842.522	23535
842.659	23402
842.796	23330
842.933	23296
843.069	23208
843.206	23284
843.343	23421
843.479	23410
843.616	23307
843.752	23140
843.889	23071
844.025	23280
844.162	23132
844.298	23170
844.435	23155
844.571	23162
844.708	23109
844.844	23250
844.98	23280
845.117	23132
845.253	23121
845.389	23075
845.525	23090
845.661	23025
845.798	22843
845.934	22873
846.07	22744
846.206	22984
846.342	22957
846.478	22733
846.614	22668
846.75	22596
846.886	22554
847.022	22687
847.158	22634
847.294	22702
847.429	22725
847.565	22462
847.701	22755
847.837	22261
847.972	22246
848.108	22489
848.244	22443
848.379	22238
848.515	22147
848.65	22196
848.786	22219
848.921	22169
849.057	22287
849.192	22253
849.328	22173
849.463	22124
849.598	22135
849.734	22006
849.869	22082
850.004	21922
850.14	22074
850.275	21895
850.41	21842
850.545	21892
850.68	21892
850.815	21994
850.95	21884
851.085	22048
851.22	22067
851.355	21991
851.49	21937
851.625	21937
851.76	21876
851.895	21823
852.03	21759
852.165	21937
852.299	22063
852.434	22063
852.569	22010
852.703	21857
852.838	22055
852.973	22090
853.107	22135
853.242	21842
853.376	21656
853.511	21580
853.645	21732
853.78	21812
853.914	21781
854.048	21789
854.183	21759
854.317	21880
854.451	21968
854.585	21751
854.72	21671
854.854	21759
854.988	21682
855.122	21804
855.256	21538
855.39	21755
855.524	21793
855.658	21842
855.792	21838
855.926	21770
856.06	21717
856.194	21873
856.327	21854
856.461	21736
856.595	21576
856.729	21747
856.862	21869
856.996	21736
857.13	21778
857.263	22013
857.397	21911
857.53	21770
857.664	21698
857.797	21846
857.931	21701
858.064	21869
858.197	21762
858.331	21903
858.464	21998
858.597	21671
858.731	21686
858.864	21797
858.997	21724
859.13	21732
859.263	21747
859.396	21842
859.529	21732
859.662	21660
859.795	21644
859.928	21819
860.061	21907
860.194	22002
860.327	21835
860.46	21857
860.592	21880
860.725	21941
860.858	21884
860.99	21728
861.123	21789
861.256	21781
861.388	21732
861.521	22314
861.653	21614
861.786	21492
861.918	21629
862.05	21488
862.183	21667
862.315	21690
862.447	21789
862.58	21736
862.712	21496
862.844	21382
862.976	21629
863.108	21534
863.24	21998
863.372	21511
863.504	21580
863.636	21443
863.768	21523
863.9	21591
864.032	21439
864.164	21458
864.296	21485
864.428	21606
864.559	21466
864.691	21709
864.823	21401
864.954	21496
865.086	21435
865.217	21454
865.349	21363
865.48	21397
865.612	21287
865.743	21496
865.875	21454
866.006	21401
866.137	21431
866.269	21458
866.4	21154
866.531	21260
866.662	21367
866.793	21287
866.924	21310
867.055	21378
867.186	21389
867.317	21222
867.448	21150
867.579	21275
867.71	21283
867.841	21233
867.972	21252
868.103	21336
868.233	21226
868.364	21329
868.495	21401
868.625	21549
868.756	21572
868.886	21526
869.017	21519
869.147	21682
869.278	21690
869.408	21504
869.539	21450
869.669	21606
869.799	21549
869.929	21770
870.06	21625
870.19	21762
870.32	21816
870.45	21915
870.58	21941
870.71	21998
870.84	21960
870.97	21895
871.1	21934
871.23	21945
871.36	22128
871.489	22147
871.619	22109
871.749	22207
871.879	22044
872.008	22230
872.138	22109
872.267	22257
872.397	21937
872.526	21991
872.656	21998
872.785	22067
872.915	22162
873.044	22169
873.173	22223
873.303	22059
873.432	22150
873.561	22226
873.69	22109
873.819	22124
873.948	22196
874.077	22169
874.206	22128
874.335	22276
874.464	22379
874.593	22390
874.722	22424
874.851	22489
874.979	22447
875.108	22382
875.237	22424
875.365	22299
875.494	22333
875.623	22432
875.751	22398
875.88	22402
876.008	22462
876.136	22546
876.265	22744
876.393	22889
876.521	22771
876.65	22736
876.778	22801
876.906	22767
877.034	22698
877.162	22729
877.29	22694
877.418	22702
877.546	22698
877.674	22774
877.802	22744
877.93	22607
878.058	22607
878.185	22519
878.313	22573
878.441	22812
878.568	22577
878.696	22691
878.824	22694
878.951	22843
879.079	22869
879.206	22946
879.333	22805
879.461	22778
879.588	22847
879.715	22908
879.842	23075
879.97	22889
880.097	22428
880.224	22596
880.351	22569
880.478	22440
880.605	22504
880.732	22527
880.859	22908
880.986	22565
881.112	22565
881.239	22382
881.366	22253
881.493	22181
881.619	22063
881.746	22257
881.872	22097
881.999	22120
882.125	22063
882.252	22173
882.378	22029
882.505	22246
882.631	21907
882.757	21968
882.883	21846
883.01	21812
883.136	21743
883.262	21660
883.388	21629
883.514	21732
883.64	21812
883.766	21694
883.892	21633
884.018	21606
884.143	21739
884.269	21759
884.395	21496
884.52	21469
884.646	21454
884.772	21355
884.897	21252
885.023	21401
885.148	21538
885.274	21500
885.399	21572
885.524	21485
885.65	21435
885.775	21538
885.9	21447
886.025	21454
886.15	21431
886.275	21424
886.4	21370
886.525	21389
886.65	21351
886.775	21431
886.9	21526
887.025	21637
887.149	21447
887.274	21195
887.399	21169
887.523	21184
887.648	21218
887.773	21157
887.897	21256
888.021	21252
888.146	21108
888.27	21241
888.395	21291
888.519	21241
888.643	21214
888.767	21157
888.891	21100
889.015	21009
889.139	21039
889.263	20929
889.387	20967
889.511	21195
889.635	21146
889.759	20979
889.883	21020
890.006	21039
890.13	21058
890.254	20853
890.377	20899
890.501	20727
890.624	20769
890.748	20712
890.871	20659
890.995	20507
891.118	20568
891.241	20419
891.364	20571
891.488	20750
891.611	20609
891.734	20560
891.857	20484
891.98	20609
892.103	20594
892.226	20545
892.349	20511
892.471	20385
892.594	20457
892.717	20503
892.839	20446
892.962	20526
893.085	20511
893.207	20381
893.33	20431
893.452	20393
893.575	20583
893.697	20408
893.819	20537
893.941	20625
894.064	20549
894.186	20385
894.308	20286
894.43	20495
894.552	20625
894.674	20606
894.796	20336
894.918	20343
895.04	20545
895.161	20579
895.283	20434
895.405	20450
895.526	20442
895.648	20370
895.769	20564
895.891	20446
896.012	20511
896.134	20442
896.255	20431
896.376	20374
896.498	20457
896.619	20461
896.74	20499
896.861	20469
896.982	20765
897.103	20914
897.224	20743
897.345	20636
897.466	20587
897.587	20636
897.708	20724
897.828	20667
897.949	20727
898.07	20560
898.19	20564
898.311	20804
898.431	20518
898.552	20583
898.672	20670
898.792	20667
898.913	20735
899.033	20549
899.153	20488
899.273	20332
899.393	20358
899.513	20412
899.633	20404
899.753	20545
899.873	20358
899.993	20423
900.113	20374
900.232	20358
900.352	20343
900.472	20145
900.591	20237
900.711	20221
900.83	20164
900.95	20183
901.069	20195
901.189	20012
901.308	19868
901.427	19704
901.546	19696
901.665	19788
901.784	19647
901.904	19689
902.023	19590
902.141	19293
902.26	19324
902.379	19293
902.498	19236
902.617	19259
902.735	19350
902.854	19324
902.973	19053
903.091	19072
903.21	18993
903.328	18859
903.446	18768
903.565	18760
903.683	18833
903.801	18627
903.919	18681
904.038	18661
904.156	18551
904.274	18563
904.392	18399
904.51	18471
904.627	18509
904.745	18506
904.863	18563
904.981	18361
905.098	18194
905.216	18178
905.334	18178
905.451	18091
905.569	18133
905.686	18289
905.803	18167
905.921	17828
906.038	18041
906.155	17961
906.272	17821
906.389	17863
906.506	17703
906.623	17646
906.74	17718
906.857	17600
906.974	17741
907.091	17741
907.208	17832
907.324	17668
907.441	17668
907.557	17417
907.674	17421
907.79	17273
907.907	17402
908.023	17341
908.139	17429
908.256	17261
908.372	17079
908.488	17292
908.604	17204
908.72	17079
908.836	17197
908.952	17200
909.068	17094
909.184	17159
909.3	17086
909.415	17208
909.531	17128
909.647	16949
909.762	16801
909.878	16854
909.993	16854
910.108	16850
910.224	16790
910.339	16774
910.454	16622
910.57	16634
910.685	16607
910.8	16854
910.915	16820
911.03	16653
911.145	16443
911.259	16443
911.374	16356
911.489	16295
911.604	16226
911.718	16135
911.833	16188
911.947	16139
912.062	16017
912.176	16154
912.291	16207
912.405	16238
912.519	16325
912.633	16276
912.748	16177
912.862	16150
912.976	15987
913.09	15838
913.204	15861
913.318	15998
913.431	16067
913.545	16078
913.659	16063
913.772	15953
913.886	15797
914	15739
914.113	15816
914.226	15842
914.34	15876
914.453	15629
914.566	15861
914.68	15667
914.793	15648
914.906	15439
915.019	15348
915.132	15329
915.245	15397
915.358	15431
915.47	15340
915.583	15378
915.696	15428
915.809	15477
915.921	15564
916.034	15355
916.146	15336
916.259	15249
916.371	15332
916.483	15367
916.595	15173
916.708	15302
916.82	15237
916.932	15123
917.044	15241
917.156	15138
917.268	15077
917.38	15089
917.491	14952
917.603	14971
917.715	15169
917.826	15047
917.938	14956
918.049	14838
918.161	15013
918.272	15051
918.384	15032
918.495	15020
918.606	14883
918.717	14617
918.828	14819
918.939	14819
919.05	14655
919.161	14670
919.272	14587
919.383	14777
919.494	14857
919.604	14994
919.715	14781
919.826	14655
919.936	14708
920.047	14796
920.157	14746
920.267	14853
920.378	14788
920.488	14655
920.598	14925
920.708	15043
920.818	14819
920.928	14933
921.038	14971
921.148	15062
921.258	14648
921.368	14644
921.477	14488
921.587	14438
921.697	14339
921.806	14400
921.916	14336
922.025	14183
922.134	14134
922.244	14123
922.353	14145
922.462	14016
922.571	13921
922.68	13734
922.789	13727
922.898	13731
923.007	13712
923.116	13750
923.224	13662
923.333	13708
923.442	13556
923.55	13582
923.659	13727
923.767	13658
923.876	13438
923.984	13575
924.092	13480
924.201	13506
924.309	13426
924.417	13426
924.525	13346
924.633	13449
924.741	14358
924.849	13194
924.956	13324
925.064	13156
925.172	13194
925.279	13190
925.387	13175
925.494	13076
925.602	13221
925.709	13145
925.816	13015
925.924	13145
926.031	13133
926.138	13145
926.245	13209
926.352	13091
926.459	13015
926.566	13091
926.673	12996
926.779	12928
926.886	12837
926.993	12726
927.099	12703
927.206	12620
927.312	12646
927.419	12722
927.525	12639
927.631	12738
927.737	12646
927.843	12498
927.95	12426
928.056	12578
928.162	12555
928.267	12601
928.373	13198
928.479	12635
928.585	12418
928.69	12509
928.796	12517
928.901	12403
929.007	12224
929.112	12399
929.218	12273
929.323	12308
929.428	12281
929.533	12292
929.638	12235
929.743	12266
929.848	12220
929.953	12220
930.058	12087
930.163	11950
930.267	11874
930.372	12045
930.477	11931
930.581	12083
930.685	12038
930.79	11843
930.894	11828
930.998	11760
931.103	11931
931.207	11535
931.311	11455
931.415	11509
931.519	11242
931.623	11197
