Data from test_V78500241_2844.txt Node
Date: Fri Mar 25 16:01:30 CST 2022
User: usil
Spectrometer: V785-0024
Trigger mode: 0
Integration Time (sec): 4.000000E-1
Scans to average: 1
Nonlinearity correction enabled: false
Boxcar width: 0
Storing dark spectrum: false
XAxis mode: Wavelengths
Number of Pixels in Spectrum: 1024
>>>>>Begin Spectral Data<<<<<
801.071	29223
801.214	29197
801.356	28953
801.499	28873
801.641	28755
801.783	28698
801.926	28885
802.068	28862
802.211	28866
802.353	28664
802.496	28398
802.638	28527
802.78	28512
802.923	28367
803.065	28424
803.208	28550
803.35	28527
803.492	28683
803.635	28725
803.777	28630
803.919	28710
804.061	29109
804.204	28782
804.346	28618
804.488	28675
804.63	28744
804.773	28664
804.915	28862
805.057	28816
805.199	28801
805.341	28820
805.483	28942
805.626	28927
805.768	28881
805.91	28881
806.052	28919
806.194	28957
806.336	29071
806.478	28869
806.62	29014
806.762	29117
806.904	29208
807.046	29535
807.188	29455
807.33	29433
807.472	29539
807.614	29379
807.756	29414
807.898	29246
808.04	29239
808.182	29185
808.324	29185
808.465	29364
808.607	29326
808.749	29535
808.891	29608
809.033	29756
809.174	29745
809.316	29687
809.458	29566
809.6	29672
809.741	29745
809.883	29885
810.025	29904
810.166	29988
810.308	29885
810.45	29893
810.591	29680
810.733	29722
810.875	29710
811.016	29600
811.158	29619
811.299	29832
811.441	29851
811.582	29745
811.724	29577
811.865	29718
812.007	29737
812.148	29623
812.29	29779
812.431	29901
812.573	29969
812.714	29969
812.855	30049
812.997	30254
813.138	30441
813.279	30300
813.421	30155
813.562	30148
813.703	29984
813.845	29950
813.986	29657
814.127	29436
814.268	29356
814.41	29425
814.551	29421
814.692	29516
814.833	29345
814.974	29337
815.115	29356
815.256	29318
815.397	29273
815.539	29212
815.68	29178
815.821	29220
815.962	29174
816.103	29292
816.244	29014
816.385	29086
816.526	28881
816.666	28854
816.807	28683
816.948	28896
817.089	28767
817.23	28786
817.371	28763
817.512	28668
817.653	28774
817.793	28660
817.934	28828
818.075	28565
818.216	28630
818.356	28873
818.497	28611
818.638	28371
818.778	28596
818.919	28470
819.06	28523
819.2	28500
819.341	28755
819.481	28828
819.622	28930
819.762	29204
819.903	29044
820.043	29025
820.184	28965
820.324	28835
820.465	28904
820.605	28869
820.746	28752
820.886	28736
821.026	28850
821.167	28934
821.307	28824
821.447	28835
821.588	28752
821.728	28447
821.868	28325
822.008	28295
822.149	28200
822.289	28200
822.429	27937
822.569	27846
822.709	27873
822.849	27732
822.99	27762
823.13	27800
823.27	27736
823.41	27492
823.55	27477
823.69	27534
823.83	27614
823.97	27435
824.11	27359
824.25	27230
824.389	27439
824.529	27511
824.669	27462
824.809	27526
824.949	27427
825.089	27431
825.228	27317
825.368	27237
825.508	27275
825.648	27348
825.787	27317
825.927	27176
826.067	27310
826.206	27313
826.346	27283
826.485	27138
826.625	27294
826.765	27317
826.904	27340
827.044	26948
827.183	26960
827.323	27043
827.462	27047
827.601	27116
827.741	26845
827.88	26982
828.02	26906
828.159	26887
828.298	26940
828.437	27074
828.577	27036
828.716	27024
828.855	26899
828.994	26648
829.134	26682
829.273	26800
829.412	26545
829.551	26526
829.69	26598
829.829	26667
829.968	26758
830.107	26823
830.246	26678
830.385	26629
830.524	26648
830.663	26408
830.802	26377
830.941	26256
831.08	26267
831.219	26122
831.357	26446
831.496	26476
831.635	26263
831.774	26244
831.913	26206
832.051	26115
832.19	26027
832.329	26027
832.467	26062
832.606	25898
832.744	25928
832.883	25887
833.022	25818
833.16	25959
833.299	26005
833.437	25932
833.576	26054
833.714	26027
833.852	26073
833.991	26046
834.129	26142
834.267	26103
834.406	26130
834.544	25997
834.682	26043
834.821	26039
834.959	26157
835.097	25807
835.235	25955
835.373	25951
835.511	25940
835.65	25982
835.788	25807
835.926	25734
836.064	25605
836.202	25738
836.34	25830
836.478	25875
836.615	25784
836.753	25833
836.891	25814
837.029	25849
837.167	25746
837.305	25681
837.443	25647
837.58	25731
837.718	25769
837.856	25708
837.993	25502
838.131	25708
838.269	25559
838.406	25658
838.544	25400
838.681	25297
838.819	25285
838.956	25057
839.094	25164
839.231	25148
839.369	25343
839.506	25476
839.643	25354
839.781	25099
839.918	25000
840.055	25072
840.193	24992
840.33	25012
840.467	25000
840.604	25129
840.742	25236
840.879	24875
841.016	24947
841.153	24932
841.29	25126
841.427	24875
841.564	25004
841.701	25103
841.838	24783
841.975	25019
842.112	25084
842.249	24973
842.385	24821
842.522	24920
842.659	24867
842.796	24719
842.933	24658
843.069	24726
843.206	24673
843.343	24787
843.479	24681
843.616	24639
843.752	24517
843.889	24464
844.025	24658
844.162	24540
844.298	24604
844.435	24505
844.571	24570
844.708	24536
844.844	24661
844.98	24578
845.117	24536
845.253	24422
845.389	24338
845.525	24350
845.661	24433
845.798	24239
845.934	24380
846.07	24216
846.206	24308
846.342	24357
846.478	24239
846.614	24144
846.75	23958
846.886	24072
847.022	24022
847.158	24015
847.294	23847
847.429	23977
847.565	23931
847.701	24114
847.837	23676
847.972	23646
848.108	23726
848.244	23790
848.379	23604
848.515	23558
848.65	23535
848.786	23608
848.921	23585
849.057	23771
849.192	23562
849.328	23707
849.463	23566
849.598	23562
849.734	23425
849.869	23391
850.004	23474
850.14	23273
850.275	23334
850.41	23231
850.545	23299
850.68	23277
850.815	23265
850.95	23402
851.085	23425
851.22	23436
851.355	23368
851.49	23303
851.625	23162
851.76	23345
851.895	23322
852.03	23326
852.165	23334
852.299	23429
852.434	23452
852.569	23482
852.703	23349
852.838	23303
852.973	23471
853.107	23398
853.242	23307
853.376	23277
853.511	23048
853.645	23113
853.78	23216
853.914	23147
854.048	23162
854.183	23197
854.317	23246
854.451	23391
854.585	23147
854.72	23200
854.854	23292
854.988	23064
855.122	22965
855.256	22957
855.39	23113
855.524	23071
855.658	23299
855.792	23193
855.926	23220
856.06	23193
856.194	23303
856.327	23109
856.461	23006
856.595	23090
856.729	23155
856.862	23261
856.996	23170
857.13	23216
857.263	23189
857.397	23235
857.53	23075
857.664	23166
857.797	23349
857.931	23197
858.064	23181
858.197	23216
858.331	23140
858.464	23117
858.597	23079
858.731	23117
858.864	23235
858.997	22999
859.13	23193
859.263	23128
859.396	23079
859.529	23159
859.662	23056
859.795	23105
859.928	23117
860.061	23376
860.194	23345
860.327	23204
860.46	23079
860.592	23284
860.725	23349
860.858	23185
860.99	23044
861.123	23086
861.256	23140
861.388	23216
861.521	23802
861.653	22972
861.786	22972
861.918	23006
862.05	23060
862.183	23151
862.315	23064
862.447	23090
862.58	23102
862.712	22904
862.844	22850
862.976	22869
863.108	22831
863.24	23288
863.372	22759
863.504	22809
863.636	22774
863.768	22965
863.9	22759
864.032	22767
864.164	22782
864.296	22828
864.428	22908
864.559	23010
864.691	22972
864.823	22805
864.954	22755
865.086	22736
865.217	22649
865.349	22668
865.48	22740
865.612	22736
865.743	22877
865.875	22653
866.006	22763
866.137	22752
866.269	22805
866.4	22755
866.531	22675
866.662	22580
866.793	22717
866.924	22577
867.055	22557
867.186	22626
867.317	22622
867.448	22546
867.579	22557
867.71	22542
867.841	22561
867.972	22611
868.103	22607
868.233	22664
868.364	22592
868.495	22744
868.625	22809
868.756	22908
868.886	22919
869.017	22854
869.147	22927
869.278	22946
869.408	22854
869.539	22755
869.669	22892
869.799	22881
869.929	22968
870.06	22972
870.19	23193
870.32	23189
870.45	23102
870.58	23242
870.71	23360
870.84	23330
870.97	23239
871.1	23387
871.23	23395
871.36	23406
871.489	23486
871.619	23421
871.749	23493
871.879	23577
872.008	23562
872.138	23452
872.267	23467
872.397	23341
872.526	23360
872.656	23330
872.785	23353
872.915	23493
873.044	23623
873.173	23421
873.303	23493
873.432	23528
873.561	23509
873.69	23509
873.819	23471
873.948	23592
874.077	23512
874.206	23410
874.335	23448
874.464	23566
874.593	23718
874.722	23596
874.851	23707
874.979	23638
875.108	23764
875.237	23661
875.365	23585
875.494	23729
875.623	23767
875.751	23733
875.88	23687
876.008	23684
876.136	23813
876.265	24079
876.393	24209
876.521	24216
876.65	24152
876.778	24087
876.906	23912
877.034	24038
877.162	24163
877.29	23965
877.418	23973
877.546	24125
877.674	23946
877.802	24030
877.93	23908
878.058	23923
878.185	23878
878.313	24034
878.441	24038
878.568	23794
878.696	23958
878.824	24125
878.951	24045
879.079	24140
879.206	24311
879.333	24213
879.461	23939
879.588	24110
879.715	24136
879.842	24327
879.97	24060
880.097	23741
880.224	23855
880.351	23935
880.478	23885
880.605	23893
880.732	23847
880.859	23980
880.986	23783
881.112	23813
881.239	23794
881.366	23520
881.493	23539
881.619	23471
881.746	23414
881.872	23448
881.999	23337
882.125	23197
882.252	23421
882.378	23349
882.505	23414
882.631	23216
882.757	23075
882.883	23223
883.01	23147
883.136	22987
883.262	22900
883.388	22816
883.514	23083
883.64	23075
883.766	22934
883.892	22854
884.018	22858
884.143	22854
884.269	23200
884.395	22755
884.52	22668
884.646	22809
884.772	22599
884.897	22580
885.023	22679
885.148	22854
885.274	22828
885.399	22892
885.524	22694
885.65	22755
885.775	22637
885.9	22645
886.025	22691
886.15	22736
886.275	22729
886.4	22538
886.525	22736
886.65	22660
886.775	22546
886.9	22763
887.025	22824
887.149	22577
887.274	22424
887.399	22451
887.523	22516
887.648	22497
887.773	22367
887.897	22569
888.021	22455
888.146	22371
888.27	22432
888.395	22569
888.519	22421
888.643	22504
888.767	22462
888.891	22352
889.015	22150
889.139	22341
889.263	22337
889.387	22310
889.511	22500
889.635	22363
889.759	22188
889.883	22219
890.006	22268
890.13	22303
890.254	22181
890.377	22040
890.501	22006
890.624	21918
890.748	22013
890.871	21869
890.995	21762
891.118	21713
891.241	21766
891.364	21816
891.488	21892
891.611	21854
891.734	21804
891.857	21755
891.98	21720
892.103	21747
892.226	21823
892.349	21766
892.471	21530
892.594	21583
892.717	21701
892.839	21709
892.962	21637
893.085	21652
893.207	21720
893.33	21549
893.452	21606
893.575	21713
893.697	21572
893.819	21747
893.941	21751
894.064	21682
894.186	21618
894.308	21587
894.43	21797
894.552	21800
894.674	21690
894.796	21431
894.918	21580
895.04	21549
895.161	21663
895.283	21629
895.405	21485
895.526	21633
895.648	21675
895.769	21610
895.891	21599
896.012	21751
896.134	21648
896.255	21595
896.376	21504
896.498	21603
896.619	21622
896.74	21652
896.861	21629
896.982	21949
897.103	22139
897.224	21800
897.345	21854
897.466	21705
897.587	21736
897.708	21975
897.828	21755
897.949	21698
898.07	21599
898.19	21686
898.311	21873
898.431	21751
898.552	21781
898.672	21842
898.792	21789
898.913	21930
899.033	21736
899.153	21618
899.273	21568
899.393	21549
899.513	21641
899.633	21450
899.753	21488
899.873	21439
899.993	21481
900.113	21443
900.232	21447
900.352	21466
900.472	21370
900.591	21321
900.711	21317
900.83	21203
900.95	21332
901.069	21405
901.189	21135
901.308	20986
901.427	20800
901.546	20918
901.665	20868
901.784	20834
901.904	20701
902.023	20537
902.141	20549
902.26	20419
902.379	20587
902.498	20343
902.617	20244
902.735	20366
902.854	20263
902.973	20206
903.091	20069
903.21	20020
903.328	19955
903.446	19818
903.565	19784
903.683	19822
903.801	19689
903.919	19780
904.038	19666
904.156	19575
904.274	19647
904.392	19487
904.51	19609
904.627	19495
904.745	19559
904.863	19658
904.981	19377
905.098	19206
905.216	19301
905.334	19179
905.451	19228
905.569	19133
905.686	19179
905.803	19099
905.921	18886
906.038	19118
906.155	19122
906.272	18875
906.389	18970
906.506	18791
906.623	18719
906.74	18642
906.857	18601
906.974	18639
907.091	18658
907.208	18840
907.324	18749
907.441	18593
907.557	18395
907.674	18620
907.79	18350
907.907	18441
908.023	18475
908.139	18437
908.256	18410
908.372	18323
908.488	18350
908.604	18144
908.72	18129
908.836	18136
908.952	17980
909.068	18129
909.184	18129
909.3	18072
909.415	18064
909.531	18171
909.647	17908
909.762	17775
909.878	17741
909.993	17866
910.108	17737
910.224	17832
910.339	17764
910.454	17783
910.57	17619
910.685	17532
910.8	17828
910.915	17756
911.03	17638
911.145	17421
911.259	17471
911.374	17364
911.489	17337
911.604	17265
911.718	17193
911.833	17337
911.947	17060
912.062	16923
912.176	17170
912.291	17231
912.405	17071
912.519	17410
912.633	17440
912.748	17151
912.862	17045
912.976	16968
913.09	16854
913.204	16797
913.318	16908
913.431	16984
913.545	16911
913.659	17048
913.772	16835
913.886	16729
914	16736
914.113	16820
914.226	16850
914.34	16843
914.453	16653
914.566	16774
914.68	16588
914.793	16497
914.906	16382
915.019	16257
915.132	16268
915.245	16204
915.358	16341
915.47	16257
915.583	16238
915.696	16207
915.809	16344
915.921	16367
916.034	16322
916.146	16131
916.259	16169
916.371	16287
916.483	16276
916.595	16067
916.708	16059
916.82	16067
916.932	16128
917.044	16063
917.156	16010
917.268	15975
917.38	15949
917.491	15778
917.603	15949
917.715	15991
917.826	16013
917.938	15759
918.049	15629
918.161	15907
918.272	15975
918.384	15915
918.495	15770
918.606	15663
918.717	15542
918.828	15576
918.939	15599
919.05	15473
919.161	15603
919.272	15424
919.383	15477
919.494	15724
919.604	15762
919.715	15587
919.826	15439
919.936	15549
920.047	15523
920.157	15564
920.267	15663
920.378	15526
920.488	15545
920.598	15800
920.708	15892
920.818	15629
920.928	15778
921.038	15732
921.148	15762
921.258	15511
921.368	15481
921.477	15382
921.587	15310
921.697	15176
921.806	15275
921.916	15169
922.025	14956
922.134	14899
922.244	14864
922.353	14826
922.462	14815
922.571	14590
922.68	14556
922.789	14579
922.898	14564
923.007	14568
923.116	14537
923.224	14431
923.333	14514
923.442	14469
923.55	14400
923.659	14362
923.767	14358
923.876	14237
923.984	14332
924.092	14271
924.201	14263
924.309	14256
924.417	14180
924.525	14111
924.633	14126
924.741	15131
924.849	13894
924.956	14138
925.064	13967
925.172	13890
925.279	13898
925.387	13936
925.494	13944
925.602	14024
925.709	13951
925.816	13738
925.924	13909
926.031	13894
926.138	13845
926.245	13898
926.352	13658
926.459	13963
926.566	13860
926.673	13689
926.779	13559
926.886	13525
926.993	13491
927.099	13518
927.206	13445
927.312	13445
927.419	13419
927.525	13464
927.631	13434
927.737	13350
927.843	13263
927.95	13209
928.056	13225
928.162	13274
928.267	13259
928.373	13917
928.479	13320
928.585	13076
928.69	13240
928.796	13285
928.901	13072
929.007	12977
929.112	13114
929.218	13046
929.323	12924
929.428	12924
929.533	13099
929.638	12875
929.743	12894
929.848	12875
929.953	12913
930.058	12802
930.163	12639
930.267	12684
930.372	12715
930.477	12597
930.581	12844
930.685	12654
930.79	12475
930.894	12559
930.998	12513
931.103	12570
931.207	12171
931.311	12152
931.415	12041
931.519	11889
931.623	11809
