Data from test_V78500241_164.txt Node
Date: Fri Mar 25 15:42:56 CST 2022
User: usil
Spectrometer: V785-0024
Trigger mode: 0
Integration Time (sec): 4.000000E-1
Scans to average: 1
Nonlinearity correction enabled: false
Boxcar width: 0
Storing dark spectrum: false
XAxis mode: Wavelengths
Number of Pixels in Spectrum: 1024
>>>>>Begin Spectral Data<<<<<
801.071	29216
801.214	29223
801.356	28999
801.499	28816
801.641	28820
801.783	28911
801.926	28892
802.068	28729
802.211	28835
802.353	28752
802.496	28459
802.638	28367
802.78	28432
802.923	28200
803.065	28413
803.208	28386
803.35	28478
803.492	28599
803.635	28596
803.777	28451
803.919	28653
804.061	28888
804.204	28565
804.346	28508
804.488	28424
804.63	28542
804.773	28371
804.915	28481
805.057	28542
805.199	28565
805.341	28561
805.483	28744
805.626	28668
805.768	28386
805.91	28596
806.052	28618
806.194	28565
806.336	28801
806.478	28793
806.62	28664
806.762	28858
806.904	28755
807.046	29174
807.188	29105
807.33	29014
807.472	29155
807.614	28839
807.756	28980
807.898	28873
808.04	28877
808.182	28683
808.324	28911
808.465	28729
808.607	29067
808.749	29143
808.891	29280
809.033	29421
809.174	29246
809.316	29105
809.458	29155
809.6	29162
809.741	29128
809.883	29189
810.025	29429
810.166	29471
810.308	29387
810.45	29372
810.591	29216
810.733	29170
810.875	29109
811.016	29022
811.158	29128
811.299	29261
811.441	29296
811.582	29216
811.724	29204
811.865	29174
812.007	28938
812.148	29109
812.29	29060
812.431	29406
812.573	29482
812.714	29383
812.855	29554
812.997	29634
813.138	29912
813.279	29821
813.421	29577
813.562	29440
813.703	29318
813.845	29391
813.986	28942
814.127	28748
814.268	28748
814.41	28820
814.551	28618
814.692	28778
814.833	28694
814.974	28603
815.115	28691
815.256	28531
815.397	28489
815.539	28443
815.68	28497
815.821	28329
815.962	28584
816.103	28394
816.244	28253
816.385	28154
816.526	28196
816.666	28082
816.807	27941
816.948	27949
817.089	28051
817.23	27937
817.371	27884
817.512	27789
817.653	27736
817.793	27694
817.934	27770
818.075	27861
818.216	27926
818.356	27663
818.497	27701
818.638	27496
818.778	27595
818.919	27477
819.06	27561
819.2	27698
819.341	27781
819.481	27633
819.622	27903
819.762	28086
819.903	28036
820.043	28017
820.184	27865
820.324	27873
820.465	27869
820.605	27831
820.746	27789
820.886	27732
821.026	27838
821.167	27903
821.307	27812
821.447	27694
821.588	27622
821.728	27599
821.868	27416
822.008	27199
822.149	27123
822.289	27233
822.429	26948
822.569	26743
822.709	26781
822.849	26625
822.99	26823
823.13	26701
823.27	26617
823.41	26431
823.55	26290
823.69	26545
823.83	26484
823.97	26427
824.11	26263
824.25	26252
824.389	26282
824.529	26305
824.669	26202
824.809	26328
824.949	26313
825.089	26298
825.228	26305
825.368	26016
825.508	26096
825.648	26221
825.787	25970
825.927	26153
826.067	26027
826.206	26119
826.346	25982
826.485	26172
826.625	26084
826.765	26115
826.904	26031
827.044	25753
827.183	25913
827.323	25841
827.462	25803
827.601	25746
827.741	25712
827.88	25875
828.02	25571
828.159	25765
828.298	25639
828.437	25753
828.577	25597
828.716	25791
828.855	25693
828.994	25297
829.134	25430
829.273	25556
829.412	25441
829.551	25339
829.69	25438
829.829	25464
829.968	25339
830.107	25327
830.246	25331
830.385	25316
830.524	25274
830.663	25270
830.802	25095
830.941	24951
831.08	24920
831.219	24962
831.357	24924
831.496	25221
831.635	25027
831.774	24920
831.913	24696
832.051	24798
832.19	24623
832.329	24741
832.467	24688
832.606	24509
832.744	24593
832.883	24521
833.022	24570
833.16	24681
833.299	24566
833.437	24669
833.576	24726
833.714	24597
833.852	24559
833.991	24703
834.129	24654
834.267	24661
834.406	24570
834.544	24627
834.682	24608
834.821	24361
834.959	24502
835.097	24479
835.235	24578
835.373	24559
835.511	24616
835.65	24353
835.788	24403
835.926	24350
836.064	24239
836.202	24235
836.34	24258
836.478	24422
836.615	24414
836.753	24296
836.891	24399
837.029	24467
837.167	24197
837.305	24254
837.443	24209
837.58	24342
837.718	24334
837.856	24289
837.993	24174
838.131	24277
838.269	24072
838.406	24228
838.544	23874
838.681	23859
838.819	23832
838.956	23596
839.094	23722
839.231	23798
839.369	23866
839.506	23984
839.643	23843
839.781	23585
839.918	23459
840.055	23490
840.193	23661
840.33	23520
840.467	23520
840.604	23566
840.742	23847
840.879	23303
841.016	23528
841.153	23356
841.29	23638
841.427	23524
841.564	23551
841.701	23433
841.838	23383
841.975	23387
842.112	23368
842.249	23334
842.385	23231
842.522	23474
842.659	23349
842.796	23250
842.933	23216
843.069	23090
843.206	23079
843.343	23296
843.479	23109
843.616	23197
843.752	22934
843.889	22908
844.025	23041
844.162	22923
844.298	23010
844.435	22968
844.571	22885
844.708	22942
844.844	22976
844.98	23064
845.117	23003
845.253	22869
845.389	22847
845.525	22835
845.661	22824
845.798	22630
845.934	22729
846.07	22717
846.206	22771
846.342	22778
846.478	22660
846.614	22466
846.75	22440
846.886	22432
847.022	22333
847.158	22470
847.294	22341
847.429	22386
847.565	22363
847.701	22557
847.837	22154
847.972	22051
848.108	22067
848.244	22070
848.379	21857
848.515	21975
848.65	21937
848.786	21964
848.921	22010
849.057	22097
849.192	21968
849.328	21899
849.463	21922
849.598	21842
849.734	21819
849.869	21732
850.004	21656
850.14	21728
850.275	21591
850.41	21606
850.545	21572
850.68	21625
850.815	21610
850.95	21705
851.085	21728
851.22	21732
851.355	21690
851.49	21553
851.625	21629
851.76	21614
851.895	21599
852.03	21587
852.165	21637
852.299	21751
852.434	21720
852.569	21656
852.703	21583
852.838	21637
852.973	21781
853.107	21629
853.242	21542
853.376	21416
853.511	21382
853.645	21348
853.78	21530
853.914	21481
854.048	21348
854.183	21355
854.317	21329
854.451	21675
854.585	21435
854.72	21458
854.854	21500
854.988	21199
855.122	21382
855.256	21268
855.39	21317
855.524	21568
855.658	21431
855.792	21408
855.926	21405
856.06	21492
856.194	21447
856.327	21378
856.461	21389
856.595	21359
856.729	21374
856.862	21545
856.996	21382
857.13	21393
857.263	21599
857.397	21473
857.53	21355
857.664	21317
857.797	21439
857.931	21515
858.064	21462
858.197	21523
858.331	21344
858.464	21287
858.597	21298
858.731	21317
858.864	21272
858.997	21412
859.13	21416
859.263	21294
859.396	21397
859.529	21340
859.662	21317
859.795	21363
859.928	21367
860.061	21348
860.194	21507
860.327	21332
860.46	21272
860.592	21424
860.725	21477
860.858	21424
860.99	21291
861.123	21264
861.256	21291
861.388	21340
861.521	21972
861.653	21176
861.786	21096
861.918	21150
862.05	21344
862.183	21348
862.315	21401
862.447	21256
862.58	21374
862.712	21188
862.844	21020
862.976	21173
863.108	21173
863.24	21576
863.372	20925
863.504	21058
863.636	21024
863.768	21085
863.9	21009
864.032	20990
864.164	20975
864.296	21066
864.428	21142
864.559	21173
864.691	21142
864.823	21116
864.954	21047
865.086	20998
865.217	21013
865.349	20925
865.48	20960
865.612	21020
865.743	21058
865.875	20921
866.006	20944
866.137	20994
866.269	21112
866.4	20952
866.531	21001
866.662	20754
866.793	20895
866.924	20792
867.055	20838
867.186	20918
867.317	20861
867.448	20781
867.579	20849
867.71	20819
867.841	20804
867.972	20899
868.103	20754
868.233	20792
868.364	20872
868.495	20906
868.625	21104
868.756	21302
868.886	21131
869.017	21112
869.147	21222
869.278	21283
869.408	21104
869.539	21157
869.669	21119
869.799	21127
869.929	21298
870.06	21268
870.19	21454
870.32	21344
870.45	21351
870.58	21469
870.71	21538
870.84	21564
870.97	21477
871.1	21355
871.23	21709
871.36	21580
871.489	21603
871.619	21587
871.749	21736
871.879	21713
872.008	21823
872.138	21648
872.267	21686
872.397	21530
872.526	21500
872.656	21408
872.785	21428
872.915	21648
873.044	21762
873.173	21656
873.303	21789
873.432	21770
873.561	21854
873.69	21785
873.819	21720
873.948	21789
874.077	21682
874.206	21614
874.335	21610
874.464	21857
874.593	21949
874.722	21895
874.851	21876
874.979	21945
875.108	21960
875.237	21831
875.365	21709
875.494	21926
875.623	21918
875.751	21892
875.88	21941
876.008	22029
876.136	22120
876.265	22348
876.393	22493
876.521	22348
876.65	22459
876.778	22367
876.906	22325
877.034	22181
877.162	22363
877.29	22348
877.418	22238
877.546	22310
877.674	22303
877.802	22333
877.93	22166
878.058	22230
878.185	22238
878.313	22303
878.441	22280
878.568	22112
878.696	22238
878.824	22322
878.951	22443
879.079	22443
879.206	22542
879.333	22443
879.461	22291
879.588	22398
879.715	22382
879.842	22561
879.97	22306
880.097	22124
880.224	22158
880.351	22124
880.478	22093
880.605	22128
880.732	22112
880.859	22348
880.986	22070
881.112	22112
881.239	22017
881.366	21884
881.493	21850
881.619	21819
881.746	21800
881.872	21739
881.999	21705
882.125	21648
882.252	21694
882.378	21751
882.505	21781
882.631	21553
882.757	21450
882.883	21466
883.01	21466
883.136	21405
883.262	21363
883.388	21256
883.514	21408
883.64	21363
883.766	21416
883.892	21161
884.018	21275
884.143	21519
884.269	21424
884.395	21093
884.52	21104
884.646	21058
884.772	21005
884.897	20937
885.023	21096
885.148	21127
885.274	21161
885.399	21146
885.524	21005
885.65	21055
885.775	20979
885.9	21127
886.025	21180
886.15	21036
886.275	21020
886.4	20857
886.525	20941
886.65	20937
886.775	20971
886.9	21058
887.025	21218
887.149	21036
887.274	20861
887.399	20868
887.523	20864
887.648	20731
887.773	20735
887.897	20815
888.021	20765
888.146	20712
888.27	20815
888.395	20807
888.519	20823
888.643	20929
888.767	20746
888.891	20636
889.015	20594
889.139	20758
889.263	20609
889.387	20746
889.511	20739
889.635	20720
889.759	20602
889.883	20450
890.006	20632
890.13	20632
890.254	20594
890.377	20526
890.501	20278
890.624	20282
890.748	20423
890.871	20301
890.995	20191
891.118	20130
891.241	20157
891.364	20035
891.488	20248
891.611	20256
891.734	20103
891.857	20278
891.98	20050
892.103	20286
892.226	20202
892.349	20092
892.471	19921
892.594	20138
892.717	20092
892.839	20027
892.962	20073
893.085	20126
893.207	20065
893.33	20081
893.452	20016
893.575	20077
893.697	20073
893.819	20237
893.941	20423
894.064	20263
894.186	20039
894.308	20012
894.43	20149
894.552	20256
894.674	20149
894.796	19944
894.918	20024
895.04	20005
895.161	20142
895.283	20111
895.405	19970
895.526	20191
895.648	19944
895.769	20062
895.891	20157
896.012	20180
896.134	20130
896.255	20134
896.376	20130
896.498	20096
896.619	20157
896.74	20103
896.861	20240
896.982	20495
897.103	20499
897.224	20454
897.345	20240
897.466	20195
897.587	20324
897.708	20415
897.828	20343
897.949	20142
898.07	20157
898.19	20142
898.311	20301
898.431	20233
898.552	20214
898.672	20263
898.792	20282
898.913	20278
899.033	20103
899.153	19967
899.273	19967
899.393	19989
899.513	19982
899.633	20073
899.753	19997
899.873	19963
899.993	20050
900.113	19788
900.232	19955
900.352	19913
900.472	19795
900.591	19719
900.711	19852
900.83	19704
900.95	19868
901.069	19947
901.189	19689
901.308	19365
901.427	19346
901.546	19419
901.665	19312
901.784	19263
901.904	19194
902.023	19175
902.141	18985
902.26	18966
902.379	18962
902.498	18863
902.617	18814
902.735	18920
902.854	18669
902.973	18753
903.091	18525
903.21	18498
903.328	18502
903.446	18399
903.565	18361
903.683	18403
903.801	18251
903.919	18304
904.038	18224
904.156	18133
904.274	18144
904.392	18022
904.51	17920
904.627	17988
904.745	18220
904.863	18133
904.981	17904
905.098	17680
905.216	17775
905.334	17817
905.451	17802
905.569	17691
905.686	17843
905.803	17596
905.921	17535
906.038	17585
906.155	17471
906.272	17353
906.389	17440
906.506	17223
906.623	17360
906.74	17318
906.857	17128
906.974	17090
907.091	17337
907.208	17360
907.324	17288
907.441	17170
907.557	17090
907.674	16976
907.79	16892
907.907	16889
908.023	16987
908.139	17048
908.256	16885
908.372	16854
908.488	16759
908.604	16691
908.72	16698
908.836	16634
908.952	16592
909.068	16733
909.184	16694
909.3	16675
909.415	16626
909.531	16596
909.647	16390
909.762	16424
909.878	16375
909.993	16375
910.108	16291
910.224	16329
910.339	16356
910.454	16131
910.57	16158
910.685	16044
910.8	16356
910.915	16265
911.03	16044
911.145	15956
911.259	15937
911.374	15941
911.489	15854
911.604	15705
911.718	15599
911.833	15618
911.947	15629
912.062	15545
912.176	15747
912.291	15736
912.405	15732
912.519	15797
912.633	15793
912.748	15652
912.862	15629
912.976	15526
913.09	15313
913.204	15359
913.318	15386
913.431	15519
913.545	15587
913.659	15511
913.772	15431
913.886	15329
914	15302
914.113	15298
914.226	15344
914.34	15291
914.453	15150
914.566	15317
914.68	15192
914.793	15146
914.906	14971
915.019	14807
915.132	14872
915.245	14902
915.358	14906
915.47	14941
915.583	14918
915.696	14929
915.809	15028
915.921	15020
916.034	14937
916.146	14826
916.259	14788
916.371	14842
916.483	14815
916.595	14705
916.708	14765
916.82	14750
916.932	14640
917.044	14697
917.156	14640
917.268	14530
917.38	14533
917.491	14552
917.603	14629
917.715	14602
917.826	14659
917.938	14457
918.049	14537
918.161	14560
918.272	14636
918.384	14571
918.495	14514
918.606	14393
918.717	14195
918.828	14469
918.939	14351
919.05	14221
919.161	14366
919.272	14058
919.383	14191
919.494	14362
919.604	14446
919.715	14252
919.826	14153
919.936	14320
920.047	14328
920.157	14164
920.267	14476
920.378	14210
920.488	14176
920.598	14339
920.708	14606
920.818	14374
920.928	14370
921.038	14575
921.148	14533
921.258	14309
921.368	14119
921.477	14031
921.587	13947
921.697	13776
921.806	13978
921.916	13795
922.025	13670
922.134	13670
922.244	13578
922.353	13780
922.462	13590
922.571	13571
922.68	13377
922.789	13343
922.898	13251
923.007	13228
923.116	13434
923.224	13263
923.333	13289
923.442	13175
923.55	13114
923.659	13133
923.767	13118
923.876	13069
923.984	13065
924.092	13019
924.201	13069
924.309	13027
924.417	13080
924.525	13038
924.633	12916
924.741	13685
924.849	12760
924.956	12909
925.064	12734
925.172	12719
925.279	12734
925.387	12700
925.494	12745
925.602	12829
925.709	12700
925.816	12646
925.924	12673
926.031	12715
926.138	12650
926.245	12726
926.352	12532
926.459	12696
926.566	12684
926.673	12540
926.779	12479
926.886	12475
926.993	12330
927.099	12235
927.206	12254
927.312	12190
927.419	12266
927.525	12224
927.631	12342
927.737	12190
927.843	12220
927.95	12049
928.056	12152
928.162	12220
928.267	12163
928.373	12741
928.479	12243
928.585	11942
928.69	12095
928.796	12034
928.901	11946
929.007	11870
929.112	11916
929.218	11920
929.323	11878
929.428	11840
929.533	11939
929.638	11802
929.743	11805
929.848	11840
929.953	11745
930.058	11653
930.163	11512
930.267	11532
930.372	11581
930.477	11482
930.581	11729
930.685	11532
930.79	11410
930.894	11425
930.998	11376
931.103	11463
931.207	11071
931.311	11014
931.415	10965
931.519	10771
931.623	10805
