Data from test_V78500241_1555.txt Node
Date: Fri Mar 25 15:52:34 CST 2022
User: usil
Spectrometer: V785-0024
Trigger mode: 0
Integration Time (sec): 4.000000E-1
Scans to average: 1
Nonlinearity correction enabled: false
Boxcar width: 0
Storing dark spectrum: false
XAxis mode: Wavelengths
Number of Pixels in Spectrum: 1024
>>>>>Begin Spectral Data<<<<<
801.071	28021
801.214	27956
801.356	27641
801.499	27576
801.641	27564
801.783	27492
801.926	27492
802.068	27435
802.211	27405
802.353	27336
802.496	27180
802.638	27173
802.78	27112
802.923	27077
803.065	27009
803.208	26937
803.35	27252
803.492	27344
803.635	27435
803.777	27230
803.919	27469
804.061	27591
804.204	27260
804.346	27321
804.488	27199
804.63	27427
804.773	27340
804.915	27283
805.057	27443
805.199	27363
805.341	27378
805.483	27424
805.626	27450
805.768	27348
805.91	27363
806.052	27610
806.194	27306
806.336	27553
806.478	27583
806.62	27538
806.762	27663
806.904	27717
807.046	28032
807.188	27846
807.33	27918
807.472	28013
807.614	27819
807.756	27934
807.898	27793
808.04	27774
808.182	27717
808.324	27732
808.465	27869
808.607	27930
808.749	27975
808.891	28158
809.033	28363
809.174	28181
809.316	28025
809.458	28101
809.6	28162
809.741	28390
809.883	28177
810.025	28303
810.166	28306
810.308	28379
810.45	28474
810.591	28390
810.733	28059
810.875	28124
811.016	28086
811.158	27907
811.299	28200
811.441	28299
811.582	28310
811.724	28135
811.865	28112
812.007	28090
812.148	28055
812.29	28173
812.431	28314
812.573	28470
812.714	28531
812.855	28698
812.997	28812
813.138	28881
813.279	28752
813.421	28713
813.562	28550
813.703	28493
813.845	28337
813.986	28135
814.127	27953
814.268	27816
814.41	27911
814.551	27770
814.692	27819
814.833	27580
814.974	27812
815.115	27812
815.256	27610
815.397	27701
815.539	27694
815.68	27458
815.821	27382
815.962	27610
816.103	27591
816.244	27481
816.385	27195
816.526	27431
816.666	27268
816.807	27032
816.948	27222
817.089	27222
817.23	27043
817.371	27055
817.512	27169
817.653	27081
817.793	27077
817.934	26979
818.075	27119
818.216	27188
818.356	27123
818.497	26963
818.638	26785
818.778	26811
818.919	26887
819.06	26895
819.2	26948
819.341	27214
819.481	27017
819.622	27249
819.762	27355
819.903	27329
820.043	27382
820.184	27081
820.324	27173
820.465	27317
820.605	27287
820.746	27230
820.886	27058
821.026	27047
821.167	27169
821.307	27233
821.447	27058
821.588	26929
821.728	26872
821.868	26800
822.008	26609
822.149	26667
822.289	26473
822.429	26396
822.569	26221
822.709	26317
822.849	26145
822.99	26286
823.13	26107
823.27	25989
823.41	25849
823.55	25814
823.69	25887
823.83	25818
823.97	25966
824.11	25811
824.25	25791
824.389	25814
824.529	25765
824.669	25746
824.809	25761
824.949	25841
825.089	25833
825.228	25818
825.368	25689
825.508	25609
825.648	25537
825.787	25670
825.927	25693
826.067	25578
826.206	25533
826.346	25677
826.485	25647
826.625	25594
826.765	25719
826.904	25590
827.044	25384
827.183	25312
827.323	25388
827.462	25308
827.601	25407
827.741	25251
827.88	25320
828.02	25270
828.159	25217
828.298	25266
828.437	25381
828.577	25274
828.716	25285
828.855	25282
828.994	25095
829.134	24928
829.273	25065
829.412	25069
829.551	24951
829.69	24897
829.829	24966
829.968	25171
830.107	25023
830.246	25023
830.385	24890
830.524	24875
830.663	24719
830.802	24730
830.941	24661
831.08	24574
831.219	24642
831.357	24730
831.496	24711
831.635	24646
831.774	24445
831.913	24437
832.051	24445
832.19	24342
832.329	24357
832.467	24220
832.606	24346
832.744	24228
832.883	24304
833.022	24289
833.16	24129
833.299	24315
833.437	24407
833.576	24441
833.714	24380
833.852	24315
833.991	24460
834.129	24353
834.267	24407
834.406	24224
834.544	24330
834.682	24304
834.821	24232
834.959	24437
835.097	24136
835.235	24391
835.373	24235
835.511	24167
835.65	24152
835.788	24197
835.926	24076
836.064	23950
836.202	23996
836.34	24220
836.478	24213
836.615	24110
836.753	24117
836.891	24228
837.029	24072
837.167	24057
837.305	24034
837.443	24121
837.58	24045
837.718	24003
837.856	23996
837.993	23889
838.131	23904
838.269	23832
838.406	23904
838.544	23809
838.681	23699
838.819	23649
838.956	23676
839.094	23547
839.231	23429
839.369	23554
839.506	23760
839.643	23775
839.781	23478
839.918	23402
840.055	23444
840.193	23250
840.33	23337
840.467	23463
840.604	23463
840.742	23733
840.879	23235
841.016	23311
841.153	23227
841.29	23455
841.427	23288
841.564	23337
841.701	23284
841.838	23376
841.975	23246
842.112	23345
842.249	23265
842.385	23121
842.522	23387
842.659	23181
842.796	23178
842.933	23162
843.069	23083
843.206	23029
843.343	23235
843.479	23136
843.616	23109
843.752	22889
843.889	22965
844.025	23109
844.162	22892
844.298	22949
844.435	22850
844.571	22854
844.708	22987
844.844	23197
844.98	23037
845.117	23071
845.253	22843
845.389	22752
845.525	22949
845.661	22733
845.798	22565
845.934	22717
846.07	22573
846.206	22618
846.342	22721
846.478	22622
846.614	22390
846.75	22341
846.886	22314
847.022	22523
847.158	22375
847.294	22295
847.429	22348
847.565	22333
847.701	22500
847.837	22044
847.972	22040
848.108	22128
848.244	22299
848.379	21808
848.515	21945
848.65	22029
848.786	21922
848.921	22025
849.057	22162
849.192	21956
849.328	22021
849.463	21949
849.598	21850
849.734	21842
849.869	21857
850.004	21854
850.14	21633
850.275	21736
850.41	21679
850.545	21629
850.68	21751
850.815	21633
850.95	21614
851.085	21865
851.22	21842
851.355	21739
851.49	21595
851.625	21690
851.76	21701
851.895	21675
852.03	21690
852.165	21705
852.299	21800
852.434	21857
852.569	21736
852.703	21819
852.838	21781
852.973	21793
853.107	21720
853.242	21641
853.376	21599
853.511	21378
853.645	21538
853.78	21614
853.914	21549
854.048	21526
854.183	21397
854.317	21568
854.451	21789
854.585	21450
854.72	21633
854.854	21667
854.988	21450
855.122	21595
855.256	21408
855.39	21458
855.524	21568
855.658	21587
855.792	21511
855.926	21416
856.06	21485
856.194	21557
856.327	21587
856.461	21466
856.595	21485
856.729	21583
856.862	21595
856.996	21439
857.13	21648
857.263	21675
857.397	21644
857.53	21564
857.664	21572
857.797	21644
857.931	21709
858.064	21606
858.197	21542
858.331	21564
858.464	21431
858.597	21393
858.731	21564
858.864	21389
858.997	21583
859.13	21583
859.263	21492
859.396	21599
859.529	21507
859.662	21408
859.795	21614
859.928	21553
860.061	21751
860.194	21698
860.327	21564
860.46	21561
860.592	21713
860.725	21606
860.858	21629
860.99	21576
861.123	21538
861.256	21439
861.388	21553
861.521	22139
861.653	21237
861.786	21329
861.918	21359
862.05	21355
862.183	21412
862.315	21428
862.447	21682
862.58	21523
862.712	21313
862.844	21081
862.976	21412
863.108	21321
863.24	21682
863.372	21329
863.504	21340
863.636	21272
863.768	21275
863.9	21233
864.032	21188
864.164	21188
864.296	21386
864.428	21287
864.559	21420
864.691	21325
864.823	21256
864.954	21211
865.086	21180
865.217	21074
865.349	21123
865.48	21218
865.612	21047
865.743	21226
865.875	21275
866.006	21089
866.137	21245
866.269	21093
866.4	21104
866.531	21070
866.662	21066
866.793	21058
866.924	21032
867.055	21180
867.186	21085
867.317	20967
867.448	21081
867.579	20986
867.71	20960
867.841	21085
867.972	21081
868.103	21077
868.233	21020
868.364	21051
868.495	21180
868.625	21370
868.756	21454
868.886	21264
869.017	21420
869.147	21424
869.278	21469
869.408	21397
869.539	21313
869.669	21389
869.799	21291
869.929	21439
870.06	21424
870.19	21690
870.32	21644
870.45	21644
870.58	21656
870.71	21846
870.84	21850
870.97	21713
871.1	21675
871.23	21854
871.36	21781
871.489	21739
871.619	21861
871.749	21838
871.879	21865
872.008	21922
872.138	21888
872.267	21854
872.397	21846
872.526	21709
872.656	21736
872.785	21785
872.915	22078
873.044	22059
873.173	21918
873.303	21907
873.432	21956
873.561	21979
873.69	22002
873.819	22013
873.948	22067
874.077	21892
874.206	21941
874.335	21926
874.464	22162
874.593	22078
874.722	22162
874.851	21987
874.979	22192
875.108	22265
875.237	22109
875.365	22154
875.494	22128
875.623	22234
875.751	22082
875.88	22257
876.008	22325
876.136	22390
876.265	22603
876.393	22683
876.521	22725
876.65	22584
876.778	22580
876.906	22493
877.034	22478
877.162	22622
877.29	22542
877.418	22519
877.546	22557
877.674	22561
877.802	22409
877.93	22497
878.058	22474
878.185	22371
878.313	22459
878.441	22592
878.568	22386
878.696	22447
878.824	22531
878.951	22603
879.079	22698
879.206	22786
879.333	22603
879.461	22554
879.588	22725
879.715	22660
879.842	22862
879.97	22607
880.097	22230
880.224	22276
880.351	22348
880.478	22447
880.605	22226
880.732	22379
880.859	22554
880.986	22268
881.112	22314
881.239	22207
881.366	22029
881.493	22090
881.619	21873
881.746	21865
881.872	21979
881.999	21869
882.125	21873
882.252	21937
882.378	21953
882.505	22013
882.631	21717
882.757	21667
882.883	21660
883.01	21580
883.136	21656
883.262	21614
883.388	21428
883.514	21618
883.64	21663
883.766	21549
883.892	21401
884.018	21272
884.143	21473
884.269	21701
884.395	21344
884.52	21203
884.646	21192
884.772	21112
884.897	21112
885.023	21279
885.148	21355
885.274	21374
885.399	21321
885.524	21055
885.65	21252
885.775	21279
885.9	21268
886.025	21336
886.15	21272
886.275	21176
886.4	21252
886.525	21123
886.65	21127
886.775	21138
886.9	21348
887.025	21431
887.149	21180
887.274	20967
887.399	20967
887.523	21024
887.648	20868
887.773	20941
887.897	21070
888.021	21020
888.146	20956
888.27	21009
888.395	21093
888.519	20902
888.643	21039
888.767	21055
888.891	20941
889.015	20777
889.139	20842
889.263	20880
889.387	20857
889.511	21028
889.635	21017
889.759	20773
889.883	20762
890.006	20830
890.13	20853
890.254	20743
890.377	20644
890.501	20644
890.624	20640
890.748	20575
890.871	20552
890.995	20438
891.118	20267
891.241	20423
891.364	20442
891.488	20564
891.611	20393
891.734	20492
891.857	20366
891.98	20374
892.103	20294
892.226	20423
892.349	20301
892.471	20199
892.594	20164
892.717	20336
892.839	20301
892.962	20248
893.085	20347
893.207	20271
893.33	20100
893.452	20183
893.575	20317
893.697	20229
893.819	20488
893.941	20419
894.064	20537
894.186	20396
894.308	20069
894.43	20480
894.552	20393
894.674	20396
894.796	20153
894.918	20313
895.04	20252
895.161	20278
895.283	20275
895.405	20168
895.526	20336
895.648	20233
895.769	20294
895.891	20278
896.012	20328
896.134	20218
896.255	20358
896.376	20301
896.498	20275
896.619	20256
896.74	20252
896.861	20324
896.982	20613
897.103	20602
897.224	20609
897.345	20507
897.466	20495
897.587	20575
897.708	20659
897.828	20530
897.949	20404
898.07	20332
898.19	20503
898.311	20583
898.431	20511
898.552	20385
898.672	20640
898.792	20617
898.913	20476
899.033	20412
899.153	20328
899.273	20256
899.393	20248
899.513	20256
899.633	20240
899.753	20271
899.873	20103
899.993	20157
900.113	20157
900.232	20298
900.352	20199
900.472	20073
900.591	19951
900.711	20043
900.83	20005
900.95	20126
901.069	20210
901.189	19875
901.308	19696
901.427	19578
901.546	19540
901.665	19605
901.784	19616
901.904	19464
902.023	19388
902.141	19156
902.26	19168
902.379	19145
902.498	19057
902.617	19088
902.735	19129
902.854	19050
902.973	19164
903.091	18757
903.21	18768
903.328	18700
903.446	18696
903.565	18604
903.683	18620
903.801	18509
903.919	18528
904.038	18513
904.156	18418
904.274	18429
904.392	18353
904.51	18152
904.627	18338
904.745	18467
904.863	18289
904.981	18034
905.098	18087
905.216	18041
905.334	18019
905.451	18019
905.569	18064
905.686	18072
905.803	17973
905.921	17802
906.038	17916
906.155	17794
906.272	17672
906.389	17771
906.506	17554
906.623	17558
906.74	17642
906.857	17402
906.974	17448
907.091	17687
907.208	17581
907.324	17585
907.441	17402
907.557	17330
907.674	17242
907.79	17155
907.907	17181
908.023	17307
908.139	17231
908.256	17239
908.372	17098
908.488	17239
908.604	17025
908.72	16953
908.836	16957
908.952	16961
909.068	16999
909.184	17128
909.3	16953
909.415	17010
909.531	16911
909.647	16694
909.762	16611
909.878	16752
909.993	16637
910.108	16577
910.224	16706
910.339	16596
910.454	16596
910.57	16417
910.685	16382
910.8	16805
910.915	16622
911.03	16462
911.145	16238
911.259	16261
911.374	16360
911.489	16265
911.604	16105
911.718	16029
911.833	16082
911.947	15926
912.062	15842
912.176	16086
912.291	15994
912.405	16112
912.519	16093
912.633	16158
912.748	16116
912.862	15949
912.976	15930
913.09	15789
913.204	15812
913.318	15789
913.431	15895
913.545	15934
913.659	15975
913.772	15774
913.886	15610
914	15603
914.113	15682
914.226	15690
914.34	15648
914.453	15523
914.566	15648
914.68	15568
914.793	15454
914.906	15287
915.019	15302
915.132	15085
915.245	15287
915.358	15287
915.47	15150
915.583	15298
915.696	15154
915.809	15321
915.921	15340
916.034	15184
916.146	15077
916.259	15108
916.371	15180
916.483	15188
916.595	14956
916.708	15146
916.82	15112
916.932	15024
917.044	15028
917.156	14986
917.268	14857
917.38	14994
917.491	14853
917.603	14861
917.715	15020
917.826	14914
917.938	14819
918.049	14750
918.161	14838
918.272	14956
918.384	14925
918.495	14830
918.606	14720
918.717	14701
918.828	14636
918.939	14606
919.05	14514
919.161	14590
919.272	14434
919.383	14469
919.494	14712
919.604	14853
919.715	14632
919.826	14568
919.936	14541
920.047	14727
920.157	14583
920.267	14830
920.378	14606
920.488	14617
920.598	14731
920.708	14963
920.818	14727
920.928	14731
921.038	14857
921.148	14796
921.258	14492
921.368	14522
921.477	14381
921.587	14305
921.697	14256
921.806	14271
921.916	14157
922.025	13989
922.134	14046
922.244	13967
922.353	14050
922.462	13803
922.571	13803
922.68	13689
922.789	13658
922.898	13590
923.007	13502
923.116	13708
923.224	13525
923.333	13605
923.442	13499
923.55	13358
923.659	13529
923.767	13483
923.876	13419
923.984	13472
924.092	13419
924.201	13415
924.309	13346
924.417	13263
924.525	13316
924.633	13244
924.741	14183
924.849	13008
924.956	13206
925.064	13129
925.172	12966
925.279	13031
925.387	13099
925.494	13149
925.602	13126
925.709	13042
925.816	12951
925.924	12951
926.031	13023
926.138	12985
926.245	13012
926.352	12916
926.459	12970
926.566	13072
926.673	12909
926.779	12802
926.886	12810
926.993	12616
927.099	12669
927.206	12540
927.312	12536
927.419	12669
927.525	12559
927.631	12589
927.737	12456
927.843	12448
927.95	12357
928.056	12445
928.162	12403
928.267	12441
928.373	13156
928.479	12483
928.585	12277
928.69	12437
928.796	12445
928.901	12213
929.007	12098
929.112	12270
929.218	12384
929.323	12159
929.428	12178
929.533	12289
929.638	12019
929.743	12064
929.848	12178
929.953	12030
930.058	12106
930.163	11821
930.267	11885
930.372	12022
930.477	11786
930.581	12057
930.685	11893
930.79	11748
930.894	11737
930.998	11718
931.103	11786
931.207	11490
931.311	11349
931.415	11292
931.519	11261
931.623	11140
