Data from test_V78500241_486.txt Node
Date: Fri Mar 25 15:45:10 CST 2022
User: usil
Spectrometer: V785-0024
Trigger mode: 0
Integration Time (sec): 4.000000E-1
Scans to average: 1
Nonlinearity correction enabled: false
Boxcar width: 0
Storing dark spectrum: false
XAxis mode: Wavelengths
Number of Pixels in Spectrum: 1024
>>>>>Begin Spectral Data<<<<<
801.071	27504
801.214	27610
801.356	27233
801.499	27325
801.641	27100
801.783	27142
801.926	27017
802.068	27070
802.211	27032
802.353	26975
802.496	26857
802.638	26674
802.78	26785
802.923	26629
803.065	26629
803.208	26663
803.35	26788
803.492	26762
803.635	26830
803.777	26636
803.919	26929
804.061	27032
804.204	26933
804.346	26743
804.488	26712
804.63	26830
804.773	26670
804.915	26899
805.057	26975
805.199	26864
805.341	26963
805.483	26864
805.626	27089
805.768	26910
805.91	26940
806.052	26929
806.194	27001
806.336	27165
806.478	27020
806.62	26998
806.762	27047
806.904	27180
807.046	27416
807.188	27340
807.33	27367
807.472	27359
807.614	27123
807.756	27329
807.898	27355
808.04	27306
808.182	27074
808.324	27260
808.465	27142
808.607	27439
808.749	27644
808.891	27637
809.033	27644
809.174	27747
809.316	27671
809.458	27762
809.6	27523
809.741	27827
809.883	27652
810.025	27827
810.166	27793
810.308	27747
810.45	27778
810.591	27800
810.733	27648
810.875	27610
811.016	27344
811.158	27496
811.299	27736
811.441	27781
811.582	27739
811.724	27603
811.865	27542
812.007	27599
812.148	27454
812.29	27477
812.431	27739
812.573	27876
812.714	28131
812.855	28154
812.997	28242
813.138	28344
813.279	28211
813.421	28105
813.562	28055
813.703	27850
813.845	27698
813.986	27526
814.127	27283
814.268	27370
814.41	27245
814.551	27268
814.692	27268
814.833	27112
814.974	27233
815.115	27184
815.256	27135
815.397	27100
815.539	27119
815.68	27028
815.821	27036
815.962	27150
816.103	27070
816.244	26823
816.385	26765
816.526	26872
816.666	26686
816.807	26549
816.948	26693
817.089	26583
817.23	26575
817.371	26621
817.512	26461
817.653	26446
817.793	26480
817.934	26507
818.075	26583
818.216	26480
818.356	26473
818.497	26389
818.638	26168
818.778	26225
818.919	26267
819.06	26183
819.2	26450
819.341	26522
819.481	26518
819.622	26609
819.762	26887
819.903	26792
820.043	26796
820.184	26590
820.324	26640
820.465	26648
820.605	26785
820.746	26640
820.886	26377
821.026	26705
821.167	26663
821.307	26735
821.447	26495
821.588	26503
821.728	26332
821.868	26130
822.008	26107
822.149	26016
822.289	25909
822.429	25818
822.569	25742
822.709	25601
822.849	25666
822.99	25544
823.13	25506
823.27	25350
823.41	25320
823.55	25247
823.69	25335
823.83	25285
823.97	25324
824.11	25141
824.25	25095
824.389	25175
824.529	25141
824.669	25152
824.809	25266
824.949	25099
825.089	25289
825.228	25293
825.368	24947
825.508	24924
825.648	25069
825.787	25050
825.927	24985
826.067	24947
826.206	24962
826.346	24973
826.485	25053
826.625	24935
826.765	25190
826.904	25019
827.044	24700
827.183	24760
827.323	24700
827.462	24776
827.601	24597
827.741	24673
827.88	24840
828.02	24642
828.159	24700
828.298	24749
828.437	24631
828.577	24734
828.716	24825
828.855	24669
828.994	24494
829.134	24395
829.273	24437
829.412	24372
829.551	24372
829.69	24433
829.829	24460
829.968	24445
830.107	24525
830.246	24395
830.385	24281
830.524	24391
830.663	24072
830.802	24117
830.941	24011
831.08	23920
831.219	24053
831.357	23965
831.496	24140
831.635	24079
831.774	23775
831.913	23847
832.051	23733
832.19	23855
832.329	23798
832.467	23687
832.606	23657
832.744	23570
832.883	23707
833.022	23535
833.16	23554
833.299	23668
833.437	23703
833.576	23737
833.714	23722
833.852	23809
833.991	23893
834.129	23828
834.267	23741
834.406	23729
834.544	23722
834.682	23615
834.821	23764
834.959	23901
835.097	23718
835.235	23870
835.373	23676
835.511	23665
835.65	23478
835.788	23646
835.926	23509
836.064	23406
836.202	23429
836.34	23570
836.478	23646
836.615	23589
836.753	23627
836.891	23756
837.029	23497
837.167	23459
837.305	23600
837.443	23547
837.58	23528
837.718	23436
837.856	23455
837.993	23406
838.131	23398
838.269	23280
838.406	23269
838.544	23280
838.681	23014
838.819	23022
838.956	22942
839.094	22854
839.231	22938
839.369	23075
839.506	23246
839.643	23193
839.781	22877
839.918	22885
840.055	22930
840.193	22774
840.33	22877
840.467	22767
840.604	22911
840.742	23067
840.879	22653
841.016	22767
841.153	22683
841.29	22923
841.427	22828
841.564	22812
841.701	22809
841.838	22698
841.975	22603
842.112	22736
842.249	22656
842.385	22455
842.522	22767
842.659	22584
842.796	22577
842.933	22565
843.069	22599
843.206	22417
843.343	22630
843.479	22516
843.616	22535
843.752	22348
843.889	22375
844.025	22447
844.162	22291
844.298	22333
844.435	22337
844.571	22257
844.708	22356
844.844	22500
844.98	22470
845.117	22432
845.253	22386
845.389	22188
845.525	22276
845.661	22105
845.798	22029
845.934	22265
846.07	22048
846.206	22040
846.342	22204
846.478	21975
846.614	21907
846.75	21827
846.886	21694
847.022	21876
847.158	21743
847.294	21857
847.429	21781
847.565	21903
847.701	22109
847.837	21523
847.972	21526
848.108	21694
848.244	21591
848.379	21435
848.515	21458
848.65	21382
848.786	21424
848.921	21317
849.057	21534
849.192	21416
849.328	21389
849.463	21321
849.598	21443
849.734	21321
849.869	21393
850.004	21142
850.14	21207
850.275	21184
850.41	21138
850.545	21146
850.68	21055
850.815	21252
850.95	21169
851.085	21207
851.22	21195
851.355	21180
851.49	21176
851.625	21020
851.76	21192
851.895	21009
852.03	21001
852.165	21013
852.299	21180
852.434	21233
852.569	21214
852.703	21241
852.838	21252
852.973	21287
853.107	21146
853.242	21199
853.376	20960
853.511	20925
853.645	20899
853.78	21085
853.914	20982
854.048	20880
854.183	20941
854.317	20941
854.451	21161
854.585	21017
854.72	20864
854.854	21024
854.988	20914
855.122	20849
855.256	20891
855.39	21009
855.524	20944
855.658	20921
855.792	20937
855.926	21055
856.06	20960
856.194	21058
856.327	20887
856.461	20868
856.595	20880
856.729	20937
856.862	21024
856.996	20910
857.13	21043
857.263	21055
857.397	21047
857.53	20887
857.664	21013
857.797	21017
857.931	21089
858.064	20937
858.197	21013
858.331	21009
858.464	20842
858.597	20823
858.731	20960
858.864	21074
858.997	20895
859.13	20937
859.263	20960
859.396	20998
859.529	20857
859.662	20933
859.795	21024
859.928	20963
860.061	21169
860.194	21127
860.327	20967
860.46	20906
860.592	21116
860.725	21195
860.858	20994
860.99	20948
861.123	20963
861.256	20902
861.388	20967
861.521	21469
861.653	20857
861.786	20773
861.918	20781
862.05	20842
862.183	20857
862.315	21020
862.447	20887
862.58	20902
862.712	20708
862.844	20686
862.976	20785
863.108	20807
863.24	21241
863.372	20522
863.504	20697
863.636	20667
863.768	20689
863.9	20579
864.032	20602
864.164	20716
864.296	20655
864.428	20769
864.559	20686
864.691	20785
864.823	20571
864.954	20461
865.086	20609
865.217	20579
865.349	20484
865.48	20571
865.612	20575
865.743	20606
865.875	20590
866.006	20499
866.137	20663
866.269	20587
866.4	20602
866.531	20556
866.662	20522
866.793	20514
866.924	20537
867.055	20613
867.186	20571
867.317	20503
867.448	20503
867.579	20336
867.71	20408
867.841	20427
867.972	20454
868.103	20320
868.233	20454
868.364	20450
868.495	20552
868.625	20720
868.756	20731
868.886	20640
869.017	20708
869.147	20910
869.278	20857
869.408	20845
869.539	20773
869.669	20826
869.799	20842
869.929	20853
870.06	20880
870.19	21013
870.32	20948
870.45	21096
870.58	21138
870.71	21203
870.84	21355
870.97	21154
871.1	21119
871.23	21230
871.36	21393
871.489	21157
871.619	21363
871.749	21279
871.879	21272
872.008	21458
872.138	21306
872.267	21386
872.397	21298
872.526	21135
872.656	21192
872.785	21188
872.915	21344
873.044	21428
873.173	21344
873.303	21458
873.432	21397
873.561	21454
873.69	21317
873.819	21389
873.948	21317
874.077	21317
874.206	21367
874.335	21500
874.464	21454
874.593	21652
874.722	21629
874.851	21633
874.979	21709
875.108	21656
875.237	21545
875.365	21534
875.494	21591
875.623	21583
875.751	21572
875.88	21580
876.008	21812
876.136	21759
876.265	21998
876.393	22070
876.521	22090
876.65	22128
876.778	22029
876.906	22120
877.034	21899
877.162	22029
877.29	21869
877.418	22010
877.546	21827
877.674	21941
877.802	22055
877.93	21819
878.058	21861
878.185	21888
878.313	21899
878.441	21937
878.568	21766
878.696	21926
878.824	21956
878.951	22040
879.079	22223
879.206	22188
879.333	22207
879.461	22105
879.588	21949
879.715	22116
879.842	22169
879.97	22025
880.097	21732
880.224	21701
880.351	21762
880.478	21694
880.605	21713
880.732	21762
880.859	22070
880.986	21785
881.112	21823
881.239	21439
881.366	21515
881.493	21382
881.619	21378
881.746	21420
881.872	21363
881.999	21359
882.125	21245
882.252	21397
882.378	21268
882.505	21439
882.631	21146
882.757	21119
882.883	21138
883.01	21211
883.136	20887
883.262	21017
883.388	20941
883.514	21036
883.64	21112
883.766	21009
883.892	20914
884.018	20830
884.143	20944
884.269	21119
884.395	20815
884.52	20712
884.646	20697
884.772	20739
884.897	20503
885.023	20769
885.148	20876
885.274	20834
885.399	20929
885.524	20629
885.65	20697
885.775	20697
885.9	20644
886.025	20758
886.15	20792
886.275	20708
886.4	20606
886.525	20640
886.65	20609
886.775	20670
886.9	20762
887.025	21005
887.149	20651
887.274	20552
887.399	20644
887.523	20457
887.648	20469
887.773	20358
887.897	20537
888.021	20648
888.146	20457
888.27	20701
888.395	20594
888.519	20465
888.643	20499
888.767	20476
888.891	20412
889.015	20275
889.139	20431
889.263	20282
889.387	20347
889.511	20446
889.635	20366
889.759	20298
889.883	20221
890.006	20221
890.13	20343
890.254	20172
890.377	20157
890.501	20016
890.624	19955
890.748	20043
890.871	19890
890.995	19868
891.118	19757
891.241	19890
891.364	19921
891.488	20005
891.611	19955
891.734	19951
891.857	19833
891.98	19811
892.103	19921
892.226	19997
892.349	19826
892.471	19594
892.594	19875
892.717	19830
892.839	19826
892.962	19712
893.085	19833
893.207	19674
893.33	19662
893.452	19590
893.575	19727
893.697	19742
893.819	19776
893.941	19906
894.064	19849
894.186	19628
894.308	19609
894.43	19784
894.552	19803
894.674	19868
894.796	19643
894.918	19803
895.04	19715
895.161	19826
895.283	19791
895.405	19635
895.526	19795
895.648	19772
895.769	19826
895.891	19708
896.012	19928
896.134	19860
896.255	19879
896.376	19712
896.498	19849
896.619	19776
896.74	19757
896.861	19769
896.982	20138
897.103	20206
897.224	20088
897.345	20073
897.466	20077
897.587	20100
897.708	20210
897.828	20020
897.949	20024
898.07	19913
898.19	19909
898.311	20145
898.431	19951
898.552	19955
898.672	20031
898.792	20088
898.913	20039
899.033	19978
899.153	19826
899.273	19822
899.393	19826
899.513	19894
899.633	19826
899.753	19670
899.873	19757
899.993	19674
900.113	19795
900.232	19803
900.352	19605
900.472	19544
900.591	19476
900.711	19597
900.83	19472
900.95	19643
901.069	19677
901.189	19403
901.308	19164
901.427	19118
901.546	19164
901.665	19152
901.784	19168
901.904	19015
902.023	18890
902.141	18821
902.26	18753
902.379	18810
902.498	18665
902.617	18509
902.735	18722
902.854	18582
902.973	18684
903.091	18437
903.21	18285
903.328	18353
903.446	18228
903.565	18136
903.683	18171
903.801	17977
903.919	18205
904.038	18121
904.156	17901
904.274	17977
904.392	17958
904.51	17874
904.627	17859
904.745	17893
904.863	17923
904.981	17783
905.098	17577
905.216	17520
905.334	17653
905.451	17623
905.569	17539
905.686	17611
905.803	17608
905.921	17326
906.038	17433
906.155	17391
906.272	17258
906.389	17303
906.506	17121
906.623	17170
906.74	17022
906.857	17132
906.974	17041
907.091	17064
907.208	17193
907.324	17060
907.441	16972
907.557	16847
907.674	16854
907.79	16763
907.907	16725
908.023	16927
908.139	16809
908.256	16744
908.372	16774
908.488	16664
908.604	16679
908.72	16470
908.836	16462
908.952	16478
909.068	16626
909.184	16554
909.3	16599
909.415	16584
909.531	16573
909.647	16284
909.762	16299
909.878	16207
909.993	16215
910.108	16200
910.224	16249
910.339	16211
910.454	16219
910.57	16109
910.685	16055
910.8	16303
910.915	16059
911.03	16124
911.145	15991
911.259	15827
911.374	15854
911.489	15785
911.604	15698
911.718	15603
911.833	15587
911.947	15557
912.062	15435
912.176	15648
912.291	15641
912.405	15587
912.519	15861
912.633	15728
912.748	15603
912.862	15591
912.976	15519
913.09	15389
913.204	15332
913.318	15408
913.431	15485
913.545	15519
913.659	15507
913.772	15416
913.886	15268
914	15142
914.113	15218
914.226	15382
914.34	15214
914.453	15089
914.566	15222
914.68	15032
914.793	15112
914.906	14952
915.019	14807
915.132	14796
915.245	14887
915.358	14765
915.47	14853
915.583	14895
915.696	14792
915.809	14963
915.921	14937
916.034	14765
916.146	14735
916.259	14788
916.371	14807
916.483	14807
916.595	14693
916.708	14754
916.82	14739
916.932	14686
917.044	14552
917.156	14579
917.268	14499
917.38	14552
917.491	14465
917.603	14556
917.715	14640
917.826	14590
917.938	14454
918.049	14313
918.161	14370
918.272	14556
918.384	14522
918.495	14450
918.606	14256
918.717	14244
918.828	14343
918.939	14347
919.05	14153
919.161	14309
919.272	14103
919.383	14153
919.494	14290
919.604	14514
919.715	14259
919.826	14138
919.936	14218
920.047	14309
920.157	14267
920.267	14370
920.378	14317
920.488	14237
920.598	14381
920.708	14602
920.818	14263
920.928	14332
921.038	14431
921.148	14499
921.258	14218
921.368	14065
921.477	14027
921.587	14039
921.697	13757
921.806	13909
921.916	13890
922.025	13704
922.134	13609
922.244	13662
922.353	13712
922.462	13567
922.571	13445
922.68	13270
922.789	13251
922.898	13244
923.007	13194
923.116	13320
923.224	13247
923.333	13202
923.442	13103
923.55	13103
923.659	13164
923.767	13190
923.876	13038
923.984	13126
924.092	12970
924.201	13023
924.309	13110
924.417	13015
924.525	13012
924.633	12894
924.741	13662
924.849	12760
924.956	12882
925.064	12772
925.172	12662
925.279	12669
925.387	12654
925.494	12669
925.602	12814
925.709	12795
925.816	12585
925.924	12669
926.031	12684
926.138	12601
926.245	12654
926.352	12681
926.459	12650
926.566	12715
926.673	12509
926.779	12475
926.886	12296
926.993	12384
927.099	12296
927.206	12254
927.312	12258
927.419	12254
927.525	12273
927.631	12254
927.737	12110
927.843	12155
927.95	12003
928.056	12102
928.162	12098
928.267	12190
928.373	12852
928.479	12121
928.585	11893
928.69	12064
928.796	12178
928.901	11958
929.007	11878
929.112	11999
929.218	11931
929.323	11897
929.428	11813
929.533	11908
929.638	11790
929.743	11737
929.848	11882
929.953	11836
930.058	11733
930.163	11600
930.267	11600
930.372	11661
930.477	11528
930.581	11668
930.685	11570
930.79	11410
930.894	11364
930.998	11448
931.103	11554
931.207	11242
931.311	11079
931.415	11014
931.519	10881
931.623	10774
