Data from test_V78500241_3686.txt Node
Date: Fri Mar 25 16:07:20 CST 2022
User: usil
Spectrometer: V785-0024
Trigger mode: 0
Integration Time (sec): 4.000000E-1
Scans to average: 1
Nonlinearity correction enabled: false
Boxcar width: 0
Storing dark spectrum: false
XAxis mode: Wavelengths
Number of Pixels in Spectrum: 1024
>>>>>Begin Spectral Data<<<<<
801.071	28542
801.214	28379
801.356	28090
801.499	28067
801.641	28025
801.783	28097
801.926	28158
802.068	27968
802.211	27956
802.353	27903
802.496	27876
802.638	27789
802.78	27663
802.923	27713
803.065	27652
803.208	27625
803.35	27895
803.492	27926
803.635	27850
803.777	27736
803.919	27918
804.061	28280
804.204	28067
804.346	27846
804.488	27808
804.63	27888
804.773	27816
804.915	28078
805.057	28097
805.199	27895
805.341	28135
805.483	28169
805.626	28177
805.768	28013
805.91	28188
806.052	28090
806.194	28078
806.336	28314
806.478	28169
806.62	28173
806.762	28253
806.904	28451
807.046	28580
807.188	28580
807.33	28485
807.472	28607
807.614	28470
807.756	28481
807.898	28322
808.04	28348
808.182	28386
808.324	28382
808.465	28413
808.607	28744
808.749	28752
808.891	28923
809.033	28793
809.174	28835
809.316	28911
809.458	28873
809.6	28683
809.741	28774
809.883	28999
810.025	29185
810.166	29083
810.308	29086
810.45	28949
810.591	28972
810.733	28820
810.875	28877
811.016	28721
811.158	28759
811.299	28946
811.441	29014
811.582	28820
811.724	28862
811.865	28725
812.007	28885
812.148	28877
812.29	28885
812.431	28968
812.573	29162
812.714	29273
812.855	29277
812.997	29398
813.138	29497
813.279	29387
813.421	29227
813.562	29216
813.703	29018
813.845	29048
813.986	28634
814.127	28634
814.268	28580
814.41	28675
814.551	28611
814.692	28588
814.833	28523
814.974	28546
815.115	28573
815.256	28284
815.397	28291
815.539	28352
815.68	28462
815.821	28215
815.962	28504
816.103	28325
816.244	28150
816.385	28051
816.526	28006
816.666	27907
816.807	27671
816.948	27793
817.089	27922
817.23	27747
817.371	27888
817.512	27751
817.653	27694
817.793	27759
817.934	27793
818.075	27747
818.216	27934
818.356	27701
818.497	27663
818.638	27523
818.778	27568
818.919	27576
819.06	27614
819.2	27679
819.341	27876
819.481	27873
819.622	27888
819.762	28143
819.903	28128
820.043	27899
820.184	28048
820.324	28044
820.465	28055
820.605	27835
820.746	27903
820.886	27823
821.026	27869
821.167	27827
821.307	27861
821.447	27770
821.588	27709
821.728	27679
821.868	27519
822.008	27386
822.149	27264
822.289	27344
822.429	27119
822.569	27043
822.709	27024
822.849	26918
822.99	26872
823.13	26735
823.27	26762
823.41	26693
823.55	26583
823.69	26655
823.83	26545
823.97	26655
824.11	26442
824.25	26469
824.389	26518
824.529	26503
824.669	26568
824.809	26625
824.949	26412
825.089	26568
825.228	26507
825.368	26393
825.508	26438
825.648	26431
825.787	26453
825.927	26465
826.067	26393
826.206	26377
826.346	26374
826.485	26412
826.625	26313
826.765	26636
826.904	26530
827.044	26153
827.183	26058
827.323	26065
827.462	26088
827.601	26172
827.741	26081
827.88	26107
828.02	25944
828.159	26183
828.298	26138
828.437	26027
828.577	25951
828.716	26031
828.855	25951
828.994	25830
829.134	25769
829.273	25742
829.412	25799
829.551	25670
829.69	25750
829.829	25765
829.968	25837
830.107	25890
830.246	25757
830.385	25795
830.524	25734
830.663	25662
830.802	25419
830.941	25388
831.08	25354
831.219	25567
831.357	25495
831.496	25426
831.635	25438
831.774	25221
831.913	25289
832.051	25160
832.19	25069
832.329	25190
832.467	25034
832.606	24943
832.744	25027
832.883	24909
833.022	25019
833.16	24954
833.299	25065
833.437	25061
833.576	25023
833.714	25034
833.852	25202
833.991	25152
834.129	25114
834.267	25168
834.406	25053
834.544	25126
834.682	25156
834.821	25160
834.959	25270
835.097	25095
835.235	25190
835.373	25008
835.511	25160
835.65	24954
835.788	24901
835.926	24958
836.064	24802
836.202	24779
836.34	24954
836.478	25164
836.615	24905
836.753	24867
836.891	24958
837.029	24924
837.167	24692
837.305	24890
837.443	24734
837.58	24821
837.718	24867
837.856	24722
837.993	24620
838.131	24738
838.269	24658
838.406	24601
838.544	24490
838.681	24342
838.819	24467
838.956	24148
839.094	24251
839.231	24327
839.369	24410
839.506	24738
839.643	24361
839.781	24102
839.918	24190
840.055	24209
840.193	24083
840.33	24095
840.467	24289
840.604	24194
840.742	24357
840.879	24076
841.016	24121
841.153	23965
841.29	24194
841.427	24194
841.564	24114
841.701	24136
841.838	24049
841.975	24011
842.112	24026
842.249	23958
842.385	23874
842.522	24110
842.659	23893
842.796	23836
842.933	23882
843.069	23794
843.206	23836
843.343	23923
843.479	23866
843.616	23980
843.752	23745
843.889	23699
844.025	23733
844.162	23729
844.298	23748
844.435	23684
844.571	23528
844.708	23783
844.844	23817
844.98	23767
845.117	23764
845.253	23547
845.389	23505
845.525	23649
845.661	23585
845.798	23265
845.934	23402
846.07	23284
846.206	23356
846.342	23535
846.478	23299
846.614	23174
846.75	23155
846.886	23098
847.022	23273
847.158	23197
847.294	23124
847.429	23250
847.565	23056
847.701	23231
847.837	22869
847.972	22843
848.108	22957
848.244	22904
848.379	22801
848.515	22694
848.65	22793
848.786	22717
848.921	22694
849.057	22778
849.192	22782
849.328	22767
849.463	22706
849.598	22577
849.734	22554
849.869	22516
850.004	22538
850.14	22531
850.275	22573
850.41	22478
850.545	22417
850.68	22424
850.815	22405
850.95	22493
851.085	22656
851.22	22607
851.355	22592
851.49	22443
851.625	22500
851.76	22508
851.895	22459
852.03	22428
852.165	22535
852.299	22557
852.434	22538
852.569	22565
852.703	22592
852.838	22599
852.973	22538
853.107	22584
853.242	22462
853.376	22409
853.511	22246
853.645	22344
853.78	22512
853.914	22272
854.048	22211
854.183	22257
854.317	22375
854.451	22398
854.585	22257
854.72	22443
854.854	22512
854.988	22219
855.122	22284
855.256	22188
855.39	22284
855.524	22272
855.658	22363
855.792	22249
855.926	22211
856.06	22310
856.194	22265
856.327	22329
856.461	22306
856.595	22360
856.729	22337
856.862	22455
856.996	22284
857.13	22356
857.263	22226
857.397	22424
857.53	22287
857.664	22390
857.797	22306
857.931	22455
858.064	22375
858.197	22417
858.331	22265
858.464	22219
858.597	22101
858.731	22325
858.864	22268
858.997	22196
859.13	22268
859.263	22257
859.396	22375
859.529	22177
859.662	22287
859.795	22322
859.928	22238
860.061	22516
860.194	22421
860.327	22371
860.46	22352
860.592	22436
860.725	22489
860.858	22500
860.99	22253
861.123	22200
861.256	22219
861.388	22363
861.521	22995
861.653	22215
861.786	22112
861.918	22048
862.05	22169
862.183	22276
862.315	22196
862.447	22310
862.58	22257
862.712	21975
862.844	22025
862.976	22078
863.108	22116
863.24	22504
863.372	22051
863.504	22093
863.636	21998
863.768	22021
863.9	22162
864.032	22021
864.164	22059
864.296	21964
864.428	22169
864.559	22093
864.691	21983
864.823	21979
864.954	21983
865.086	22063
865.217	21899
865.349	21838
865.48	21903
865.612	21956
865.743	22021
865.875	21838
866.006	21831
866.137	21979
866.269	21945
866.4	21972
866.531	21800
866.662	21709
866.793	21743
866.924	21956
867.055	21998
867.186	21785
867.317	21816
867.448	21785
867.579	21838
867.71	21850
867.841	21709
867.972	21823
868.103	21778
868.233	21869
868.364	21842
868.495	21911
868.625	22067
868.756	22204
868.886	21968
869.017	22116
869.147	22070
869.278	22291
869.408	22101
869.539	22093
869.669	22166
869.799	22124
869.929	22207
870.06	22143
870.19	22459
870.32	22318
870.45	22409
870.58	22489
870.71	22668
870.84	22653
870.97	22512
871.1	22447
871.23	22691
871.36	22649
871.489	22455
871.619	22637
871.749	22618
871.879	22816
872.008	22820
872.138	22626
872.267	22649
872.397	22577
872.526	22588
872.656	22588
872.785	22512
872.915	22729
873.044	22843
873.173	22679
873.303	22774
873.432	22698
873.561	22828
873.69	22698
873.819	22702
873.948	22767
874.077	22694
874.206	22527
874.335	22683
874.464	22965
874.593	22812
874.722	22824
874.851	22854
874.979	23029
875.108	22961
875.237	22850
875.365	22744
875.494	22957
875.623	22896
875.751	22938
875.88	22843
876.008	22885
876.136	23121
876.265	23193
876.393	23436
876.521	23440
876.65	23364
876.778	23353
876.906	23364
877.034	23315
877.162	23227
877.29	23170
877.418	23284
877.546	23345
877.674	23299
877.802	23159
877.93	23162
878.058	23307
878.185	23044
878.313	23231
878.441	23216
878.568	23044
878.696	23204
878.824	23318
878.951	23303
879.079	23509
879.206	23554
879.333	23482
879.461	23364
879.588	23376
879.715	23395
879.842	23543
879.97	23246
880.097	23044
880.224	23166
880.351	23105
880.478	23025
880.605	23075
880.732	23014
880.859	23254
880.986	23147
881.112	23071
881.239	23094
881.366	22858
881.493	22694
881.619	22622
881.746	22694
881.872	22687
881.999	22626
882.125	22599
882.252	22512
882.378	22542
882.505	22797
882.631	22512
882.757	22382
882.883	22382
883.01	22348
883.136	22268
883.262	22272
883.388	22090
883.514	22329
883.64	22265
883.766	22238
883.892	22097
884.018	22097
884.143	22230
884.269	22295
884.395	22059
884.52	21953
884.646	21960
884.772	21888
884.897	21941
885.023	21975
885.148	21998
885.274	22036
885.399	21945
885.524	21975
885.65	22086
885.775	21968
885.9	21949
886.025	22055
886.15	22086
886.275	21739
886.4	21903
886.525	21926
886.65	21899
886.775	21831
886.9	22067
887.025	22150
887.149	21831
887.274	21686
887.399	21705
887.523	21599
887.648	21736
887.773	21603
887.897	21804
888.021	21766
888.146	21682
888.27	21743
888.395	21766
888.519	21793
888.643	21705
888.767	21618
888.891	21686
889.015	21473
889.139	21671
889.263	21523
889.387	21568
889.511	21739
889.635	21633
889.759	21580
889.883	21469
890.006	21496
890.13	21466
890.254	21340
890.377	21466
890.501	21279
890.624	21188
890.748	21275
890.871	21233
890.995	21058
891.118	21028
891.241	21039
891.364	21089
891.488	21051
891.611	21074
891.734	21039
891.857	21085
891.98	20944
892.103	21119
892.226	20994
892.349	21142
892.471	20788
892.594	20902
892.717	20952
892.839	20944
892.962	20921
893.085	21146
893.207	20960
893.33	20845
893.452	20864
893.575	20921
893.697	20861
893.819	20986
893.941	21112
894.064	20998
894.186	20998
894.308	20853
894.43	20967
894.552	21036
894.674	21017
894.796	20876
894.918	20826
895.04	20937
895.161	21009
895.283	20990
895.405	20800
895.526	20861
895.648	20941
895.769	20823
895.891	20929
896.012	20982
896.134	20982
896.255	20994
896.376	20857
896.498	20952
896.619	21001
896.74	20925
896.861	20956
896.982	21298
897.103	21382
897.224	21279
897.345	21146
897.466	21039
897.587	21184
897.708	21218
897.828	21173
897.949	21066
898.07	21047
898.19	21085
898.311	21157
898.431	21013
898.552	21100
898.672	21150
898.792	21146
898.913	21264
899.033	21032
899.153	20929
899.273	20693
899.393	20979
899.513	20883
899.633	20823
899.753	20933
899.873	20826
899.993	20876
900.113	20849
900.232	20762
900.352	20796
900.472	20522
900.591	20648
900.711	20686
900.83	20621
900.95	20777
901.069	20629
901.189	20507
901.308	20278
901.427	20225
901.546	20176
901.665	20214
901.784	20271
901.904	19963
902.023	20054
902.141	19731
902.26	19670
902.379	19734
902.498	19715
902.617	19689
902.735	19757
902.854	19727
902.973	19510
903.091	19453
903.21	19350
903.328	19388
903.446	19285
903.565	19221
903.683	19133
903.801	19076
903.919	19156
904.038	19107
904.156	18920
904.274	19019
904.392	18886
904.51	18894
904.627	18962
904.745	18909
904.863	18913
904.981	18734
905.098	18540
905.216	18528
905.334	18646
905.451	18604
905.569	18631
905.686	18661
905.803	18555
905.921	18319
906.038	18475
906.155	18407
906.272	18239
906.389	18414
906.506	18106
906.623	18163
906.74	18053
906.857	18007
906.974	17927
907.091	18228
907.208	18228
907.324	18155
907.441	17988
907.557	17798
907.674	17931
907.79	17809
907.907	17836
908.023	17828
908.139	17771
908.256	17767
908.372	17794
908.488	17729
908.604	17558
908.72	17566
908.836	17558
908.952	17539
909.068	17642
909.184	17604
909.3	17543
909.415	17524
909.531	17497
909.647	17239
909.762	17166
909.878	17216
909.993	17280
910.108	17299
910.224	17109
910.339	17318
910.454	17025
910.57	17018
910.685	16991
910.8	17181
910.915	17204
911.03	16976
911.145	16968
911.259	16866
911.374	16793
911.489	16809
911.604	16679
911.718	16577
911.833	16596
911.947	16523
912.062	16375
912.176	16596
912.291	16687
912.405	16417
912.519	16607
912.633	16797
912.748	16538
912.862	16630
912.976	16394
913.09	16276
913.204	16390
913.318	16379
913.431	16535
913.545	16554
913.659	16424
913.772	16284
913.886	16158
914	16059
914.113	16253
914.226	16284
914.34	16291
914.453	16120
914.566	16219
914.68	16063
914.793	15983
914.906	15953
915.019	15736
915.132	15701
915.245	15762
915.358	15789
915.47	15819
915.583	15720
915.696	15747
915.809	15964
915.921	15857
916.034	15625
916.146	15743
916.259	15625
916.371	15698
916.483	15641
916.595	15599
916.708	15637
916.82	15542
916.932	15625
917.044	15606
917.156	15595
917.268	15443
917.38	15408
917.491	15332
917.603	15359
917.715	15431
917.826	15511
917.938	15340
918.049	15180
918.161	15332
918.272	15386
918.384	15469
918.495	15332
918.606	15119
918.717	15085
918.828	15100
918.939	15199
919.05	15051
919.161	15108
919.272	14902
919.383	14868
919.494	15176
919.604	15291
919.715	15165
919.826	14975
919.936	15123
920.047	15146
920.157	15032
920.267	15237
920.378	15036
920.488	15013
920.598	15169
920.708	15344
920.818	15169
920.928	15150
921.038	15405
921.148	15268
921.258	15077
921.368	14952
921.477	14796
921.587	14842
921.697	14674
921.806	14739
921.916	14610
922.025	14473
922.134	14442
922.244	14301
922.353	14461
922.462	14332
922.571	14393
922.68	14107
922.789	14096
922.898	14081
923.007	14077
923.116	14096
923.224	14027
923.333	14081
923.442	13967
923.55	13795
923.659	13970
923.767	13982
923.876	13845
923.984	13951
924.092	13814
924.201	13837
924.309	13856
924.417	13780
924.525	13784
924.633	13681
924.741	14743
924.849	13613
924.956	13643
925.064	13544
925.172	13472
925.279	13457
925.387	13438
925.494	13521
925.602	13597
925.709	13556
925.816	13335
925.924	13384
926.031	13487
926.138	13430
926.245	13441
926.352	13346
926.459	13400
926.566	13567
926.673	13301
926.779	13240
926.886	13164
926.993	13057
927.099	13042
927.206	12977
927.312	12981
927.419	13008
927.525	13012
927.631	13015
927.737	12905
927.843	12821
927.95	12817
928.056	12848
928.162	12848
928.267	12894
928.373	13491
928.479	12932
928.585	12623
928.69	12749
928.796	12791
928.901	12703
929.007	12509
929.112	12722
929.218	12642
929.323	12509
929.428	12521
929.533	12593
929.638	12388
929.743	12536
929.848	12532
929.953	12418
930.058	12456
930.163	12155
930.267	12258
930.372	12365
930.477	12102
930.581	12346
930.685	12220
930.79	12144
930.894	12083
930.998	12011
931.103	12175
931.207	11828
931.311	11790
931.415	11634
931.519	11528
931.623	11429
