Data from test_V78500241_2410.txt Node
Date: Fri Mar 25 15:58:29 CST 2022
User: usil
Spectrometer: V785-0024
Trigger mode: 0
Integration Time (sec): 4.000000E-1
Scans to average: 1
Nonlinearity correction enabled: false
Boxcar width: 0
Storing dark spectrum: false
XAxis mode: Wavelengths
Number of Pixels in Spectrum: 1024
>>>>>Begin Spectral Data<<<<<
801.071	28497
801.214	28421
801.356	28352
801.499	28287
801.641	28112
801.783	28188
801.926	28284
802.068	28116
802.211	28070
802.353	28059
802.496	27884
802.638	27831
802.78	27739
802.923	27739
803.065	27641
803.208	27736
803.35	27728
803.492	27698
803.635	27964
803.777	27945
803.919	28074
804.061	28314
804.204	28013
804.346	27926
804.488	27991
804.63	28010
804.773	27895
804.915	28124
805.057	28306
805.199	28040
805.341	28135
805.483	28318
805.626	28120
805.768	27991
805.91	28109
806.052	28261
806.194	28044
806.336	28440
806.478	28124
806.62	28211
806.762	28344
806.904	28557
807.046	28843
807.188	28615
807.33	28596
807.472	28626
807.614	28622
807.756	28702
807.898	28512
808.04	28535
808.182	28535
808.324	28653
808.465	28432
808.607	28637
808.749	28854
808.891	28949
809.033	29132
809.174	28904
809.316	28877
809.458	28869
809.6	28717
809.741	29052
809.883	29109
810.025	29105
810.166	29280
810.308	29197
810.45	29037
810.591	29098
810.733	28987
810.875	28900
811.016	28820
811.158	28778
811.299	29109
811.441	29086
811.582	29041
811.724	28824
811.865	28896
812.007	28790
812.148	28942
812.29	28858
812.431	29018
812.573	29155
812.714	29315
812.855	29429
812.997	29509
813.138	29695
813.279	29448
813.421	29265
813.562	29220
813.703	29216
813.845	29162
813.986	28824
814.127	28679
814.268	28687
814.41	28774
814.551	28459
814.692	28797
814.833	28584
814.974	28500
815.115	28523
815.256	28462
815.397	28523
815.539	28577
815.68	28367
815.821	28318
815.962	28363
816.103	28432
816.244	28162
816.385	28325
816.526	28116
816.666	28025
816.807	27884
816.948	27937
817.089	27983
817.23	28017
817.371	27979
817.512	28017
817.653	27816
817.793	27869
817.934	27911
818.075	27865
818.216	27960
818.356	27831
818.497	27804
818.638	27595
818.778	27660
818.919	27629
819.06	27747
819.2	27789
819.341	27899
819.481	27854
819.622	28010
819.762	28112
819.903	28169
820.043	28086
820.184	28105
820.324	28097
820.465	28021
820.605	28173
820.746	28063
820.886	27895
821.026	27926
821.167	27956
821.307	28048
821.447	27960
821.588	27728
821.728	27819
821.868	27641
822.008	27526
822.149	27420
822.289	27405
822.429	27222
822.569	26940
822.709	27116
822.849	26921
822.99	26861
823.13	26921
823.27	26853
823.41	26746
823.55	26720
823.69	26705
823.83	26670
823.97	26587
824.11	26484
824.25	26533
824.389	26530
824.529	26636
824.669	26499
824.809	26659
824.949	26617
825.089	26636
825.228	26670
825.368	26271
825.508	26389
825.648	26328
825.787	26465
825.927	26446
826.067	26400
826.206	26377
826.346	26457
826.485	26374
826.625	26511
826.765	26495
826.904	26400
827.044	26161
827.183	26271
827.323	26168
827.462	26237
827.601	26073
827.741	26168
827.88	26202
828.02	26016
828.159	26073
828.298	26172
828.437	26081
828.577	26111
828.716	26172
828.855	26050
828.994	25879
829.134	25795
829.273	25845
829.412	25826
829.551	25955
829.69	25826
829.829	25887
829.968	25887
830.107	25852
830.246	25807
830.385	25780
830.524	25712
830.663	25746
830.802	25575
830.941	25396
831.08	25289
831.219	25377
831.357	25578
831.496	25590
831.635	25438
831.774	25293
831.913	25255
832.051	25266
832.19	25194
832.329	25076
832.467	25069
832.606	24909
832.744	25027
832.883	24966
833.022	25023
833.16	25133
833.299	25244
833.437	25061
833.576	25236
833.714	25042
833.852	25240
833.991	25255
834.129	25137
834.267	25164
834.406	25198
834.544	25145
834.682	25221
834.821	25137
834.959	25407
835.097	25038
835.235	25168
835.373	25061
835.511	25118
835.65	25042
835.788	25042
835.926	24829
836.064	24696
836.202	24859
836.34	25072
836.478	24985
836.615	24840
836.753	24833
836.891	24928
837.029	25000
837.167	24894
837.305	24901
837.443	24798
837.58	24776
837.718	24863
837.856	24696
837.993	24711
838.131	24776
838.269	24700
838.406	24661
838.544	24677
838.681	24536
838.819	24399
838.956	24308
839.094	24308
839.231	24426
839.369	24361
839.506	24597
839.643	24513
839.781	24243
839.918	24277
840.055	24296
840.193	24235
840.33	24068
840.467	24228
840.604	24235
840.742	24456
840.879	24007
841.016	24011
841.153	24068
841.29	24152
841.427	24022
841.564	24186
841.701	24144
841.838	24140
841.975	24121
842.112	24205
842.249	23927
842.385	23878
842.522	24216
842.659	24026
842.796	23973
842.933	24057
843.069	23870
843.206	23980
843.343	23988
843.479	23908
843.616	23958
843.752	23714
843.889	23657
844.025	23897
844.162	23687
844.298	23859
844.435	23627
844.571	23691
844.708	23847
844.844	23821
844.98	23813
845.117	23752
845.253	23649
845.389	23604
845.525	23558
845.661	23558
845.798	23356
845.934	23471
846.07	23482
846.206	23444
846.342	23505
846.478	23318
846.614	23223
846.75	23083
846.886	23200
847.022	23220
847.158	23254
847.294	23242
847.429	23105
847.565	23239
847.701	23364
847.837	22927
847.972	22900
848.108	22991
848.244	23010
848.379	22820
848.515	22634
848.65	22752
848.786	22831
848.921	22729
849.057	22809
849.192	22664
849.328	22782
849.463	22641
849.598	22721
849.734	22679
849.869	22645
850.004	22599
850.14	22523
850.275	22512
850.41	22440
850.545	22573
850.68	22474
850.815	22519
850.95	22519
851.085	22611
851.22	22615
851.355	22538
851.49	22523
851.625	22523
851.76	22519
851.895	22440
852.03	22390
852.165	22466
852.299	22538
852.434	22618
852.569	22546
852.703	22516
852.838	22588
852.973	22618
853.107	22588
853.242	22497
853.376	22329
853.511	22238
853.645	22295
853.78	22375
853.914	22402
854.048	22375
854.183	22249
854.317	22382
854.451	22462
854.585	22261
854.72	22306
854.854	22371
854.988	22299
855.122	22356
855.256	22249
855.39	22284
855.524	22455
855.658	22413
855.792	22306
855.926	22329
856.06	22268
856.194	22379
856.327	22200
856.461	22409
856.595	22234
856.729	22390
856.862	22424
856.996	22249
857.13	22402
857.263	22417
857.397	22478
857.53	22390
857.664	22546
857.797	22280
857.931	22447
858.064	22291
858.197	22485
858.331	22268
858.464	22284
858.597	22303
858.731	22348
858.864	22371
858.997	22249
859.13	22344
859.263	22382
859.396	22371
859.529	22188
859.662	22318
859.795	22272
859.928	22371
860.061	22554
860.194	22554
860.327	22497
860.46	22379
860.592	22451
860.725	22447
860.858	22470
860.99	22223
861.123	22234
861.256	22158
861.388	22200
861.521	23018
861.653	22257
861.786	22192
861.918	22002
862.05	22223
862.183	22177
862.315	22200
862.447	22390
862.58	22158
862.712	22036
862.844	22013
862.976	22177
863.108	22051
863.24	22314
863.372	22078
863.504	21983
863.636	22010
863.768	21964
863.9	22055
864.032	21949
864.164	21987
864.296	21979
864.428	22116
864.559	22086
864.691	22135
864.823	22086
864.954	22059
865.086	21937
865.217	21975
865.349	21838
865.48	21819
865.612	21922
865.743	22017
865.875	21956
866.006	21857
866.137	21854
866.269	21789
866.4	21850
866.531	21808
866.662	21774
866.793	21941
866.924	21850
867.055	21895
867.186	21880
867.317	21762
867.448	21682
867.579	21766
867.71	21747
867.841	21781
867.972	21884
868.103	21804
868.233	21857
868.364	21869
868.495	21876
868.625	22093
868.756	22287
868.886	21899
869.017	22032
869.147	22166
869.278	22051
869.408	22074
869.539	22074
869.669	22177
869.799	22158
869.929	22135
870.06	22154
870.19	22379
870.32	22265
870.45	22424
870.58	22402
870.71	22599
870.84	22611
870.97	22474
871.1	22424
871.23	22561
871.36	22626
871.489	22577
871.619	22637
871.749	22713
871.879	22729
872.008	22816
872.138	22634
872.267	22664
872.397	22550
872.526	22550
872.656	22489
872.785	22618
872.915	22771
873.044	22679
873.173	22721
873.303	22873
873.432	22763
873.561	22877
873.69	22721
873.819	22713
873.948	22710
874.077	22637
874.206	22740
874.335	22683
874.464	22847
874.593	22873
874.722	22961
874.851	22968
874.979	22881
875.108	22900
875.237	22839
875.365	22763
875.494	22923
875.623	23075
875.751	22835
875.88	22927
876.008	23151
876.136	23052
876.265	23303
876.393	23414
876.521	23356
876.65	23341
876.778	23250
876.906	23349
877.034	23250
877.162	23284
877.29	23261
877.418	23235
877.546	23254
877.674	23391
877.802	23284
877.93	23239
878.058	23208
878.185	23223
878.313	23261
878.441	23159
878.568	23124
878.696	23128
878.824	23246
878.951	23436
879.079	23512
879.206	23577
879.333	23459
879.461	23326
879.588	23288
879.715	23433
879.842	23471
879.97	23299
880.097	23102
880.224	23060
880.351	22991
880.478	23003
880.605	23086
880.732	23094
880.859	23406
880.986	23060
881.112	23014
881.239	22972
881.366	22873
881.493	22835
881.619	22675
881.746	22668
881.872	22729
881.999	22645
882.125	22660
882.252	22577
882.378	22641
882.505	22687
882.631	22512
882.757	22337
882.883	22455
883.01	22287
883.136	22329
883.262	22219
883.388	22192
883.514	22303
883.64	22253
883.766	22120
883.892	22090
884.018	21994
884.143	22284
884.269	22261
884.395	21983
884.52	21918
884.646	22017
884.772	21869
884.897	21979
885.023	22029
885.148	22032
885.274	22051
885.399	21987
885.524	21972
885.65	22021
885.775	21797
885.9	22040
886.025	22082
886.15	22021
886.275	21880
886.4	21835
886.525	22006
886.65	21953
886.775	21709
886.9	21949
887.025	22044
887.149	21918
887.274	21781
887.399	21705
887.523	21831
887.648	21625
887.773	21618
887.897	21816
888.021	21739
888.146	21663
888.27	21770
888.395	21739
888.519	21770
888.643	21766
888.767	21812
888.891	21625
889.015	21462
889.139	21629
889.263	21492
889.387	21625
889.511	21637
889.635	21610
889.759	21416
889.883	21416
890.006	21576
890.13	21591
890.254	21481
890.377	21526
890.501	21408
890.624	21264
890.748	21245
890.871	21203
890.995	21074
891.118	21123
891.241	21032
891.364	21051
891.488	21154
891.611	21089
891.734	21066
891.857	21051
891.98	21173
892.103	21100
892.226	21074
892.349	21066
892.471	20788
892.594	20906
892.717	21043
892.839	21005
892.962	20944
893.085	21093
893.207	20918
893.33	20895
893.452	20864
893.575	20986
893.697	20925
893.819	21032
893.941	21032
894.064	21047
894.186	20914
894.308	20979
894.43	21017
894.552	21047
894.674	21135
894.796	20914
894.918	20819
895.04	20910
895.161	20952
895.283	20921
895.405	20876
895.526	20944
895.648	20849
895.769	20941
895.891	20967
896.012	20994
896.134	20963
896.255	20979
896.376	20842
896.498	20880
896.619	20902
896.74	20929
896.861	20925
896.982	21211
897.103	21325
897.224	21241
897.345	21142
897.466	21001
897.587	21036
897.708	21157
897.828	21123
897.949	21070
898.07	20929
898.19	21036
898.311	21192
898.431	21108
898.552	21218
898.672	21165
898.792	21211
898.913	21104
899.033	21165
899.153	20967
899.273	20807
899.393	20823
899.513	21020
899.633	20845
899.753	20887
899.873	20769
899.993	20975
900.113	20800
900.232	20792
900.352	20834
900.472	20602
900.591	20530
900.711	20606
900.83	20644
900.95	20769
901.069	20678
901.189	20450
901.308	20374
901.427	20237
901.546	20290
901.665	20355
901.784	20347
901.904	20130
902.023	19997
902.141	19864
902.26	19693
902.379	19875
902.498	19807
902.617	19662
902.735	19727
902.854	19609
902.973	19601
903.091	19301
903.21	19388
903.328	19362
903.446	19251
903.565	19038
903.683	19171
903.801	19042
903.919	19133
904.038	19012
904.156	18947
904.274	19095
904.392	18840
904.51	18970
904.627	19000
904.745	18932
904.863	18886
904.981	18776
905.098	18517
905.216	18623
905.334	18601
905.451	18700
905.569	18540
905.686	18612
905.803	18582
905.921	18391
906.038	18483
906.155	18437
906.272	18296
906.389	18380
906.506	18155
906.623	18159
906.74	18076
906.857	17999
906.974	18087
907.091	18079
907.208	18254
907.324	18079
907.441	18026
907.557	17893
907.674	17882
907.79	17863
907.907	17824
908.023	17847
908.139	17859
908.256	17764
908.372	17764
908.488	17676
908.604	17554
908.72	17444
908.836	17558
908.952	17535
909.068	17596
909.184	17627
909.3	17532
909.415	17668
909.531	17539
909.647	17239
909.762	17216
909.878	17250
909.993	17204
910.108	17231
910.224	17223
910.339	17258
910.454	17079
910.57	17098
910.685	16892
910.8	17231
910.915	17121
911.03	17155
911.145	16877
911.259	16767
911.374	16930
911.489	16835
911.604	16641
911.718	16569
911.833	16615
911.947	16451
912.062	16481
912.176	16607
912.291	16538
912.405	16592
912.519	16828
912.633	16721
912.748	16592
912.862	16554
912.976	16413
913.09	16325
913.204	16249
913.318	16379
913.431	16527
913.545	16451
913.659	16432
913.772	16390
913.886	16215
914	16211
914.113	16188
914.226	16333
914.34	16143
914.453	16128
914.566	16173
914.68	16051
914.793	16036
914.906	15800
915.019	15709
915.132	15728
915.245	15690
915.358	15751
915.47	15892
915.583	15743
915.696	15728
915.809	15854
915.921	15873
916.034	15648
916.146	15564
916.259	15663
916.371	15774
916.483	15682
916.595	15557
916.708	15648
916.82	15625
916.932	15477
917.044	15435
917.156	15466
917.268	15355
917.38	15363
917.491	15344
917.603	15359
917.715	15564
917.826	15431
917.938	15458
918.049	15195
918.161	15351
918.272	15443
918.384	15473
918.495	15306
918.606	15135
918.717	14998
918.828	15176
918.939	15154
919.05	14971
919.161	15081
919.272	14876
919.383	14944
919.494	15089
919.604	15306
919.715	15165
919.826	14948
919.936	15017
920.047	15184
920.157	15097
920.267	15291
920.378	15062
920.488	15047
920.598	15173
920.708	15374
920.818	15233
920.928	15161
921.038	15359
921.148	15336
921.258	15070
921.368	14762
921.477	14811
921.587	14758
921.697	14674
921.806	14769
921.916	14590
922.025	14476
922.134	14457
922.244	14461
922.353	14412
922.462	14362
922.571	14191
922.68	14149
922.789	14035
922.898	14142
923.007	14157
923.116	14077
923.224	14005
923.333	14130
923.442	13879
923.55	13811
923.659	13921
923.767	13967
923.876	13845
923.984	13928
924.092	13818
924.201	13833
924.309	13818
924.417	13776
924.525	13738
924.633	13746
924.741	14518
924.849	13586
924.956	13674
925.064	13506
925.172	13449
925.279	13434
925.387	13499
925.494	13411
925.602	13636
925.709	13506
925.816	13354
925.924	13377
926.031	13407
926.138	13468
926.245	13419
926.352	13327
926.459	13510
926.566	13499
926.673	13339
926.779	13190
926.886	13190
926.993	13084
927.099	13118
927.206	12996
927.312	12966
927.419	13046
927.525	13069
927.631	13031
927.737	12947
927.843	12901
927.95	12772
928.056	12837
928.162	12894
928.267	12825
928.373	13491
928.479	12985
928.585	12627
928.69	12875
928.796	12741
928.901	12703
929.007	12578
929.112	12715
929.218	12650
929.323	12479
929.428	12547
929.533	12707
929.638	12399
929.743	12490
929.848	12452
929.953	12509
930.058	12418
930.163	12197
930.267	12235
930.372	12384
930.477	12171
930.581	12361
930.685	12243
930.79	12133
930.894	12133
930.998	12091
931.103	12125
931.207	11798
931.311	11726
931.415	11600
931.519	11474
931.623	11429
