Data from test_V78500241_2729.txt Node
Date: Fri Mar 25 16:00:42 CST 2022
User: usil
Spectrometer: V785-0024
Trigger mode: 0
Integration Time (sec): 4.000000E-1
Scans to average: 1
Nonlinearity correction enabled: false
Boxcar width: 0
Storing dark spectrum: false
XAxis mode: Wavelengths
Number of Pixels in Spectrum: 1024
>>>>>Begin Spectral Data<<<<<
801.071	28706
801.214	28782
801.356	28363
801.499	28314
801.641	28303
801.783	28253
801.926	28379
802.068	28249
802.211	28188
802.353	28215
802.496	28169
802.638	27991
802.78	28002
802.923	27816
803.065	27930
803.208	27926
803.35	28154
803.492	28109
803.635	28154
803.777	28128
803.919	28352
804.061	28386
804.204	28344
804.346	28135
804.488	28238
804.63	28253
804.773	28158
804.915	28329
805.057	28314
805.199	28226
805.341	28325
805.483	28409
805.626	28424
805.768	28306
805.91	28379
806.052	28466
806.194	28405
806.336	28687
806.478	28367
806.62	28413
806.762	28485
806.904	28618
807.046	28991
807.188	28896
807.33	28835
807.472	28927
807.614	28759
807.756	28744
807.898	28763
808.04	28569
808.182	28694
808.324	28656
808.465	28850
808.607	28980
808.749	29181
808.891	29166
809.033	29136
809.174	29159
809.316	29189
809.458	29094
809.6	29102
809.741	29143
809.883	29265
810.025	29455
810.166	29429
810.308	29395
810.45	29410
810.591	29296
810.733	29231
810.875	29006
811.016	28934
811.158	29010
811.299	29353
811.441	29330
811.582	29277
811.724	29060
811.865	29166
812.007	29102
812.148	29178
812.29	29174
812.431	29387
812.573	29433
812.714	29482
812.855	29547
812.997	29764
813.138	29859
813.279	29783
813.421	29528
813.562	29528
813.703	29433
813.845	29273
813.986	29022
814.127	28957
814.268	28858
814.41	28843
814.551	28744
814.692	28900
814.833	28668
814.974	28755
815.115	28927
815.256	28797
815.397	28843
815.539	28702
815.68	28653
815.821	28440
815.962	28626
816.103	28607
816.244	28607
816.385	28360
816.526	28432
816.666	28234
816.807	28196
816.948	28223
817.089	28306
817.23	28166
817.371	28200
817.512	28082
817.653	28082
817.793	28097
817.934	28249
818.075	28105
818.216	28120
818.356	28025
818.497	27922
818.638	27816
818.778	27865
818.919	27930
819.06	27941
819.2	28124
819.341	28211
819.481	28185
819.622	28409
819.762	28630
819.903	28436
820.043	28310
820.184	28234
820.324	28265
820.465	28314
820.605	28226
820.746	28291
820.886	27949
821.026	28322
821.167	28200
821.307	28287
821.447	28196
821.588	28109
821.728	27987
821.868	27854
822.008	27656
822.149	27614
822.289	27595
822.429	27450
822.569	27382
822.709	27344
822.849	27199
822.99	27157
823.13	27123
823.27	27142
823.41	27013
823.55	26807
823.69	26910
823.83	26914
823.97	26925
824.11	26629
824.25	26686
824.389	26838
824.529	26819
824.669	26765
824.809	26895
824.949	26880
825.089	26762
825.228	26792
825.368	26720
825.508	26682
825.648	26667
825.787	26762
825.927	26823
826.067	26682
826.206	26705
826.346	26712
826.485	26800
826.625	26488
826.765	26845
826.904	26663
827.044	26412
827.183	26476
827.323	26305
827.462	26393
827.601	26336
827.741	26290
827.88	26415
828.02	26362
828.159	26240
828.298	26408
828.437	26507
828.577	26370
828.716	26484
828.855	26339
828.994	26119
829.134	26111
829.273	26111
829.412	26039
829.551	26100
829.69	26130
829.829	26134
829.968	26263
830.107	26050
830.246	26168
830.385	25940
830.524	26001
830.663	25887
830.802	25700
830.941	25681
831.08	25700
831.219	25940
831.357	25780
831.496	26001
831.635	25544
831.774	25704
831.913	25483
832.051	25533
832.19	25460
832.329	25419
832.467	25358
832.606	25228
832.744	25285
832.883	25354
833.022	25369
833.16	25358
833.299	25441
833.437	25518
833.576	25457
833.714	25430
833.852	25449
833.991	25491
834.129	25518
834.267	25502
834.406	25301
834.544	25453
834.682	25419
834.821	25316
834.959	25765
835.097	25293
835.235	25381
835.373	25483
835.511	25377
835.65	25190
835.788	25301
835.926	25179
836.064	25012
836.202	25103
836.34	25293
836.478	25331
836.615	25232
836.753	25255
836.891	25251
837.029	25255
837.167	25187
837.305	25099
837.443	25027
837.58	25069
837.718	25065
837.856	25091
837.993	24947
838.131	25103
838.269	24894
838.406	24981
838.544	24844
838.681	24791
838.819	24650
838.956	24445
839.094	24486
839.231	24551
839.369	24623
839.506	25015
839.643	24730
839.781	24467
839.918	24456
840.055	24578
840.193	24544
840.33	24365
840.467	24475
840.604	24426
840.742	24757
840.879	24308
841.016	24429
841.153	24422
841.29	24540
841.427	24350
841.564	24437
841.701	24414
841.838	24357
841.975	24281
842.112	24319
842.249	24228
842.385	24171
842.522	24395
842.659	24152
842.796	24114
842.933	24239
843.069	24194
843.206	24228
843.343	24369
843.479	24194
843.616	24068
843.752	23946
843.889	23954
844.025	23996
844.162	23942
844.298	24072
844.435	24026
844.571	23946
844.708	23912
844.844	24076
844.98	24064
845.117	23958
845.253	23904
845.389	23824
845.525	23874
845.661	23828
845.798	23737
845.934	23882
846.07	23707
846.206	23752
846.342	23733
846.478	23638
846.614	23505
846.75	23398
846.886	23467
847.022	23391
847.158	23395
847.294	23482
847.429	23474
847.565	23406
847.701	23642
847.837	23216
847.972	23174
848.108	23261
848.244	23269
848.379	23197
848.515	23022
848.65	22889
848.786	22953
848.921	23060
849.057	23181
849.192	23216
849.328	23094
849.463	23048
849.598	22942
849.734	22908
849.869	22858
850.004	22869
850.14	22797
850.275	22797
850.41	22786
850.545	22748
850.68	22596
850.815	22953
850.95	22790
851.085	23109
851.22	22889
851.355	22911
851.49	22786
851.625	22885
851.76	22774
851.895	22698
852.03	22755
852.165	22858
852.299	22793
852.434	23079
852.569	22934
852.703	22763
852.838	22805
852.973	23025
853.107	22904
853.242	22793
853.376	22649
853.511	22592
853.645	22626
853.78	22725
853.914	22660
854.048	22603
854.183	22512
854.317	22679
854.451	22839
854.585	22710
854.72	22630
854.854	22706
854.988	22573
855.122	22592
855.256	22561
855.39	22592
855.524	22717
855.658	22748
855.792	22550
855.926	22607
856.06	22626
856.194	22649
856.327	22687
856.461	22672
856.595	22618
856.729	22664
856.862	22729
856.996	22702
857.13	22656
857.263	22759
857.397	22649
857.53	22713
857.664	22687
857.797	22664
857.931	22763
858.064	22634
858.197	22721
858.331	22577
858.464	22588
858.597	22569
858.731	22653
858.864	22656
858.997	22615
859.13	22664
859.263	22611
859.396	22744
859.529	22577
859.662	22554
859.795	22561
859.928	22660
860.061	22611
860.194	22839
860.327	22637
860.46	22683
860.592	22683
860.725	22877
860.858	22782
860.99	22603
861.123	22698
861.256	22599
861.388	22634
861.521	23433
861.653	22565
861.786	22409
861.918	22466
862.05	22588
862.183	22546
862.315	22504
862.447	22744
862.58	22542
862.712	22322
862.844	22379
862.976	22382
863.108	22443
863.24	22843
863.372	22272
863.504	22310
863.636	22265
863.768	22382
863.9	22318
864.032	22291
864.164	22485
864.296	22299
864.428	22493
864.559	22497
864.691	22382
864.823	22238
864.954	22276
865.086	22329
865.217	22299
865.349	22143
865.48	22268
865.612	22139
865.743	22367
865.875	22204
866.006	22238
866.137	22246
866.269	22253
866.4	22276
866.531	22261
866.662	22074
866.793	22299
866.924	22097
867.055	22207
867.186	22169
867.317	22097
867.448	22131
867.579	22116
867.71	22120
867.841	22002
867.972	22154
868.103	22223
868.233	22139
868.364	22021
868.495	22249
868.625	22318
868.756	22493
868.886	22310
869.017	22352
869.147	22432
869.278	22519
869.408	22405
869.539	22306
869.669	22508
869.799	22508
869.929	22493
870.06	22470
870.19	22618
870.32	22656
870.45	22634
870.58	22763
870.71	22850
870.84	22759
870.97	22858
871.1	22763
871.23	22900
871.36	23029
871.489	22908
871.619	22873
871.749	22991
871.879	23033
872.008	23170
872.138	23018
872.267	22942
872.397	22961
872.526	22835
872.656	22889
872.785	22854
872.915	23010
873.044	22908
873.173	23105
873.303	22976
873.432	23159
873.561	23071
873.69	23128
873.819	22885
873.948	23083
874.077	22904
874.206	22949
874.335	23006
874.464	23147
874.593	23231
874.722	23090
874.851	23299
874.979	23204
875.108	23223
875.237	23083
875.365	23170
875.494	23303
875.623	23216
875.751	23254
875.88	23292
876.008	23318
876.136	23467
876.265	23562
876.393	23665
876.521	23619
876.65	23570
876.778	23619
876.906	23570
877.034	23554
877.162	23760
877.29	23589
877.418	23592
877.546	23627
877.674	23649
877.802	23501
877.93	23642
878.058	23478
878.185	23410
878.313	23440
878.441	23433
878.568	23474
878.696	23452
878.824	23611
878.951	23482
879.079	23756
879.206	23775
879.333	23642
879.461	23577
879.588	23543
879.715	23775
879.842	23722
879.97	23703
880.097	23337
880.224	23402
880.351	23421
880.478	23463
880.605	23364
880.732	23459
880.859	23589
880.986	23288
881.112	23524
881.239	23143
881.366	23109
881.493	22991
881.619	22896
881.746	22953
881.872	22946
881.999	22873
882.125	22889
882.252	22908
882.378	22854
882.505	23052
882.631	22797
882.757	22694
882.883	22618
883.01	22694
883.136	22653
883.262	22523
883.388	22405
883.514	22626
883.64	22645
883.766	22459
883.892	22257
884.018	22447
884.143	22538
884.269	22538
884.395	22436
884.52	22215
884.646	22242
884.772	22234
884.897	22230
885.023	22162
885.148	22284
885.274	22375
885.399	22352
885.524	22173
885.65	22219
885.775	22169
885.9	22280
886.025	22348
886.15	22253
886.275	22238
886.4	22173
886.525	22341
886.65	22181
886.775	22032
886.9	22348
887.025	22436
887.149	22223
887.274	22044
887.399	22017
887.523	22044
887.648	21884
887.773	21876
887.897	22010
888.021	22029
888.146	21884
888.27	22078
888.395	22017
888.519	22067
888.643	21987
888.767	22013
888.891	21979
889.015	21800
889.139	21827
889.263	21736
889.387	21865
889.511	22032
889.635	21987
889.759	21850
889.883	21804
890.006	21823
890.13	21949
890.254	21736
890.377	21648
890.501	21610
890.624	21549
890.748	21580
890.871	21378
890.995	21462
891.118	21329
891.241	21355
891.364	21291
891.488	21469
891.611	21355
891.734	21329
891.857	21405
891.98	21363
892.103	21382
892.226	21313
892.349	21252
892.471	21070
892.594	21340
892.717	21306
892.839	21138
892.962	21226
893.085	21321
893.207	21188
893.33	21093
893.452	21214
893.575	21214
893.697	21131
893.819	21298
893.941	21389
894.064	21275
894.186	21108
894.308	21264
894.43	21313
894.552	21344
894.674	21161
894.796	21157
894.918	21214
895.04	21199
895.161	21310
895.283	21138
895.405	21180
895.526	21203
895.648	21017
895.769	21195
895.891	21214
896.012	21233
896.134	21161
896.255	21211
896.376	21230
896.498	21245
896.619	21199
896.74	21188
896.861	21283
896.982	21488
897.103	21667
897.224	21408
897.345	21321
897.466	21306
897.587	21397
897.708	21561
897.828	21504
897.949	21272
898.07	21214
898.19	21272
898.311	21469
898.431	21359
898.552	21397
898.672	21481
898.792	21401
898.913	21233
899.033	21252
899.153	21138
899.273	21116
899.393	21241
899.513	21138
899.633	21055
899.753	21207
899.873	21001
899.993	21188
900.113	20956
900.232	20956
900.352	21077
900.472	20956
900.591	20853
900.711	20883
900.83	20701
900.95	20994
901.069	21024
901.189	20804
901.308	20537
901.427	20488
901.546	20366
901.665	20511
901.784	20632
901.904	20343
902.023	20206
902.141	19982
902.26	19826
902.379	19997
902.498	19993
902.617	20065
902.735	20012
902.854	19963
902.973	19833
903.091	19700
903.21	19628
903.328	19597
903.446	19510
903.565	19308
903.683	19422
903.801	19358
903.919	19377
904.038	19453
904.156	19122
904.274	19270
904.392	19118
904.51	19137
904.627	19133
904.745	19053
904.863	19183
904.981	18878
905.098	18825
905.216	18810
905.334	18871
905.451	18894
905.569	18829
905.686	18776
905.803	18772
905.921	18623
906.038	18719
906.155	18544
906.272	18593
906.389	18604
906.506	18391
906.623	18418
906.74	18334
906.857	18194
906.974	18186
907.091	18388
907.208	18403
907.324	18311
907.441	18186
907.557	18125
907.674	18019
907.79	18060
907.907	17961
908.023	18057
908.139	18174
908.256	18015
908.372	17950
908.488	17904
908.604	17794
908.72	17729
908.836	17687
908.952	17756
909.068	17855
909.184	17859
909.3	17783
909.415	17741
909.531	17634
909.647	17463
909.762	17509
909.878	17474
909.993	17573
910.108	17474
910.224	17364
910.339	17463
910.454	17402
910.57	17364
910.685	17174
910.8	17474
910.915	17372
911.03	17200
911.145	17132
911.259	17079
911.374	17037
911.489	16911
911.604	16972
911.718	16717
911.833	16755
911.947	16675
912.062	16615
912.176	16759
912.291	16923
912.405	16740
912.519	17014
912.633	16965
912.748	16767
912.862	16698
912.976	16588
913.09	16493
913.204	16561
913.318	16508
913.431	16656
913.545	16630
913.659	16683
913.772	16569
913.886	16459
914	16398
914.113	16413
914.226	16379
914.34	16485
914.453	16154
914.566	16421
914.68	16287
914.793	16223
914.906	16105
915.019	15991
915.132	15911
915.245	15934
915.358	15994
915.47	16036
915.583	16025
915.696	15972
915.809	16071
915.921	16188
916.034	15861
916.146	15861
916.259	15812
916.371	15941
916.483	15953
916.595	15812
916.708	15800
916.82	15743
916.932	15778
917.044	15698
917.156	15679
917.268	15572
917.38	15625
917.491	15545
917.603	15591
917.715	15633
917.826	15698
917.938	15439
918.049	15431
918.161	15564
918.272	15682
918.384	15641
918.495	15542
918.606	15310
918.717	15252
918.828	15351
918.939	15428
919.05	15252
919.161	15382
919.272	15097
919.383	15184
919.494	15321
919.604	15485
919.715	15321
919.826	15142
919.936	15260
920.047	15306
920.157	15294
920.267	15477
920.378	15317
920.488	15355
920.598	15462
920.708	15587
920.818	15443
920.928	15382
921.038	15625
921.148	15572
921.258	15260
921.368	15123
921.477	15104
921.587	15013
921.697	14880
921.806	15188
921.916	14864
922.025	14701
922.134	14674
922.244	14644
922.353	14689
922.462	14473
922.571	14518
922.68	14415
922.789	14301
922.898	14252
923.007	14142
923.116	14240
923.224	14267
923.333	14153
923.442	14115
923.55	14096
923.659	14103
923.767	14202
923.876	14065
923.984	14050
924.092	14062
924.201	14050
924.309	14039
924.417	14043
924.525	13898
924.633	13894
924.741	14853
924.849	13712
924.956	13940
925.064	13693
925.172	13700
925.279	13708
925.387	13670
925.494	13609
925.602	13791
925.709	13742
925.816	13624
925.924	13586
926.031	13757
926.138	13597
926.245	13681
926.352	13514
926.459	13616
926.566	13666
926.673	13552
926.779	13400
926.886	13434
926.993	13198
927.099	13152
927.206	13202
927.312	13168
927.419	13244
927.525	13088
927.631	13156
927.737	13069
927.843	13042
927.95	12924
928.056	13114
928.162	12947
928.267	13027
928.373	13594
928.479	13080
928.585	12905
928.69	13099
928.796	12996
928.901	12897
929.007	12738
929.112	12806
929.218	12802
929.323	12730
929.428	12722
929.533	12779
929.638	12654
929.743	12757
929.848	12620
929.953	12700
930.058	12555
930.163	12365
930.267	12380
930.372	12536
930.477	12403
930.581	12585
930.685	12418
930.79	12228
930.894	12270
930.998	12266
931.103	12350
931.207	11912
931.311	11893
931.415	11889
931.519	11623
931.623	11676
