Data from test_V78500241_2846.txt Node
Date: Fri Mar 25 16:01:30 CST 2022
User: usil
Spectrometer: V785-0024
Trigger mode: 0
Integration Time (sec): 4.000000E-1
Scans to average: 1
Nonlinearity correction enabled: false
Boxcar width: 0
Storing dark spectrum: false
XAxis mode: Wavelengths
Number of Pixels in Spectrum: 1024
>>>>>Begin Spectral Data<<<<<
801.071	29159
801.214	29044
801.356	28809
801.499	28744
801.641	28599
801.783	28656
801.926	28733
802.068	28706
802.211	28584
802.353	28569
802.496	28401
802.638	28124
802.78	28325
802.923	28310
803.065	28211
803.208	28443
803.35	28557
803.492	28443
803.635	28531
803.777	28557
803.919	28535
804.061	28908
804.204	28615
804.346	28615
804.488	28504
804.63	28538
804.773	28538
804.915	28615
805.057	28763
805.199	28733
805.341	28725
805.483	28828
805.626	28763
805.768	28577
805.91	28778
806.052	28721
806.194	28577
806.336	28953
806.478	28816
806.62	28752
806.762	28980
806.904	29083
807.046	29315
807.188	29216
807.33	29227
807.472	29223
807.614	29071
807.756	29128
807.898	29204
808.04	29102
808.182	29041
808.324	29056
808.465	29223
808.607	29410
808.749	29387
808.891	29535
809.033	29520
809.174	29535
809.316	29452
809.458	29554
809.6	29467
809.741	29676
809.883	29623
810.025	29805
810.166	29859
810.308	29691
810.45	29771
810.591	29737
810.733	29467
810.875	29356
811.016	29284
811.158	29334
811.299	29634
811.441	29821
811.582	29630
811.724	29486
811.865	29539
812.007	29440
812.148	29623
812.29	29554
812.431	29665
812.573	29726
812.714	29931
812.855	29958
812.997	30182
813.138	30201
813.279	30148
813.421	30053
813.562	30034
813.703	29882
813.845	29649
813.986	29505
814.127	29197
814.268	29117
814.41	29311
814.551	29075
814.692	29341
814.833	29174
814.974	29261
815.115	29197
815.256	29140
815.397	29136
815.539	29128
815.68	28927
815.821	29025
815.962	29128
816.103	29064
816.244	28995
816.385	28843
816.526	28733
816.666	28580
816.807	28447
816.948	28596
817.089	28561
817.23	28660
817.371	28386
817.512	28432
817.653	28493
817.793	28497
817.934	28538
818.075	28611
818.216	28557
818.356	28542
818.497	28550
818.638	28356
818.778	28428
818.919	28226
819.06	28341
819.2	28478
819.341	28493
819.481	28599
819.622	28710
819.762	28888
819.903	28831
820.043	28782
820.184	28584
820.324	28622
820.465	28744
820.605	28672
820.746	28713
820.886	28668
821.026	28717
821.167	28675
821.307	28702
821.447	28542
821.588	28394
821.728	28478
821.868	28215
822.008	28169
822.149	28051
822.289	28006
822.429	27785
822.569	27884
822.709	27766
822.849	27557
822.99	27583
823.13	27534
823.27	27466
823.41	27336
823.55	27355
823.69	27542
823.83	27412
823.97	27291
824.11	27203
824.25	27096
824.389	27252
824.529	27291
824.669	27340
824.809	27313
824.949	27382
825.089	27321
825.228	27252
825.368	26979
825.508	27017
825.648	27127
825.787	27260
825.927	27165
826.067	27032
826.206	27154
826.346	27169
826.485	27096
826.625	27089
826.765	27207
826.904	27287
827.044	26868
827.183	26796
827.323	26765
827.462	26971
827.601	27036
827.741	26956
827.88	26887
828.02	26693
828.159	26819
828.298	26887
828.437	26868
828.577	26724
828.716	27013
828.855	26701
828.994	26552
829.134	26465
829.273	26640
829.412	26412
829.551	26488
829.69	26492
829.829	26609
829.968	26781
830.107	26518
830.246	26400
830.385	26339
830.524	26450
830.663	26404
830.802	26069
830.941	26050
831.08	26088
831.219	26233
831.357	26157
831.496	26263
831.635	26088
831.774	26142
831.913	25883
832.051	25894
832.19	25788
832.329	25963
832.467	25791
832.606	25723
832.744	25776
832.883	25738
833.022	25833
833.16	25856
833.299	25826
833.437	25780
833.576	25750
833.714	25856
833.852	25928
833.991	25902
834.129	25970
834.267	25993
834.406	25830
834.544	25959
834.682	25788
834.821	25963
834.959	26122
835.097	25791
835.235	25879
835.373	25925
835.511	25890
835.65	25662
835.788	25613
835.926	25582
836.064	25445
836.202	25578
836.34	25818
836.478	25788
836.615	25639
836.753	25833
836.891	25795
837.029	25708
837.167	25529
837.305	25571
837.443	25613
837.58	25544
837.718	25445
837.856	25445
837.993	25537
838.131	25510
838.269	25278
838.406	25255
838.544	25293
838.681	25080
838.819	25095
838.956	24958
839.094	24958
839.231	25164
839.369	24977
839.506	25289
839.643	25133
839.781	24939
839.918	24932
840.055	24886
840.193	24920
840.33	24901
840.467	24795
840.604	24844
840.742	25095
840.879	24608
841.016	24768
841.153	24677
841.29	24962
841.427	24913
841.564	24901
841.701	24875
841.838	24863
841.975	24776
842.112	24897
842.249	24692
842.385	24658
842.522	24798
842.659	24859
842.796	24517
842.933	24608
843.069	24505
843.206	24597
843.343	24513
843.479	24673
843.616	24494
843.752	24414
843.889	24403
844.025	24566
844.162	24414
844.298	24479
844.435	24376
844.571	24262
844.708	24365
844.844	24597
844.98	24471
845.117	24452
845.253	24258
845.389	24353
845.525	24346
845.661	24361
845.798	24186
845.934	24125
846.07	24129
846.206	24053
846.342	24174
846.478	24136
846.614	23904
846.75	23809
846.886	23847
847.022	24007
847.158	23908
847.294	23893
847.429	23931
847.565	23646
847.701	24030
847.837	23600
847.972	23505
848.108	23562
848.244	23630
848.379	23410
848.515	23410
848.65	23372
848.786	23345
848.921	23448
849.057	23398
849.192	23524
849.328	23467
849.463	23395
849.598	23311
849.734	23372
849.869	23258
850.004	23181
850.14	23159
850.275	23197
850.41	23204
850.545	23193
850.68	23098
850.815	23185
850.95	23227
851.085	23391
851.22	23311
851.355	23140
851.49	23124
851.625	23197
851.76	23132
851.895	23094
852.03	23052
852.165	23250
852.299	23360
852.434	23185
852.569	23094
852.703	23083
852.838	23212
852.973	23204
853.107	23269
853.242	23147
853.376	23086
853.511	22930
853.645	22904
853.78	23143
853.914	23075
854.048	23018
854.183	23014
854.317	22965
854.451	23174
854.585	22946
854.72	22896
854.854	22984
854.988	22904
855.122	22965
855.256	23003
855.39	22976
855.524	23071
855.658	22915
855.792	22961
855.926	22930
856.06	23041
856.194	23067
856.327	22999
856.461	22938
856.595	23083
856.729	23033
856.862	23037
856.996	23041
857.13	23022
857.263	23022
857.397	23208
857.53	22976
857.664	23014
857.797	23052
857.931	23200
858.064	23254
858.197	23132
858.331	22987
858.464	22942
858.597	22980
858.731	22869
858.864	22961
858.997	23022
859.13	23003
859.263	22995
859.396	23022
859.529	22930
859.662	23003
859.795	22881
859.928	22946
860.061	23166
860.194	23132
860.327	22995
860.46	23136
860.592	23044
860.725	23166
860.858	23067
860.99	23079
861.123	22927
861.256	22900
861.388	22984
861.521	23668
861.653	22843
861.786	22816
861.918	22839
862.05	22877
862.183	22843
862.315	22900
862.447	23029
862.58	22911
862.712	22774
862.844	22649
862.976	22801
863.108	22759
863.24	22957
863.372	22580
863.504	22675
863.636	22790
863.768	22774
863.9	22717
864.032	22675
864.164	22771
864.296	22702
864.428	22908
864.559	22725
864.691	22744
864.823	22675
864.954	22611
865.086	22649
865.217	22641
865.349	22474
865.48	22542
865.612	22645
865.743	22672
865.875	22618
866.006	22546
866.137	22531
866.269	22550
866.4	22478
866.531	22409
866.662	22455
866.793	22538
866.924	22466
867.055	22478
867.186	22478
867.317	22356
867.448	22398
867.579	22508
867.71	22500
867.841	22447
867.972	22599
868.103	22603
868.233	22421
868.364	22436
868.495	22542
868.625	22580
868.756	22908
868.886	22630
869.017	22668
869.147	22790
869.278	22820
869.408	22717
869.539	22660
869.669	22778
869.799	22824
869.929	22820
870.06	22816
870.19	23052
870.32	23079
870.45	23121
870.58	23094
870.71	23223
870.84	23250
870.97	23242
871.1	23113
871.23	23395
871.36	23379
871.489	23239
871.619	23372
871.749	23273
871.879	23258
872.008	23455
872.138	23334
872.267	23261
872.397	23258
872.526	23132
872.656	23140
872.785	23056
872.915	23444
873.044	23368
873.173	23284
873.303	23440
873.432	23398
873.561	23372
873.69	23383
873.819	23414
873.948	23501
874.077	23360
874.206	23341
874.335	23349
874.464	23372
874.593	23691
874.722	23448
874.851	23703
874.979	23493
875.108	23581
875.237	23562
875.365	23425
875.494	23543
875.623	23573
875.751	23505
875.88	23691
876.008	23627
876.136	23642
876.265	23923
876.393	24068
876.521	23942
876.65	24026
876.778	23996
876.906	23775
877.034	23866
877.162	23866
877.29	23874
877.418	23931
877.546	23912
877.674	23855
877.802	23958
877.93	23882
878.058	23790
878.185	23764
878.313	23714
878.441	23760
878.568	23783
878.696	23836
878.824	23870
878.951	23927
879.079	24057
879.206	24129
879.333	23977
879.461	23961
879.588	23958
879.715	24098
879.842	24129
879.97	23821
880.097	23722
880.224	23718
880.351	23680
880.478	23646
880.605	23771
880.732	23752
880.859	23973
880.986	23699
881.112	23756
881.239	23638
881.366	23444
881.493	23280
881.619	23250
881.746	23318
881.872	23303
881.999	23231
882.125	23288
882.252	23425
882.378	23227
882.505	23303
882.631	23124
882.757	22847
882.883	23018
883.01	22938
883.136	22892
883.262	22843
883.388	22607
883.514	22957
883.64	23006
883.766	22881
883.892	22641
884.018	22820
884.143	22908
884.269	22976
884.395	22592
884.52	22573
884.646	22577
884.772	22432
884.897	22565
885.023	22607
885.148	22618
885.274	22706
885.399	22653
885.524	22561
885.65	22641
885.775	22573
885.9	22500
886.025	22641
886.15	22622
886.275	22645
886.4	22432
886.525	22394
886.65	22489
886.775	22550
886.9	22508
887.025	22759
887.149	22516
887.274	22352
887.399	22360
887.523	22310
887.648	22223
887.773	22078
887.897	22303
888.021	22310
888.146	22204
888.27	22421
888.395	22382
888.519	22223
888.643	22276
888.767	22299
888.891	22188
889.015	22109
889.139	22169
889.263	22166
889.387	22158
889.511	22299
889.635	22257
889.759	22051
889.883	22017
890.006	22131
890.13	22166
890.254	21960
890.377	22036
890.501	21816
890.624	21812
890.748	21918
890.871	21701
890.995	21576
891.118	21660
891.241	21572
891.364	21679
891.488	21732
891.611	21679
891.734	21587
891.857	21572
891.98	21576
892.103	21576
892.226	21637
892.349	21603
892.471	21348
892.594	21599
892.717	21587
892.839	21428
892.962	21610
893.085	21671
893.207	21439
893.33	21336
893.452	21469
893.575	21549
893.697	21507
893.819	21587
893.941	21682
894.064	21660
894.186	21542
894.308	21355
894.43	21652
894.552	21686
894.674	21526
894.796	21424
894.918	21553
895.04	21416
895.161	21564
895.283	21599
895.405	21450
895.526	21439
895.648	21283
895.769	21534
895.891	21557
896.012	21545
896.134	21500
896.255	21523
896.376	21416
896.498	21428
896.619	21473
896.74	21462
896.861	21496
896.982	21774
897.103	21888
897.224	21778
897.345	21686
897.466	21660
897.587	21622
897.708	21781
897.828	21736
897.949	21576
898.07	21378
898.19	21686
898.311	21724
898.431	21614
898.552	21739
898.672	21652
898.792	21709
898.913	21694
899.033	21633
899.153	21526
899.273	21340
899.393	21389
899.513	21428
899.633	21443
899.753	21401
899.873	21393
899.993	21466
900.113	21374
900.232	21291
900.352	21302
900.472	21256
900.591	21108
900.711	21252
900.83	20971
900.95	21279
901.069	21226
901.189	20986
901.308	20762
901.427	20682
901.546	20674
901.665	20849
901.784	20758
901.904	20457
902.023	20495
902.141	20362
902.26	20248
902.379	20339
902.498	20206
902.617	20077
902.735	20237
902.854	20176
902.973	20039
903.091	19902
903.21	19951
903.328	19879
903.446	19818
903.565	19632
903.683	19689
903.801	19506
903.919	19544
904.038	19597
904.156	19468
904.274	19396
904.392	19400
904.51	19438
904.627	19388
904.745	19426
904.863	19388
904.981	19187
905.098	19137
905.216	19168
905.334	19084
905.451	19148
905.569	18989
905.686	19088
905.803	19118
905.921	18924
906.038	18985
906.155	18848
906.272	18734
906.389	18711
906.506	18654
906.623	18566
906.74	18593
906.857	18521
906.974	18551
907.091	18696
907.208	18673
907.324	18623
907.441	18494
907.557	18361
907.674	18353
907.79	18289
907.907	18194
908.023	18315
908.139	18342
908.256	18300
908.372	18270
908.488	18148
908.604	18060
908.72	18038
908.836	18007
908.952	18015
909.068	18057
909.184	18022
909.3	17992
909.415	17996
909.531	18125
909.647	17741
909.762	17767
909.878	17691
909.993	17786
910.108	17585
910.224	17699
910.339	17722
910.454	17668
910.57	17516
910.685	17383
910.8	17729
910.915	17657
911.03	17528
911.145	17288
911.259	17216
911.374	17356
911.489	17273
911.604	17128
911.718	17025
911.833	16968
911.947	16946
912.062	16953
912.176	16946
912.291	17029
912.405	16987
912.519	17151
912.633	17200
912.748	16987
912.862	17006
912.976	16889
913.09	16759
913.204	16816
913.318	16778
913.431	16972
913.545	16805
913.659	16927
913.772	16900
913.886	16733
914	16615
914.113	16721
914.226	16675
914.34	16702
914.453	16478
914.566	16637
914.68	16542
914.793	16569
914.906	16204
915.019	16181
915.132	16139
915.245	16169
915.358	16265
915.47	16207
915.583	16158
915.696	16177
915.809	16371
915.921	16287
916.034	16147
916.146	16017
916.259	16025
916.371	16150
916.483	16192
916.595	15998
916.708	15903
916.82	16017
916.932	15876
917.044	15892
917.156	15835
917.268	15816
917.38	15854
917.491	15778
917.603	15804
917.715	15934
917.826	15888
917.938	15622
918.049	15686
918.161	15694
918.272	15827
918.384	15835
918.495	15789
918.606	15686
918.717	15511
918.828	15660
918.939	15568
919.05	15481
919.161	15625
919.272	15306
919.383	15382
919.494	15557
919.604	15762
919.715	15439
919.826	15481
919.936	15420
920.047	15564
920.157	15454
920.267	15660
920.378	15424
920.488	15401
920.598	15671
920.708	15778
920.818	15580
920.928	15549
921.038	15800
921.148	15701
921.258	15317
921.368	15348
921.477	15233
921.587	15245
921.697	15085
921.806	15218
921.916	15043
922.025	14933
922.134	14788
922.244	14804
922.353	14849
922.462	14648
922.571	14560
922.68	14404
922.789	14351
922.898	14522
923.007	14434
923.116	14598
923.224	14450
923.333	14446
923.442	14305
923.55	14244
923.659	14377
923.767	14408
923.876	14259
923.984	14286
924.092	14199
924.201	14176
924.309	14164
924.417	14202
924.525	14043
924.633	14168
924.741	15066
924.849	13879
924.956	13967
925.064	13871
925.172	13738
925.279	13951
925.387	13826
925.494	13875
925.602	13894
925.709	13944
925.816	13670
925.924	13727
926.031	13753
926.138	13689
926.245	13681
926.352	13681
926.459	13791
926.566	13852
926.673	13655
926.779	13563
926.886	13578
926.993	13438
927.099	13422
927.206	13274
927.312	13392
927.419	13350
927.525	13324
927.631	13343
927.737	13228
927.843	13213
927.95	13072
928.056	13156
928.162	13091
928.267	13194
928.373	13784
928.479	13126
928.585	13008
928.69	13015
928.796	13110
928.901	13034
929.007	12882
929.112	12966
929.218	12993
929.323	12935
929.428	12802
929.533	12958
929.638	12745
929.743	12776
929.848	12848
929.953	12825
930.058	12681
930.163	12437
930.267	12479
930.372	12688
930.477	12464
930.581	12711
930.685	12635
930.79	12418
930.894	12380
930.998	12380
931.103	12551
931.207	12110
931.311	12030
931.415	11916
931.519	11897
931.623	11756
