Data from test_V78500241_3564.txt Node
Date: Fri Mar 25 16:06:29 CST 2022
User: usil
Spectrometer: V785-0024
Trigger mode: 0
Integration Time (sec): 4.000000E-1
Scans to average: 1
Nonlinearity correction enabled: false
Boxcar width: 0
Storing dark spectrum: false
XAxis mode: Wavelengths
Number of Pixels in Spectrum: 1024
>>>>>Begin Spectral Data<<<<<
801.071	28790
801.214	28869
801.356	28531
801.499	28607
801.641	28371
801.783	28348
801.926	28401
802.068	28322
802.211	28280
802.353	28219
802.496	28211
802.638	28105
802.78	28086
802.923	27934
803.065	27979
803.208	27964
803.35	28154
803.492	28265
803.635	28314
803.777	28135
803.919	28181
804.061	28748
804.204	28455
804.346	28097
804.488	28173
804.63	28478
804.773	28196
804.915	28379
805.057	28497
805.199	28401
805.341	28565
805.483	28531
805.626	28249
805.768	28405
805.91	28565
806.052	28538
806.194	28519
806.336	28698
806.478	28618
806.62	28504
806.762	28687
806.904	28615
807.046	28995
807.188	28942
807.33	28908
807.472	29044
807.614	28938
807.756	28816
807.898	28729
808.04	28767
808.182	28824
808.324	28763
808.465	28793
808.607	28938
808.749	29079
808.891	29326
809.033	29345
809.174	29311
809.316	29075
809.458	29242
809.6	29155
809.741	29242
809.883	29391
810.025	29486
810.166	29467
810.308	29627
810.45	29353
810.591	29353
810.733	29292
810.875	29212
811.016	29269
811.158	29128
811.299	29166
811.441	29379
811.582	29368
811.724	29181
811.865	29288
812.007	29174
812.148	29250
812.29	29353
812.431	29334
812.573	29547
812.714	29623
812.855	29870
812.997	29809
813.138	30041
813.279	29836
813.421	29931
813.562	29794
813.703	29471
813.845	29452
813.986	29204
814.127	28892
814.268	28984
814.41	29006
814.551	28900
814.692	29060
814.833	28782
814.974	28850
815.115	29022
815.256	28927
815.397	28930
815.539	28774
815.68	28710
815.821	28596
815.962	28687
816.103	28824
816.244	28733
816.385	28569
816.526	28459
816.666	28310
816.807	28226
816.948	28337
817.089	28341
817.23	28219
817.371	28257
817.512	28234
817.653	28200
817.793	28051
817.934	28177
818.075	28230
818.216	28215
818.356	28185
818.497	28059
818.638	27960
818.778	27987
818.919	28101
819.06	28055
819.2	28150
819.341	28173
819.481	28162
819.622	28489
819.762	28622
819.903	28546
820.043	28493
820.184	28310
820.324	28352
820.465	28390
820.605	28341
820.746	28344
820.886	28234
821.026	28322
821.167	28322
821.307	28417
821.447	28223
821.588	28086
821.728	28010
821.868	27835
822.008	27656
822.149	27884
822.289	27804
822.429	27583
822.569	27367
822.709	27302
822.849	27252
822.99	27233
823.13	27252
823.27	27283
823.41	27009
823.55	26921
823.69	27070
823.83	26979
823.97	26952
824.11	26937
824.25	26861
824.389	26887
824.529	26963
824.669	26880
824.809	27005
824.949	26891
825.089	26994
825.228	26948
825.368	26785
825.508	26788
825.648	26823
825.787	26796
825.927	26777
826.067	26746
826.206	26785
826.346	26868
826.485	26785
826.625	26823
826.765	26826
826.904	26788
827.044	26640
827.183	26617
827.323	26450
827.462	26560
827.601	26541
827.741	26632
827.88	26511
828.02	26507
828.159	26476
828.298	26442
828.437	26571
828.577	26545
828.716	26511
828.855	26385
828.994	26168
829.134	26218
829.273	26221
829.412	26221
829.551	26103
829.69	26100
829.829	26267
829.968	26195
830.107	26210
830.246	26183
830.385	26210
830.524	26062
830.663	26012
830.802	25982
830.941	25731
831.08	25780
831.219	25864
831.357	25894
831.496	26039
831.635	25761
831.774	25651
831.913	25674
832.051	25586
832.19	25510
832.329	25601
832.467	25415
832.606	25320
832.744	25343
832.883	25324
833.022	25449
833.16	25430
833.299	25540
833.437	25407
833.576	25552
833.714	25605
833.852	25518
833.991	25582
834.129	25556
834.267	25609
834.406	25559
834.544	25537
834.682	25658
834.821	25521
834.959	25556
835.097	25377
835.235	25632
835.373	25510
835.511	25537
835.65	25422
835.788	25415
835.926	25107
836.064	25289
836.202	25099
836.34	25400
836.478	25339
836.615	25293
836.753	25358
836.891	25453
837.029	25415
837.167	25415
837.305	25145
837.443	25183
837.58	25225
837.718	25270
837.856	25126
837.993	25152
838.131	25050
838.269	25122
838.406	25122
838.544	24901
838.681	24833
838.819	24719
838.956	24612
839.094	24604
839.231	24650
839.369	24734
839.506	24947
839.643	24943
839.781	24608
839.918	24475
840.055	24509
840.193	24582
840.33	24433
840.467	24593
840.604	24486
840.742	24776
840.879	24414
841.016	24410
841.153	24391
841.29	24547
841.427	24544
841.564	24582
841.701	24517
841.838	24547
841.975	24266
842.112	24505
842.249	24228
842.385	24186
842.522	24498
842.659	24399
842.796	24300
842.933	24258
843.069	24262
843.206	24159
843.343	24353
843.479	24327
843.616	24197
843.752	24034
843.889	24026
844.025	24018
844.162	23931
844.298	24117
844.435	24110
844.571	23942
844.708	24045
844.844	24190
844.98	24140
845.117	24148
845.253	23885
845.389	23897
845.525	23916
845.661	23946
845.798	23790
845.934	23775
846.07	23802
846.206	23794
846.342	23965
846.478	23809
846.614	23520
846.75	23398
846.886	23619
847.022	23570
847.158	23524
847.294	23520
847.429	23566
847.565	23474
847.701	23775
847.837	23212
847.972	23292
848.108	23193
848.244	23334
848.379	23204
848.515	23143
848.65	23136
848.786	23075
848.921	23075
849.057	23143
849.192	23212
849.328	23033
849.463	23083
849.598	22961
849.734	22942
849.869	22923
850.004	22904
850.14	22771
850.275	22850
850.41	22927
850.545	22801
850.68	22824
850.815	22809
850.95	22995
851.085	23033
851.22	22927
851.355	22919
851.49	22805
851.625	22847
851.76	22904
851.895	22736
852.03	22858
852.165	22774
852.299	22930
852.434	22995
852.569	22877
852.703	22847
852.838	23037
852.973	22957
853.107	22911
853.242	22790
853.376	22675
853.511	22641
853.645	22603
853.78	22786
853.914	22615
854.048	22664
854.183	22660
854.317	22706
854.451	22900
854.585	22630
854.72	22698
854.854	22828
854.988	22550
855.122	22694
855.256	22615
855.39	22660
855.524	22843
855.658	22721
855.792	22687
855.926	22596
856.06	22679
856.194	22862
856.327	22763
856.461	22679
856.595	22428
856.729	22641
856.862	22812
856.996	22755
857.13	22740
857.263	22854
857.397	22847
857.53	22645
857.664	22702
857.797	22729
857.931	22797
858.064	22759
858.197	22820
858.331	22809
858.464	22569
858.597	22462
858.731	22668
858.864	22569
858.997	22611
859.13	22740
859.263	22675
859.396	22729
859.529	22721
859.662	22668
859.795	22546
859.928	22649
860.061	22797
860.194	23014
860.327	22706
860.46	22710
860.592	22885
860.725	22790
860.858	22824
860.99	22713
861.123	22580
861.256	22554
861.388	22790
861.521	23322
861.653	22538
861.786	22440
861.918	22432
862.05	22573
862.183	22702
862.315	22603
862.447	22752
862.58	22573
862.712	22421
862.844	22405
862.976	22500
863.108	22481
863.24	22793
863.372	22272
863.504	22375
863.636	22485
863.768	22405
863.9	22325
864.032	22348
864.164	22451
864.296	22322
864.428	22485
864.559	22424
864.691	22474
864.823	22287
864.954	22363
865.086	22379
865.217	22261
865.349	22249
865.48	22181
865.612	22265
865.743	22455
865.875	22352
866.006	22234
866.137	22242
866.269	22207
866.4	22295
866.531	22219
866.662	22177
866.793	22257
866.924	22246
867.055	22238
867.186	22246
867.317	22341
867.448	22093
867.579	22318
867.71	22070
867.841	22078
867.972	22185
868.103	22265
868.233	22162
868.364	22238
868.495	22367
868.625	22493
868.756	22421
868.886	22337
869.017	22386
869.147	22580
869.278	22421
869.408	22379
869.539	22375
869.669	22508
869.799	22455
869.929	22698
870.06	22440
870.19	22744
870.32	22706
870.45	22763
870.58	22987
870.71	22877
870.84	22991
870.97	22873
871.1	22702
871.23	22965
871.36	23155
871.489	23048
871.619	22938
871.749	23033
871.879	23178
872.008	23086
872.138	22923
872.267	23083
872.397	22869
872.526	22691
872.656	22858
872.785	22919
872.915	23014
873.044	23166
873.173	23254
873.303	23060
873.432	23124
873.561	23105
873.69	23010
873.819	22949
873.948	23147
874.077	23098
874.206	22847
874.335	23018
874.464	23102
874.593	23204
874.722	23250
874.851	23379
874.979	23231
875.108	23284
875.237	23303
875.365	23147
875.494	23220
875.623	23269
875.751	23155
875.88	23227
876.008	23471
876.136	23551
876.265	23611
876.393	23729
876.521	23672
876.65	23805
876.778	23608
876.906	23619
877.034	23436
877.162	23657
877.29	23615
877.418	23592
877.546	23566
877.674	23592
877.802	23512
877.93	23570
878.058	23535
878.185	23433
878.313	23615
878.441	23649
878.568	23414
878.696	23543
878.824	23737
878.951	23756
879.079	23748
879.206	23878
879.333	23714
879.461	23505
879.588	23794
879.715	23794
879.842	23874
879.97	23691
880.097	23356
880.224	23535
880.351	23455
880.478	23425
880.605	23284
880.732	23425
880.859	23665
880.986	23436
881.112	23303
881.239	23414
881.366	23140
881.493	23159
881.619	23102
881.746	23022
881.872	23098
881.999	22972
882.125	22866
882.252	22957
882.378	22946
882.505	23128
882.631	22892
882.757	22637
882.883	22698
883.01	22660
883.136	22649
883.262	22516
883.388	22592
883.514	22596
883.64	22611
883.766	22497
883.892	22440
884.018	22508
884.143	22527
884.269	22588
884.395	22291
884.52	22329
884.646	22379
884.772	22261
884.897	22318
885.023	22223
885.148	22405
885.274	22402
885.399	22436
885.524	22261
885.65	22207
885.775	22417
885.9	22268
886.025	22360
886.15	22276
886.275	22280
886.4	22211
886.525	22238
886.65	22131
886.775	22040
886.9	22329
887.025	22500
887.149	22348
887.274	22169
887.399	22166
887.523	22013
887.648	21983
887.773	21888
887.897	22090
888.021	22051
888.146	21987
888.27	22150
888.395	22036
888.519	22074
888.643	22093
888.767	22006
888.891	21915
889.015	21831
889.139	21937
889.263	21850
889.387	21899
889.511	22128
889.635	21983
889.759	21869
889.883	21869
890.006	21770
890.13	21899
890.254	21751
890.377	21762
890.501	21496
890.624	21504
890.748	21591
890.871	21462
890.995	21382
891.118	21272
891.241	21252
891.364	21359
891.488	21443
891.611	21443
891.734	21370
891.857	21485
891.98	21355
892.103	21454
892.226	21363
892.349	21260
892.471	21199
892.594	21298
892.717	21264
892.839	21256
892.962	21222
893.085	21344
893.207	21351
893.33	21188
893.452	21226
893.575	21336
893.697	21264
893.819	21336
893.941	21504
894.064	21431
894.186	21100
894.308	21256
894.43	21291
894.552	21553
894.674	21348
894.796	21150
894.918	21081
895.04	21184
895.161	21443
895.283	21226
895.405	21028
895.526	21260
895.648	21154
895.769	21272
895.891	21188
896.012	21405
896.134	21211
896.255	21233
896.376	21199
896.498	21241
896.619	21203
896.74	21199
896.861	21321
896.982	21599
897.103	21583
897.224	21431
897.345	21397
897.466	21382
897.587	21420
897.708	21648
897.828	21416
897.949	21469
898.07	21351
898.19	21370
898.311	21553
898.431	21389
898.552	21264
898.672	21549
898.792	21431
898.913	21431
899.033	21321
899.153	21329
899.273	21173
899.393	21104
899.513	21291
899.633	21161
899.753	21291
899.873	21096
899.993	21169
900.113	21169
900.232	21203
900.352	21127
900.472	20941
900.591	20960
900.711	20826
900.83	20872
900.95	20971
901.069	21096
901.189	20804
901.308	20606
901.427	20632
901.546	20571
901.665	20587
901.784	20423
901.904	20385
902.023	20248
902.141	20039
902.26	19967
902.379	20142
902.498	20073
902.617	19947
902.735	19970
902.854	19849
902.973	20005
903.091	19651
903.21	19662
903.328	19685
903.446	19616
903.565	19403
903.683	19556
903.801	19369
903.919	19388
904.038	19499
904.156	19255
904.274	19308
904.392	19198
904.51	19080
904.627	19206
904.745	19297
904.863	19187
904.981	18973
905.098	18924
905.216	18783
905.334	18878
905.451	18890
905.569	18909
905.686	18871
905.803	18783
905.921	18639
906.038	18768
906.155	18665
906.272	18582
906.389	18475
906.506	18391
906.623	18407
906.74	18266
906.857	18308
906.974	18384
907.091	18422
907.208	18574
907.324	18445
907.441	18281
907.557	18133
907.674	18133
907.79	18026
907.907	18110
908.023	18270
908.139	18102
908.256	18019
908.372	18049
908.488	17996
908.604	17779
908.72	17870
908.836	17771
908.952	17752
909.068	17912
909.184	17847
909.3	17691
909.415	17866
909.531	17916
909.647	17642
909.762	17520
909.878	17520
909.993	17490
910.108	17383
910.224	17433
910.339	17391
910.454	17353
910.57	17391
910.685	17220
910.8	17532
910.915	17414
911.03	17315
911.145	17170
911.259	17136
911.374	17094
911.489	17014
911.604	16946
911.718	16805
911.833	16847
911.947	16782
912.062	16702
912.176	16843
912.291	16809
912.405	16805
912.519	17010
912.633	17048
912.748	16858
912.862	16744
912.976	16615
913.09	16493
913.204	16615
913.318	16668
913.431	16748
913.545	16748
913.659	16744
913.772	16603
913.886	16478
914	16447
914.113	16538
914.226	16489
914.34	16470
914.453	16299
914.566	16390
914.68	16325
914.793	16246
914.906	16074
915.019	16086
915.132	15945
915.245	16032
915.358	15975
915.47	16010
915.583	16105
915.696	16021
915.809	16109
915.921	16063
916.034	15884
916.146	15899
916.259	15892
916.371	15953
916.483	16013
916.595	15888
916.708	15747
916.82	15770
916.932	15739
917.044	15736
917.156	15679
917.268	15614
917.38	15644
917.491	15542
917.603	15667
917.715	15641
917.826	15728
917.938	15622
918.049	15447
918.161	15572
918.272	15743
918.384	15595
918.495	15473
918.606	15401
918.717	15291
918.828	15329
918.939	15485
919.05	15329
919.161	15428
919.272	15081
919.383	15211
919.494	15378
919.604	15542
919.715	15195
919.826	15252
919.936	15310
920.047	15275
920.157	15275
920.267	15393
920.378	15245
920.488	15283
920.598	15382
920.708	15587
920.818	15329
920.928	15340
921.038	15561
921.148	15523
921.258	15306
921.368	15123
921.477	15077
921.587	14998
921.697	14872
921.806	15024
921.916	14788
922.025	14765
922.134	14682
922.244	14594
922.353	14648
922.462	14545
922.571	14514
922.68	14282
922.789	14271
922.898	14358
923.007	14138
923.116	14320
923.224	14256
923.333	14195
923.442	14199
923.55	14191
923.659	14096
923.767	14077
923.876	14103
923.984	14180
924.092	14058
924.201	14024
924.309	14096
924.417	13955
924.525	13959
924.633	13887
924.741	14944
924.849	13765
924.956	13868
925.064	13719
925.172	13742
925.279	13620
925.387	13715
925.494	13700
925.602	13757
925.709	13670
925.816	13537
925.924	13677
926.031	13723
926.138	13586
926.245	13552
926.352	13563
926.459	13734
926.566	13712
926.673	13662
926.779	13518
926.886	13381
926.993	13297
927.099	13247
927.206	13232
927.312	13171
927.419	13206
927.525	13190
927.631	13324
927.737	13145
927.843	13042
927.95	12989
928.056	13137
928.162	13088
928.267	13149
928.373	13674
928.479	13080
928.585	12886
928.69	12951
928.796	12985
928.901	12871
929.007	12688
929.112	12833
929.218	12901
929.323	12741
929.428	12745
929.533	12890
929.638	12700
929.743	12730
929.848	12757
929.953	12700
930.058	12532
930.163	12376
930.267	12353
930.372	12612
930.477	12357
930.581	12604
930.685	12467
930.79	12239
930.894	12262
930.998	12175
931.103	12395
931.207	12045
931.311	12030
931.415	11893
931.519	11688
931.623	11649
