Data from test_V78500241_2811.txt Node
Date: Fri Mar 25 16:01:16 CST 2022
User: usil
Spectrometer: V785-0024
Trigger mode: 0
Integration Time (sec): 4.000000E-1
Scans to average: 1
Nonlinearity correction enabled: false
Boxcar width: 0
Storing dark spectrum: false
XAxis mode: Wavelengths
Number of Pixels in Spectrum: 1024
>>>>>Begin Spectral Data<<<<<
801.071	29064
801.214	29022
801.356	28900
801.499	28812
801.641	28611
801.783	28611
801.926	28721
802.068	28748
802.211	28584
802.353	28592
802.496	28405
802.638	28356
802.78	28363
802.923	28295
803.065	28196
803.208	28344
803.35	28436
803.492	28580
803.635	28630
803.777	28424
803.919	28611
804.061	29025
804.204	28752
804.346	28710
804.488	28497
804.63	28721
804.773	28538
804.915	28668
805.057	28717
805.199	28557
805.341	28835
805.483	28828
805.626	28812
805.768	28592
805.91	28828
806.052	28816
806.194	28858
806.336	29018
806.478	28717
806.62	28767
806.762	28919
806.904	29159
807.046	29284
807.188	29143
807.33	29258
807.472	29375
807.614	29242
807.756	29098
807.898	29227
808.04	29128
808.182	29022
808.324	29189
808.465	29044
808.607	29353
808.749	29436
808.891	29611
809.033	29490
809.174	29543
809.316	29398
809.458	29558
809.6	29406
809.741	29627
809.883	29623
810.025	29760
810.166	29862
810.308	29828
810.45	29733
810.591	29802
810.733	29665
810.875	29478
811.016	29486
811.158	29436
811.299	29752
811.441	29695
811.582	29718
811.724	29531
811.865	29402
812.007	29566
812.148	29467
812.29	29676
812.431	29771
812.573	29805
812.714	29973
812.855	30121
812.997	30174
813.138	30251
813.279	30228
813.421	30095
813.562	30060
813.703	29786
813.845	29942
813.986	29463
814.127	29315
814.268	29315
814.41	29330
814.551	29269
814.692	29288
814.833	29147
814.974	29208
815.115	29277
815.256	29193
815.397	29105
815.539	29044
815.68	29105
815.821	29223
815.962	29155
816.103	28968
816.244	29010
816.385	28999
816.526	28767
816.666	28660
816.807	28599
816.948	28668
817.089	28626
817.23	28668
817.371	28584
817.512	28470
817.653	28535
817.793	28542
817.934	28599
818.075	28577
818.216	28519
818.356	28493
818.497	28542
818.638	28394
818.778	28447
818.919	28329
819.06	28405
819.2	28432
819.341	28637
819.481	28592
819.622	28858
819.762	29037
819.903	28927
820.043	28649
820.184	28771
820.324	28755
820.465	28698
820.605	28881
820.746	28615
820.886	28398
821.026	28622
821.167	28721
821.307	28622
821.447	28683
821.588	28592
821.728	28398
821.868	28120
822.008	28032
822.149	28063
822.289	27953
822.429	27865
822.569	27819
822.709	27816
822.849	27633
822.99	27576
823.13	27534
823.27	27386
823.41	27374
823.55	27275
823.69	27443
823.83	27576
823.97	27291
824.11	27180
824.25	27062
824.389	27256
824.529	27332
824.669	27260
824.809	27359
824.949	27424
825.089	27252
825.228	27351
825.368	27047
825.508	27112
825.648	27138
825.787	27085
825.927	27195
826.067	27081
826.206	27062
826.346	27089
826.485	27302
826.625	27077
826.765	27272
826.904	27272
827.044	26902
827.183	26868
827.323	26811
827.462	27013
827.601	26929
827.741	26952
827.88	27005
828.02	26807
828.159	26807
828.298	26864
828.437	26952
828.577	26716
828.716	26940
828.855	26716
828.994	26453
829.134	26617
829.273	26568
829.412	26393
829.551	26412
829.69	26393
829.829	26499
829.968	26587
830.107	26594
830.246	26560
830.385	26530
830.524	26476
830.663	26305
830.802	26240
830.941	26100
831.08	25898
831.219	26237
831.357	26088
831.496	26377
831.635	26149
831.774	26103
831.913	26126
832.051	25928
832.19	25959
832.329	25932
832.467	25947
832.606	25818
832.744	25822
832.883	25731
833.022	25727
833.16	25674
833.299	25738
833.437	25868
833.576	25898
833.714	25890
833.852	25909
833.991	25944
834.129	25917
834.267	25989
834.406	25833
834.544	25883
834.682	25883
834.821	25902
834.959	25974
835.097	25856
835.235	25887
835.373	25936
835.511	25814
835.65	25715
835.788	25685
835.926	25479
836.064	25510
836.202	25544
836.34	25624
836.478	25693
836.615	25567
836.753	25662
836.891	25639
837.029	25727
837.167	25632
837.305	25464
837.443	25449
837.58	25609
837.718	25453
837.856	25540
837.993	25476
838.131	25548
838.269	25426
838.406	25407
838.544	25331
838.681	25088
838.819	25103
838.956	25008
839.094	24840
839.231	24856
839.369	25228
839.506	25365
839.643	25324
839.781	25061
839.918	24875
840.055	24951
840.193	24913
840.33	24806
840.467	24992
840.604	24928
840.742	25099
840.879	24726
841.016	24772
841.153	24802
841.29	24954
841.427	24894
841.564	24856
841.701	24814
841.838	24867
841.975	24700
842.112	24764
842.249	24798
842.385	24601
842.522	24939
842.659	24722
842.796	24726
842.933	24684
843.069	24639
843.206	24559
843.343	24753
843.479	24642
843.616	24696
843.752	24357
843.889	24517
844.025	24604
844.162	24437
844.298	24517
844.435	24353
844.571	24330
844.708	24441
844.844	24612
844.98	24585
845.117	24665
845.253	24475
845.389	24251
845.525	24292
845.661	24262
845.798	24163
845.934	24182
846.07	24174
846.206	24125
846.342	24456
846.478	24030
846.614	24018
846.75	23855
846.886	23805
847.022	24015
847.158	23828
847.294	23855
847.429	23954
847.565	23836
847.701	24163
847.837	23535
847.972	23600
848.108	23661
848.244	23615
848.379	23520
848.515	23551
848.65	23463
848.786	23452
848.921	23501
849.057	23684
849.192	23649
849.328	23524
849.463	23493
849.598	23547
849.734	23436
849.869	23372
850.004	23143
850.14	23311
850.275	23174
850.41	23197
850.545	23147
850.68	23143
850.815	23337
850.95	23235
851.085	23455
851.22	23280
851.355	23288
851.49	23250
851.625	23151
851.76	23178
851.895	23083
852.03	23200
852.165	23242
852.299	23181
852.434	23299
852.569	23311
852.703	23261
852.838	23292
852.973	23372
853.107	23296
853.242	23193
853.376	23181
853.511	22953
853.645	22984
853.78	23147
853.914	23006
854.048	23170
854.183	22938
854.317	23079
854.451	23265
854.585	23029
854.72	23079
854.854	23083
854.988	22984
855.122	23136
855.256	22900
855.39	22991
855.524	23147
855.658	23121
855.792	23010
855.926	22953
856.06	23075
856.194	23102
856.327	23102
856.461	22995
856.595	23041
856.729	23121
856.862	23197
856.996	22999
857.13	23105
857.263	23117
857.397	23185
857.53	23071
857.664	23102
857.797	23102
857.931	23254
858.064	23052
858.197	23261
858.331	22987
858.464	22995
858.597	23018
858.731	22949
858.864	22953
858.997	22995
859.13	23048
859.263	23064
859.396	23113
859.529	23025
859.662	23079
859.795	23109
859.928	23128
860.061	23124
860.194	23140
860.327	23079
860.46	23056
860.592	23223
860.725	23261
860.858	23124
860.99	23064
861.123	23102
861.256	22900
861.388	22987
861.521	23672
861.653	22927
861.786	22843
861.918	22908
862.05	22805
862.183	22934
862.315	22896
862.447	23041
862.58	22987
862.712	22748
862.844	22675
862.976	22805
863.108	22881
863.24	22999
863.372	22656
863.504	22736
863.636	22809
863.768	22862
863.9	22797
864.032	22637
864.164	22740
864.296	22729
864.428	22843
864.559	22763
864.691	22790
864.823	22660
864.954	22733
865.086	22622
865.217	22599
865.349	22584
865.48	22550
865.612	22546
865.743	22717
865.875	22573
866.006	22546
866.137	22615
866.269	22839
866.4	22615
866.531	22512
866.662	22519
866.793	22538
866.924	22565
867.055	22405
867.186	22607
867.317	22455
867.448	22462
867.579	22485
867.71	22440
867.841	22459
867.972	22462
868.103	22470
868.233	22607
868.364	22523
868.495	22611
868.625	22687
868.756	22831
868.886	22717
869.017	22755
869.147	22911
869.278	22835
869.408	22744
869.539	22683
869.669	22748
869.799	22854
869.929	22831
870.06	22820
870.19	23064
870.32	22896
870.45	23075
870.58	23140
870.71	23364
870.84	23280
870.97	23143
871.1	23223
871.23	23474
871.36	23433
871.489	23334
871.619	23356
871.749	23383
871.879	23360
872.008	23433
872.138	23341
872.267	23277
872.397	23322
872.526	23174
872.656	23159
872.785	23223
872.915	23444
873.044	23501
873.173	23322
873.303	23452
873.432	23402
873.561	23512
873.69	23482
873.819	23528
873.948	23471
874.077	23398
874.206	23353
874.335	23410
874.464	23436
874.593	23608
874.722	23566
874.851	23680
874.979	23767
875.108	23729
875.237	23512
875.365	23414
875.494	23566
875.623	23646
875.751	23634
875.88	23707
876.008	23767
876.136	23889
876.265	23847
876.393	24148
876.521	24152
876.65	23973
876.778	23984
876.906	23984
877.034	23954
877.162	23950
877.29	23851
877.418	24034
877.546	23901
877.674	24007
877.802	23958
877.93	23950
878.058	23897
878.185	23828
878.313	23813
878.441	23874
878.568	23703
878.696	23916
878.824	23950
878.951	23954
879.079	24270
879.206	24209
879.333	24125
879.461	23904
879.588	24057
879.715	24102
879.842	24228
879.97	24018
880.097	23832
880.224	23733
880.351	23657
880.478	23790
880.605	23710
880.732	23691
880.859	24064
880.986	23840
881.112	23726
881.239	23558
881.366	23486
881.493	23383
881.619	23277
881.746	23349
881.872	23296
881.999	23200
882.125	23212
882.252	23353
882.378	23288
882.505	23391
882.631	23056
882.757	23029
882.883	23178
883.01	23102
883.136	22984
883.262	22843
883.388	22713
883.514	22976
883.64	22965
883.766	22862
883.892	22687
884.018	22862
884.143	22812
884.269	22987
884.395	22607
884.52	22645
884.646	22596
884.772	22512
884.897	22489
885.023	22611
885.148	22713
885.274	22630
885.399	22809
885.524	22649
885.65	22683
885.775	22584
885.9	22634
886.025	22752
886.15	22694
886.275	22542
886.4	22500
886.525	22478
886.65	22466
886.775	22603
886.9	22691
887.025	22793
887.149	22512
887.274	22421
887.399	22299
887.523	22341
887.648	22295
887.773	22280
887.897	22485
888.021	22398
888.146	22337
888.27	22527
888.395	22470
888.519	22382
888.643	22344
888.767	22443
888.891	22291
889.015	22185
889.139	22272
889.263	22070
889.387	22173
889.511	22398
889.635	22314
889.759	22128
889.883	21987
890.006	22226
890.13	22192
890.254	21975
890.377	22021
890.501	21895
890.624	21846
890.748	21907
890.871	21641
890.995	21629
891.118	21705
891.241	21720
891.364	21667
891.488	21724
891.611	21660
891.734	21766
891.857	21637
891.98	21652
892.103	21713
892.226	21698
892.349	21705
892.471	21507
892.594	21641
892.717	21690
892.839	21492
892.962	21511
893.085	21587
893.207	21500
893.33	21454
893.452	21542
893.575	21591
893.697	21542
893.819	21686
893.941	21819
894.064	21724
894.186	21603
894.308	21492
894.43	21542
894.552	21743
894.674	21610
894.796	21485
894.918	21564
895.04	21557
895.161	21675
895.283	21534
895.405	21534
895.526	21511
895.648	21526
895.769	21530
895.891	21656
896.012	21652
896.134	21606
896.255	21485
896.376	21553
896.498	21496
896.619	21526
896.74	21606
896.861	21557
896.982	21808
897.103	21926
897.224	21762
897.345	21793
897.466	21728
897.587	21625
897.708	21812
897.828	21682
897.949	21629
898.07	21511
898.19	21644
898.311	21812
898.431	21709
898.552	21793
898.672	21736
898.792	21732
898.913	21603
899.033	21667
899.153	21511
899.273	21310
899.393	21367
899.513	21466
899.633	21469
899.753	21382
899.873	21382
899.993	21412
900.113	21397
900.232	21477
900.352	21321
900.472	21325
900.591	21207
900.711	21226
900.83	21169
900.95	21237
901.069	21207
901.189	21123
901.308	20895
901.427	20735
901.546	20792
901.665	20830
901.784	20739
901.904	20689
902.023	20530
902.141	20427
902.26	20362
902.379	20381
902.498	20214
902.617	20351
902.735	20240
902.854	20252
902.973	20218
903.091	19963
903.21	19879
903.328	19803
903.446	19849
903.565	19818
903.683	19890
903.801	19601
903.919	19727
904.038	19639
904.156	19445
904.274	19624
904.392	19457
904.51	19460
904.627	19415
904.745	19502
904.863	19495
904.981	19350
905.098	18981
905.216	19137
905.334	19099
905.451	19137
905.569	19202
905.686	19091
905.803	19031
905.921	18913
906.038	19053
906.155	18871
906.272	18856
906.389	18897
906.506	18726
906.623	18753
906.74	18673
906.857	18608
906.974	18460
907.091	18749
907.208	18707
907.324	18635
907.441	18494
907.557	18388
907.674	18353
907.79	18422
907.907	18334
908.023	18403
908.139	18311
908.256	18216
908.372	18194
908.488	18140
908.604	18171
908.72	18068
908.836	18053
908.952	18045
909.068	18106
909.184	18171
909.3	18083
909.415	18159
909.531	17980
909.647	17748
909.762	17878
909.878	17786
909.993	17802
910.108	17703
910.224	17809
910.339	17630
910.454	17623
910.57	17539
910.685	17516
910.8	17714
910.915	17672
911.03	17596
911.145	17368
911.259	17326
911.374	17326
911.489	17242
911.604	17258
911.718	17025
911.833	17067
911.947	17048
912.062	16923
912.176	17075
912.291	17086
912.405	17216
912.519	17341
912.633	17299
912.748	17117
912.862	17056
912.976	16999
913.09	16744
913.204	16805
913.318	16881
913.431	16927
913.545	16854
913.659	16854
913.772	16828
913.886	16778
914	16679
914.113	16778
914.226	16774
914.34	16698
914.453	16565
914.566	16649
914.68	16618
914.793	16417
914.906	16295
915.019	16299
915.132	16128
915.245	16116
915.358	16200
915.47	16196
915.583	16207
915.696	16196
915.809	16272
915.921	16390
916.034	16109
916.146	16128
916.259	16105
916.371	16177
916.483	16017
916.595	16074
916.708	15968
916.82	15975
916.932	16021
917.044	15998
917.156	15918
917.268	15911
917.38	15892
917.491	15873
917.603	15854
917.715	15915
917.826	15831
917.938	15705
918.049	15698
918.161	15778
918.272	15983
918.384	15762
918.495	15728
918.606	15637
918.717	15500
918.828	15652
918.939	15576
919.05	15424
919.161	15526
919.272	15431
919.383	15405
919.494	15610
919.604	15755
919.715	15504
919.826	15363
919.936	15496
920.047	15553
920.157	15526
920.267	15686
920.378	15439
920.488	15485
920.598	15663
920.708	15694
920.818	15595
920.928	15686
921.038	15816
921.148	15743
921.258	15435
921.368	15424
921.477	15249
921.587	15313
921.697	15089
921.806	15222
921.916	15009
922.025	14941
922.134	14861
922.244	14815
922.353	14887
922.462	14762
922.571	14750
922.68	14492
922.789	14457
922.898	14473
923.007	14431
923.116	14423
923.224	14366
923.333	14499
923.442	14370
923.55	14286
923.659	14320
923.767	14286
923.876	14282
923.984	14298
924.092	14221
924.201	14229
924.309	14153
924.417	14229
924.525	14134
924.633	14183
924.741	15074
924.849	13921
924.956	14020
925.064	13879
925.172	13909
925.279	13906
925.387	13894
925.494	13890
925.602	13978
925.709	13913
925.816	13750
925.924	13826
926.031	13822
926.138	13860
926.245	13818
926.352	13784
926.459	13883
926.566	13887
926.673	13807
926.779	13582
926.886	13643
926.993	13415
927.099	13460
927.206	13335
927.312	13343
927.419	13464
927.525	13297
927.631	13438
927.737	13362
927.843	13225
927.95	13095
928.056	13129
928.162	13164
928.267	13282
928.373	13731
928.479	13251
928.585	13072
928.69	13122
928.796	13129
928.901	13042
929.007	12856
929.112	13000
929.218	13019
929.323	12890
929.428	12810
929.533	13050
929.638	12753
929.743	12890
929.848	12867
929.953	12871
930.058	12722
930.163	12582
930.267	12635
930.372	12768
930.477	12521
930.581	12662
930.685	12601
930.79	12437
930.894	12490
930.998	12376
931.103	12456
931.207	12175
931.311	12178
931.415	11969
931.519	11874
931.623	11779
