Data from test_V78500241_668.txt Node
Date: Fri Mar 25 15:46:25 CST 2022
User: usil
Spectrometer: V785-0024
Trigger mode: 0
Integration Time (sec): 4.000000E-1
Scans to average: 1
Nonlinearity correction enabled: false
Boxcar width: 0
Storing dark spectrum: false
XAxis mode: Wavelengths
Number of Pixels in Spectrum: 1024
>>>>>Begin Spectral Data<<<<<
801.071	27310
801.214	27184
801.356	27039
801.499	26712
801.641	26800
801.783	26861
801.926	27024
802.068	26842
802.211	26613
802.353	26693
802.496	26571
802.638	26526
802.78	26522
802.923	26442
803.065	26339
803.208	26320
803.35	26415
803.492	26549
803.635	26629
803.777	26476
803.919	26644
804.061	26933
804.204	26655
804.346	26564
804.488	26461
804.63	26507
804.773	26511
804.915	26606
805.057	26731
805.199	26644
805.341	26583
805.483	26735
805.626	26689
805.768	26655
805.91	26579
806.052	26769
806.194	26629
806.336	26910
806.478	26868
806.62	26746
806.762	26872
806.904	26960
807.046	27218
807.188	27150
807.33	27070
807.472	27173
807.614	27116
807.756	27116
807.898	26994
808.04	27017
808.182	26842
808.324	26883
808.465	26979
808.607	27138
808.749	27222
808.891	27443
809.033	27443
809.174	27420
809.316	27332
809.458	27321
809.6	27256
809.741	27492
809.883	27332
810.025	27469
810.166	27572
810.308	27435
810.45	27515
810.591	27496
810.733	27359
810.875	27298
811.016	27268
811.158	27332
811.299	27549
811.441	27488
811.582	27424
811.724	27291
811.865	27287
812.007	27294
812.148	27473
812.29	27294
812.431	27420
812.573	27561
812.714	27717
812.855	27941
812.997	27953
813.138	27953
813.279	27968
813.421	27983
813.562	27759
813.703	27732
813.845	27564
813.986	27218
814.127	27020
814.268	27013
814.41	26975
814.551	26975
814.692	27089
814.833	26975
814.974	26891
815.115	27043
815.256	26864
815.397	26914
815.539	26883
815.68	26819
815.821	26758
815.962	26792
816.103	26792
816.244	26663
816.385	26476
816.526	26518
816.666	26400
816.807	26240
816.948	26358
817.089	26476
817.23	26259
817.371	26347
817.512	26237
817.653	26149
817.793	26271
817.934	26122
818.075	26206
818.216	26161
818.356	26320
818.497	26145
818.638	25887
818.778	26039
818.919	25879
819.06	26164
819.2	26187
819.341	26237
819.481	26206
819.622	26434
819.762	26552
819.903	26446
820.043	26533
820.184	26396
820.324	26366
820.465	26389
820.605	26488
820.746	26298
820.886	26206
821.026	26275
821.167	26366
821.307	26476
821.447	26351
821.588	26031
821.728	25986
821.868	25826
822.008	25731
822.149	25746
822.289	25837
822.429	25460
822.569	25434
822.709	25457
822.849	25274
822.99	25244
823.13	25202
823.27	25175
823.41	25065
823.55	24939
823.69	25012
823.83	25057
823.97	24992
824.11	24878
824.25	24901
824.389	24859
824.529	24871
824.669	24939
824.809	24852
824.949	25015
825.089	24909
825.228	24939
825.368	24738
825.508	24635
825.648	24802
825.787	24840
825.927	24844
826.067	24589
826.206	24726
826.346	24741
826.485	24859
826.625	24741
826.765	24791
826.904	24703
827.044	24353
827.183	24513
827.323	24251
827.462	24563
827.601	24456
827.741	24395
827.88	24357
828.02	24323
828.159	24258
828.298	24471
828.437	24414
828.577	24391
828.716	24525
828.855	24186
828.994	24129
829.134	24171
829.273	24057
829.412	24136
829.551	24083
829.69	24224
829.829	24186
829.968	24232
830.107	24213
830.246	24083
830.385	24034
830.524	24064
830.663	23958
830.802	23889
830.941	23627
831.08	23737
831.219	23786
831.357	23775
831.496	23961
831.635	23653
831.774	23630
831.913	23684
832.051	23566
832.19	23368
832.329	23482
832.467	23471
832.606	23330
832.744	23478
832.883	23433
833.022	23227
833.16	23471
833.299	23452
833.437	23360
833.576	23448
833.714	23421
833.852	23554
833.991	23360
834.129	23615
834.267	23551
834.406	23402
834.544	23490
834.682	23471
834.821	23440
834.959	23509
835.097	23474
835.235	23433
835.373	23486
835.511	23337
835.65	23277
835.788	23337
835.926	23151
836.064	23098
836.202	23124
836.34	23200
836.478	23467
836.615	23124
836.753	23223
836.891	23322
837.029	23326
837.167	23239
837.305	23189
837.443	23098
837.58	23269
837.718	23239
837.856	23109
837.993	23090
838.131	23022
838.269	23071
838.406	23132
838.544	23010
838.681	22790
838.819	22767
838.956	22603
839.094	22615
839.231	22622
839.369	22729
839.506	23124
839.643	22873
839.781	22573
839.918	22645
840.055	22546
840.193	22535
840.33	22649
840.467	22554
840.604	22611
840.742	22797
840.879	22459
841.016	22360
841.153	22367
841.29	22611
841.427	22481
841.564	22634
841.701	22440
841.838	22497
841.975	22421
842.112	22413
842.249	22356
842.385	22268
842.522	22611
842.659	22432
842.796	22329
842.933	22356
843.069	22272
843.206	22333
843.343	22386
843.479	22325
843.616	22322
843.752	21994
843.889	22109
844.025	22124
844.162	22021
844.298	22120
844.435	22048
844.571	21979
844.708	22067
844.844	22253
844.98	22246
845.117	22105
845.253	21960
845.389	21983
845.525	21972
845.661	21953
845.798	21770
845.934	21895
846.07	21835
846.206	21918
846.342	21808
846.478	21911
846.614	21656
846.75	21526
846.886	21549
847.022	21545
847.158	21481
847.294	21500
847.429	21641
847.565	21431
847.701	21713
847.837	21211
847.972	21298
848.108	21431
848.244	21348
848.379	21169
848.515	21157
848.65	21154
848.786	21184
848.921	21062
849.057	21283
849.192	21214
849.328	21161
849.463	21100
849.598	21108
849.734	21032
849.869	21032
850.004	20891
850.14	20941
850.275	20933
850.41	20868
850.545	20785
850.68	20815
850.815	20830
850.95	20899
851.085	20944
851.22	20971
851.355	21036
851.49	20929
851.625	20944
851.76	20906
851.895	20667
852.03	20807
852.165	21005
852.299	20880
852.434	21024
852.569	20845
852.703	20967
852.838	21036
852.973	20994
853.107	20979
853.242	20815
853.376	20849
853.511	20629
853.645	20720
853.78	20815
853.914	20727
854.048	20750
854.183	20701
854.317	20678
854.451	20948
854.585	20804
854.72	20781
854.854	20853
854.988	20682
855.122	20663
855.256	20511
855.39	20769
855.524	20826
855.658	20659
855.792	20731
855.926	20758
856.06	20762
856.194	20743
856.327	20640
856.461	20724
856.595	20716
856.729	20663
856.862	20826
856.996	20777
857.13	20861
857.263	20750
857.397	20769
857.53	20693
857.664	20682
857.797	20800
857.931	20796
858.064	20651
858.197	20887
858.331	20746
858.464	20788
858.597	20629
858.731	20686
858.864	20701
858.997	20701
859.13	20746
859.263	20678
859.396	20762
859.529	20857
859.662	20670
859.795	20678
859.928	20762
860.061	20864
860.194	20883
860.327	20807
860.46	20731
860.592	20921
860.725	20948
860.858	20868
860.99	20826
861.123	20705
861.256	20568
861.388	20743
861.521	21313
861.653	20632
861.786	20484
861.918	20609
862.05	20511
862.183	20655
862.315	20701
862.447	20754
862.58	20594
862.712	20507
862.844	20317
862.976	20476
863.108	20419
863.24	20807
863.372	20358
863.504	20385
863.636	20575
863.768	20575
863.9	20400
864.032	20385
864.164	20476
864.296	20423
864.428	20480
864.559	20450
864.691	20488
864.823	20545
864.954	20446
865.086	20446
865.217	20355
865.349	20229
865.48	20347
865.612	20385
865.743	20590
865.875	20362
866.006	20298
866.137	20396
866.269	20393
866.4	20438
866.531	20263
866.662	20248
866.793	20263
866.924	20328
867.055	20214
867.186	20408
867.317	20221
867.448	20210
867.579	20233
867.71	20161
867.841	20168
867.972	20393
868.103	20355
868.233	20320
868.364	20286
868.495	20347
868.625	20427
868.756	20636
868.886	20412
869.017	20537
869.147	20689
869.278	20636
869.408	20598
869.539	20598
869.669	20655
869.799	20670
869.929	20705
870.06	20594
870.19	20826
870.32	20758
870.45	20834
870.58	20853
870.71	21104
870.84	21131
870.97	20937
871.1	20967
871.23	21093
871.36	21100
871.489	21116
871.619	21100
871.749	21070
871.879	21203
872.008	21211
872.138	21146
872.267	21169
872.397	20902
872.526	20868
872.656	20990
872.785	20918
872.915	21135
873.044	21233
873.173	21195
873.303	21207
873.432	21214
873.561	21211
873.69	21218
873.819	21119
873.948	21313
874.077	21192
874.206	21001
874.335	21260
874.464	21370
874.593	21363
874.722	21313
874.851	21344
874.979	21424
875.108	21466
875.237	21378
875.365	21336
875.494	21340
875.623	21447
875.751	21359
875.88	21363
876.008	21519
876.136	21561
876.265	21762
876.393	21816
876.521	21918
876.65	21892
876.778	21701
876.906	21759
877.034	21595
877.162	21793
877.29	21580
877.418	21785
877.546	21793
877.674	21618
877.802	21732
877.93	21759
878.058	21835
878.185	21618
878.313	21755
878.441	21732
878.568	21572
878.696	21679
878.824	21857
878.951	21759
879.079	21899
879.206	22093
879.333	21899
879.461	21759
879.588	21766
879.715	21915
879.842	21968
879.97	21812
880.097	21591
880.224	21466
880.351	21458
880.478	21625
880.605	21504
880.732	21587
880.859	21865
880.986	21644
881.112	21724
881.239	21435
881.366	21321
881.493	21230
881.619	21192
881.746	21256
881.872	21245
881.999	21123
882.125	21024
882.252	21222
882.378	20979
882.505	21252
882.631	21096
882.757	20849
882.883	21062
883.01	20834
883.136	20788
883.262	20689
883.388	20667
883.514	20807
883.64	20826
883.766	20792
883.892	20727
884.018	20674
884.143	20815
884.269	20971
884.395	20670
884.52	20484
884.646	20514
884.772	20313
884.897	20446
885.023	20476
885.148	20579
885.274	20648
885.399	20560
885.524	20560
885.65	20549
885.775	20503
885.9	20465
886.025	20552
886.15	20571
886.275	20454
886.4	20434
886.525	20560
886.65	20320
886.775	20431
886.9	20518
887.025	20754
887.149	20454
887.274	20377
887.399	20294
887.523	20183
887.648	20271
887.773	20134
887.897	20336
888.021	20343
888.146	20195
888.27	20415
888.395	20450
888.519	20446
888.643	20370
888.767	20309
888.891	20290
889.015	20119
889.139	20134
889.263	20024
889.387	20084
889.511	20347
889.635	20046
889.759	19921
889.883	20027
890.006	20210
890.13	20058
890.254	20020
890.377	20008
890.501	19772
890.624	19795
890.748	19947
890.871	19597
890.995	19620
891.118	19685
891.241	19632
891.364	19746
891.488	19731
891.611	19788
891.734	19738
891.857	19776
891.98	19788
892.103	19670
892.226	19582
892.349	19715
892.471	19449
892.594	19495
892.717	19609
892.839	19704
892.962	19620
893.085	19681
893.207	19609
893.33	19476
893.452	19521
893.575	19689
893.697	19552
893.819	19696
893.941	19761
894.064	19734
894.186	19537
894.308	19434
894.43	19628
894.552	19689
894.674	19674
894.796	19540
894.918	19464
895.04	19552
895.161	19731
895.283	19639
895.405	19628
895.526	19655
895.648	19540
895.769	19548
895.891	19639
896.012	19658
896.134	19708
896.255	19677
896.376	19544
896.498	19674
896.619	19601
896.74	19449
896.861	19723
896.982	19982
897.103	19997
897.224	19944
897.345	19780
897.466	19795
897.587	19852
897.708	19940
897.828	19780
897.949	19753
898.07	19719
898.19	19860
898.311	19963
898.431	19830
898.552	19776
898.672	19822
898.792	19917
898.913	19864
899.033	19727
899.153	19651
899.273	19491
899.393	19548
899.513	19624
899.633	19609
899.753	19616
899.873	19434
899.993	19674
900.113	19441
900.232	19746
900.352	19529
900.472	19403
900.591	19331
900.711	19422
900.83	19373
900.95	19525
901.069	19499
901.189	19384
901.308	18966
901.427	18924
901.546	18947
901.665	19050
901.784	19019
901.904	18863
902.023	18825
902.141	18585
902.26	18559
902.379	18741
902.498	18528
902.617	18437
902.735	18498
902.854	18483
902.973	18460
903.091	18251
903.21	18152
903.328	18201
903.446	18091
903.565	17931
903.683	17920
903.801	17878
903.919	17916
904.038	17885
904.156	17805
904.274	17874
904.392	17707
904.51	17828
904.627	17779
904.745	17680
904.863	17729
904.981	17482
905.098	17444
905.216	17322
905.334	17448
905.451	17486
905.569	17334
905.686	17398
905.803	17410
905.921	17197
906.038	17303
906.155	17151
906.272	17151
906.389	17086
906.506	17006
906.623	17037
906.74	16934
906.857	16915
906.974	16839
907.091	17060
907.208	17075
907.324	16911
907.441	16752
907.557	16729
907.674	16634
907.79	16634
907.907	16580
908.023	16668
908.139	16668
908.256	16660
908.372	16592
908.488	16592
908.604	16318
908.72	16455
908.836	16379
908.952	16287
909.068	16474
909.184	16402
909.3	16363
909.415	16428
909.531	16428
909.647	16082
909.762	16063
909.878	16109
909.993	16101
910.108	16097
910.224	16150
910.339	16029
910.454	16029
910.57	15926
910.685	15945
910.8	16135
910.915	16093
911.03	15972
911.145	15739
911.259	15679
911.374	15751
911.489	15549
911.604	15629
911.718	15481
911.833	15504
911.947	15367
912.062	15291
912.176	15477
912.291	15530
912.405	15454
912.519	15732
912.633	15622
912.748	15469
912.862	15428
912.976	15355
913.09	15252
913.204	15252
913.318	15272
913.431	15294
913.545	15313
913.659	15443
913.772	15192
913.886	15104
914	15001
914.113	15195
914.226	15150
914.34	15184
914.453	14929
914.566	15131
914.68	14975
914.793	14948
914.906	14853
915.019	14640
915.132	14659
915.245	14746
915.358	14701
915.47	14739
915.583	14682
915.696	14686
915.809	14819
915.921	14807
916.034	14716
916.146	14610
916.259	14541
916.371	14613
916.483	14697
916.595	14560
916.708	14579
916.82	14613
916.932	14545
917.044	14434
917.156	14484
917.268	14298
917.38	14419
917.491	14374
917.603	14339
917.715	14374
917.826	14465
917.938	14320
918.049	14218
918.161	14385
918.272	14537
918.384	14465
918.495	14320
918.606	14172
918.717	14043
918.828	14168
918.939	14100
919.05	14123
919.161	14149
919.272	13875
919.383	14024
919.494	14149
919.604	14259
919.715	14164
919.826	14001
919.936	14050
920.047	14020
920.157	14225
920.267	14294
920.378	14126
920.488	14058
920.598	14320
920.708	14457
920.818	14313
920.928	14290
921.038	14339
921.148	14358
921.258	14134
921.368	13955
921.477	13852
921.587	13772
921.697	13761
921.806	13860
921.916	13761
922.025	13575
922.134	13480
922.244	13464
922.353	13556
922.462	13381
922.571	13392
922.68	13171
922.789	13160
922.898	13137
923.007	13061
923.116	13156
923.224	13160
923.333	13141
923.442	13088
923.55	13000
923.659	12981
923.767	13137
923.876	12985
923.984	13031
924.092	12878
924.201	12928
924.309	12989
924.417	12977
924.525	12802
924.633	12867
924.741	13681
924.849	12677
924.956	12802
925.064	12681
925.172	12536
925.279	12654
925.387	12654
925.494	12601
925.602	12772
925.709	12612
925.816	12483
925.924	12509
926.031	12612
926.138	12525
926.245	12612
926.352	12426
926.459	12631
926.566	12635
926.673	12437
926.779	12357
926.886	12441
926.993	12239
927.099	12106
927.206	12205
927.312	12114
927.419	12106
927.525	12178
927.631	12167
927.737	12117
927.843	12049
927.95	11965
928.056	11977
928.162	11984
928.267	12034
928.373	12696
928.479	12136
928.585	11851
928.69	12030
928.796	11961
928.901	11939
929.007	11783
929.112	11912
929.218	11874
929.323	11737
929.428	11714
929.533	11817
929.638	11691
929.743	11726
929.848	11737
929.953	11779
930.058	11668
930.163	11497
930.267	11520
930.372	11566
930.477	11429
930.581	11638
930.685	11368
930.79	11258
930.894	11318
930.998	11315
931.103	11383
931.207	11098
931.311	10896
931.415	11029
931.519	10755
931.623	10725
