Data from test_V78500241_428.txt Node
Date: Fri Mar 25 15:44:45 CST 2022
User: usil
Spectrometer: V785-0024
Trigger mode: 0
Integration Time (sec): 4.000000E-1
Scans to average: 1
Nonlinearity correction enabled: false
Boxcar width: 0
Storing dark spectrum: false
XAxis mode: Wavelengths
Number of Pixels in Spectrum: 1024
>>>>>Begin Spectral Data<<<<<
801.071	28508
801.214	28493
801.356	28310
801.499	28185
801.641	28078
801.783	28074
801.926	28166
802.068	27945
802.211	27854
802.353	27892
802.496	27622
802.638	27671
802.78	27720
802.923	27644
803.065	27591
803.208	27553
803.35	27633
803.492	27914
803.635	27884
803.777	27762
803.919	27819
804.061	28082
804.204	27918
804.346	27816
804.488	27675
804.63	27770
804.773	27736
804.915	27728
805.057	27808
805.199	27865
805.341	27808
805.483	27899
805.626	27911
805.768	27747
805.91	27930
806.052	27914
806.194	27793
806.336	28154
806.478	28067
806.62	27800
806.762	28032
806.904	28196
807.046	28527
807.188	28363
807.33	28272
807.472	28333
807.614	28169
807.756	28135
807.898	28287
808.04	28128
808.182	28036
808.324	28211
808.465	28124
808.607	28424
808.749	28478
808.891	28668
809.033	28649
809.174	28679
809.316	28447
809.458	28599
809.6	28455
809.741	28596
809.883	28725
810.025	28839
810.166	28748
810.308	28820
810.45	28713
810.591	28946
810.733	28561
810.875	28401
811.016	28417
811.158	28398
811.299	28679
811.441	28717
811.582	28683
811.724	28504
811.865	28523
812.007	28356
812.148	28588
812.29	28561
812.431	28713
812.573	28869
812.714	28862
812.855	28896
812.997	29071
813.138	29242
813.279	29102
813.421	29151
813.562	28965
813.703	28809
813.845	28729
813.986	28421
814.127	28382
814.268	28306
814.41	28173
814.551	28242
814.692	28322
814.833	28017
814.974	28188
815.115	28169
815.256	28044
815.397	27953
815.539	28090
815.68	27941
815.821	27861
815.962	27960
816.103	27937
816.244	27835
816.385	27663
816.526	27656
816.666	27526
816.807	27325
816.948	27504
817.089	27610
817.23	27481
817.371	27534
817.512	27439
817.653	27515
817.793	27367
817.934	27363
818.075	27340
818.216	27477
818.356	27424
818.497	27264
818.638	27032
818.778	27119
818.919	27123
819.06	27264
819.2	27374
819.341	27329
819.481	27203
819.622	27416
819.762	27572
819.903	27515
820.043	27599
820.184	27393
820.324	27500
820.465	27496
820.605	27549
820.746	27355
820.886	27386
821.026	27534
821.167	27306
821.307	27382
821.447	27504
821.588	27389
821.728	27157
821.868	26925
822.008	26845
822.149	26746
822.289	26674
822.429	26503
822.569	26518
822.709	26469
822.849	26343
822.99	26240
823.13	26271
823.27	26240
823.41	26126
823.55	25947
823.69	26103
823.83	26084
823.97	26062
824.11	25928
824.25	25799
824.389	26001
824.529	26001
824.669	26005
824.809	26039
824.949	25963
825.089	26054
825.228	25947
825.368	25643
825.508	25814
825.648	25795
825.787	25947
825.927	25894
826.067	25704
826.206	25662
826.346	25921
826.485	25753
826.625	25845
826.765	25860
826.904	25776
827.044	25689
827.183	25556
827.323	25430
827.462	25472
827.601	25422
827.741	25407
827.88	25597
828.02	25278
828.159	25377
828.298	25308
828.437	25499
828.577	25354
828.716	25483
828.855	25335
828.994	25076
829.134	25080
829.273	25274
829.412	25122
829.551	25084
829.69	25061
829.829	25015
829.968	25251
830.107	25221
830.246	25072
830.385	25057
830.524	24981
830.663	24882
830.802	24745
830.941	24715
831.08	24707
831.219	24738
831.357	24821
831.496	24825
831.635	24745
831.774	24604
831.913	24635
832.051	24490
832.19	24372
832.329	24467
832.467	24369
832.606	24201
832.744	24399
832.883	24292
833.022	24266
833.16	24357
833.299	24289
833.437	24308
833.576	24429
833.714	24399
833.852	24357
833.991	24372
834.129	24498
834.267	24433
834.406	24330
834.544	24346
834.682	24281
834.821	24384
834.959	24346
835.097	24403
835.235	24395
835.373	24319
835.511	24197
835.65	24117
835.788	24209
835.926	24167
836.064	24117
836.202	24076
836.34	24129
836.478	24342
836.615	24224
836.753	24311
836.891	24422
837.029	24186
837.167	24224
837.305	24068
837.443	24011
837.58	24083
837.718	24076
837.856	23965
837.993	23973
838.131	24057
838.269	23824
838.406	24034
838.544	23893
838.681	23684
838.819	23638
838.956	23493
839.094	23429
839.231	23573
839.369	23608
839.506	23958
839.643	23851
839.781	23524
839.918	23467
840.055	23376
840.193	23406
840.33	23364
840.467	23455
840.604	23330
840.742	23741
840.879	23185
841.016	23250
841.153	23299
841.29	23311
841.427	23372
841.564	23433
841.701	23421
841.838	23330
841.975	23223
842.112	23231
842.249	23147
842.385	23056
842.522	23360
842.659	23117
842.796	23102
842.933	23094
843.069	23010
843.206	23029
843.343	23067
843.479	23014
843.616	23037
843.752	22839
843.889	22854
844.025	23174
844.162	22755
844.298	22908
844.435	22733
844.571	22721
844.708	22858
844.844	23064
844.98	22797
845.117	22927
845.253	22881
845.389	22702
845.525	22713
845.661	22717
845.798	22519
845.934	22660
846.07	22516
846.206	22630
846.342	22759
846.478	22618
846.614	22405
846.75	22173
846.886	22291
847.022	22303
847.158	22268
847.294	22341
847.429	22325
847.565	22253
847.701	22504
847.837	21956
847.972	21934
848.108	22051
848.244	22063
848.379	21960
848.515	21937
848.65	21812
848.786	21899
848.921	21873
849.057	21945
849.192	22040
849.328	21895
849.463	21838
849.598	21793
849.734	21861
849.869	21736
850.004	21663
850.14	21739
850.275	21629
850.41	21553
850.545	21652
850.68	21538
850.815	21648
850.95	21515
851.085	21816
851.22	21667
851.355	21709
851.49	21576
851.625	21637
851.76	21511
851.895	21751
852.03	21572
852.165	21637
852.299	21770
852.434	21698
852.569	21675
852.703	21633
852.838	21641
852.973	21736
853.107	21701
853.242	21587
853.376	21481
853.511	21355
853.645	21310
853.78	21542
853.914	21416
854.048	21287
854.183	21511
854.317	21424
854.451	21648
854.585	21507
854.72	21591
854.854	21561
854.988	21416
855.122	21424
855.256	21317
855.39	21389
855.524	21504
855.658	21412
855.792	21488
855.926	21462
856.06	21462
856.194	21709
856.327	21488
856.461	21450
856.595	21420
856.729	21603
856.862	21663
856.996	21511
857.13	21549
857.263	21553
857.397	21542
857.53	21424
857.664	21340
857.797	21458
857.931	21526
858.064	21485
858.197	21530
858.331	21397
858.464	21405
858.597	21294
858.731	21306
858.864	21424
858.997	21329
859.13	21363
859.263	21458
859.396	21549
859.529	21382
859.662	21473
859.795	21420
859.928	21386
860.061	21534
860.194	21641
860.327	21458
860.46	21450
860.592	21603
860.725	21496
860.858	21526
860.99	21504
861.123	21310
861.256	21302
861.388	21420
861.521	22109
861.653	21367
861.786	21195
861.918	21298
862.05	21260
862.183	21382
862.315	21382
862.447	21538
862.58	21428
862.712	21112
862.844	21100
862.976	21245
863.108	21169
863.24	21701
863.372	21157
863.504	21062
863.636	21230
863.768	21237
863.9	21108
864.032	20986
864.164	21100
864.296	21218
864.428	21233
864.559	21233
864.691	21135
864.823	21047
864.954	21077
865.086	21085
865.217	21074
865.349	20994
865.48	21043
865.612	21112
865.743	21142
865.875	21032
866.006	20948
866.137	21062
866.269	20925
866.4	21055
866.531	20906
866.662	20933
866.793	20899
866.924	21024
867.055	21055
867.186	20952
867.317	20921
867.448	20933
867.579	20868
867.71	20849
867.841	20845
867.972	20944
868.103	20823
868.233	21020
868.364	20887
868.495	21051
868.625	21119
868.756	21294
868.886	21077
869.017	21089
869.147	21291
869.278	21359
869.408	21188
869.539	21077
869.669	21313
869.799	21104
869.929	21329
870.06	21294
870.19	21500
870.32	21580
870.45	21667
870.58	21606
870.71	21812
870.84	21599
870.97	21591
871.1	21454
871.23	21751
871.36	21739
871.489	21652
871.619	21766
871.749	21644
871.879	21873
872.008	21850
872.138	21739
872.267	21743
872.397	21705
872.526	21568
872.656	21671
872.785	21530
872.915	21778
873.044	21838
873.173	21717
873.303	21934
873.432	21911
873.561	21926
873.69	21819
873.819	21926
873.948	21934
874.077	21842
874.206	21736
874.335	21778
874.464	21876
874.593	22051
874.722	22040
874.851	22032
874.979	22040
875.108	22040
875.237	21934
875.365	21934
875.494	21907
875.623	21922
875.751	22021
875.88	22017
876.008	22219
876.136	22272
876.265	22348
876.393	22462
876.521	22451
876.65	22523
876.778	22523
876.906	22398
877.034	22265
877.162	22379
877.29	22333
877.418	22409
877.546	22352
877.674	22432
877.802	22257
877.93	22371
878.058	22253
878.185	22230
878.313	22337
878.441	22360
878.568	22207
878.696	22253
878.824	22455
878.951	22497
879.079	22580
879.206	22706
879.333	22607
879.461	22421
879.588	22398
879.715	22497
879.842	22622
879.97	22371
880.097	22128
880.224	22249
880.351	22128
880.478	22147
880.605	22158
880.732	22162
880.859	22405
880.986	22147
881.112	22185
881.239	22116
881.366	21873
881.493	21949
881.619	21778
881.746	21705
881.872	21789
881.999	21762
882.125	21762
882.252	21781
882.378	21724
882.505	21892
882.631	21629
882.757	21439
882.883	21614
883.01	21412
883.136	21462
883.262	21466
883.388	21367
883.514	21462
883.64	21572
883.766	21336
883.892	21321
884.018	21268
884.143	21386
884.269	21500
884.395	21199
884.52	21036
884.646	21108
884.772	21142
884.897	21093
885.023	21055
885.148	21214
885.274	21207
885.399	21230
885.524	21081
885.65	21199
885.775	21066
885.9	20998
886.025	21230
886.15	21123
886.275	21146
886.4	21127
886.525	21043
886.65	21138
886.775	20967
886.9	21237
887.025	21329
887.149	20975
887.274	20823
887.399	20826
887.523	20864
887.648	20777
887.773	20689
887.897	20990
888.021	20864
888.146	20868
888.27	20925
888.395	20952
888.519	20807
888.643	20785
888.767	20857
888.891	20773
889.015	20640
889.139	20720
889.263	20670
889.387	20769
889.511	20929
889.635	20644
889.759	20587
889.883	20697
890.006	20568
890.13	20750
890.254	20579
890.377	20473
890.501	20393
890.624	20423
890.748	20503
890.871	20320
890.995	20244
891.118	20122
891.241	20286
891.364	20377
891.488	20278
891.611	20271
891.734	20168
891.857	20237
891.98	20313
892.103	20305
892.226	20324
892.349	20199
892.471	20012
892.594	20005
892.717	20157
892.839	20240
892.962	20092
893.085	20149
893.207	20088
893.33	20149
893.452	20164
893.575	20157
893.697	20168
893.819	20366
893.941	20286
894.064	20298
894.186	20046
894.308	20069
894.43	20100
894.552	20244
894.674	20263
894.796	20096
894.918	20145
895.04	20100
895.161	20206
895.283	20168
895.405	20107
895.526	20183
895.648	20103
895.769	20183
895.891	20084
896.012	20248
896.134	20195
896.255	20111
896.376	20122
896.498	20248
896.619	20233
896.74	20149
896.861	20286
896.982	20419
897.103	20549
897.224	20480
897.345	20229
897.466	20377
897.587	20442
897.708	20480
897.828	20370
897.949	20267
898.07	20305
898.19	20221
898.311	20473
898.431	20305
898.552	20396
898.672	20362
898.792	20381
898.913	20278
899.033	20252
899.153	20084
899.273	20027
899.393	20130
899.513	20187
899.633	20206
899.753	20126
899.873	20062
899.993	19993
900.113	20035
900.232	20107
900.352	19921
900.472	19883
900.591	19803
900.711	19963
900.83	19875
900.95	20016
901.069	19883
901.189	19761
901.308	19601
901.427	19426
901.546	19499
901.665	19662
901.784	19525
901.904	19278
902.023	19263
902.141	19099
902.26	18962
902.379	19027
902.498	18958
902.617	19012
902.735	19034
902.854	19061
902.973	18973
903.091	18616
903.21	18635
903.328	18688
903.446	18498
903.565	18380
903.683	18445
903.801	18353
903.919	18300
904.038	18437
904.156	18300
904.274	18296
904.392	18224
904.51	18213
904.627	18197
904.745	18235
904.863	18243
904.981	17999
905.098	17893
905.216	17950
905.334	17912
905.451	17920
905.569	17931
905.686	17824
905.803	17813
905.921	17783
906.038	17646
906.155	17608
906.272	17577
906.389	17619
906.506	17402
906.623	17326
906.74	17280
906.857	17261
906.974	17273
907.091	17410
907.208	17482
907.324	17429
907.441	17258
907.557	17136
907.674	17143
907.79	17052
907.907	17086
908.023	17246
908.139	17090
908.256	17022
908.372	16980
908.488	17018
908.604	16908
908.72	16881
908.836	16824
908.952	16831
909.068	16797
909.184	16858
909.3	16850
909.415	16752
909.531	16729
909.647	16512
909.762	16569
909.878	16519
909.993	16512
910.108	16508
910.224	16519
910.339	16398
910.454	16352
910.57	16272
910.685	16295
910.8	16546
910.915	16577
911.03	16253
911.145	16143
911.259	16097
911.374	16128
911.489	15975
911.604	15945
911.718	15880
911.833	15888
911.947	15759
912.062	15698
912.176	15876
912.291	15816
912.405	15804
912.519	16036
912.633	16032
912.748	15922
912.862	15732
912.976	15652
913.09	15564
913.204	15568
913.318	15610
913.431	15701
913.545	15648
913.659	15709
913.772	15530
913.886	15393
914	15428
914.113	15523
914.226	15473
914.34	15591
914.453	15264
914.566	15530
914.68	15359
914.793	15401
914.906	15161
915.019	15062
915.132	15009
915.245	15062
915.358	15028
915.47	15116
915.583	15017
915.696	15100
915.809	15192
915.921	15135
916.034	14925
916.146	14948
916.259	14895
916.371	15089
916.483	15032
916.595	14925
916.708	14937
916.82	14849
916.932	14918
917.044	14792
917.156	14864
917.268	14754
917.38	14651
917.491	14724
917.603	14724
917.715	14765
917.826	14849
917.938	14587
918.049	14560
918.161	14659
918.272	14765
918.384	14792
918.495	14678
918.606	14518
918.717	14370
918.828	14454
918.939	14495
919.05	14385
919.161	14377
919.272	14259
919.383	14332
919.494	14575
919.604	14648
919.715	14343
919.826	14328
919.936	14469
920.047	14514
920.157	14434
920.267	14537
920.378	14450
920.488	14408
920.598	14583
920.708	14689
920.818	14552
920.928	14564
921.038	14823
921.148	14640
921.258	14393
921.368	14313
921.477	14187
921.587	14111
921.697	14081
921.806	14084
921.916	13925
922.025	13864
922.134	13734
922.244	13734
922.353	13856
922.462	13666
922.571	13715
922.68	13521
922.789	13415
922.898	13460
923.007	13430
923.116	13483
923.224	13350
923.333	13365
923.442	13244
923.55	13324
923.659	13266
923.767	13354
923.876	13164
923.984	13228
924.092	13149
924.201	13190
924.309	13114
924.417	13160
924.525	13122
924.633	13095
924.741	13833
924.849	12859
924.956	13160
925.064	12958
925.172	12814
925.279	12886
925.387	12924
925.494	12924
925.602	12985
925.709	12859
925.816	12814
925.924	12783
926.031	12882
926.138	12840
926.245	12757
926.352	12681
926.459	12760
926.566	12844
926.673	12776
926.779	12650
926.886	12650
926.993	12525
927.099	12456
927.206	12410
927.312	12410
927.419	12460
927.525	12338
927.631	12452
927.737	12311
927.843	12239
927.95	12190
928.056	12262
928.162	12350
928.267	12330
928.373	12905
928.479	12266
928.585	12049
928.69	12136
928.796	12327
928.901	12110
929.007	11942
929.112	12114
929.218	12083
929.323	12022
929.428	11996
929.533	12041
929.638	11870
929.743	11980
929.848	11961
929.953	11946
930.058	11878
930.163	11733
930.267	11821
930.372	11794
930.477	11615
930.581	11840
930.685	11684
930.79	11505
930.894	11573
930.998	11543
931.103	11661
931.207	11242
931.311	11189
931.415	11071
931.519	10930
931.623	10930
