Data from test_V78500241_3177.txt Node
Date: Fri Mar 25 16:03:48 CST 2022
User: usil
Spectrometer: V785-0024
Trigger mode: 0
Integration Time (sec): 4.000000E-1
Scans to average: 1
Nonlinearity correction enabled: false
Boxcar width: 0
Storing dark spectrum: false
XAxis mode: Wavelengths
Number of Pixels in Spectrum: 1024
>>>>>Begin Spectral Data<<<<<
801.071	28710
801.214	28752
801.356	28379
801.499	28344
801.641	28169
801.783	28276
801.926	28177
802.068	28219
802.211	28162
802.353	28017
802.496	27972
802.638	27888
802.78	27865
802.923	27690
803.065	27781
803.208	27747
803.35	27914
803.492	28112
803.635	28093
803.777	27998
803.919	28051
804.061	28417
804.204	28128
804.346	28040
804.488	27994
804.63	27953
804.773	28109
804.915	28067
805.057	28169
805.199	28082
805.341	28265
805.483	28188
805.626	28284
805.768	28211
805.91	28150
806.052	28268
806.194	28234
806.336	28436
806.478	28177
806.62	28322
806.762	28459
806.904	28641
807.046	28892
807.188	28717
807.33	28675
807.472	28843
807.614	28637
807.756	28721
807.898	28561
808.04	28516
808.182	28478
808.324	28470
808.465	28683
808.607	28942
808.749	28968
808.891	29010
809.033	29197
809.174	29067
809.316	28949
809.458	28854
809.6	28888
809.741	29181
809.883	29143
810.025	29379
810.166	29254
810.308	29227
810.45	29147
810.591	29220
810.733	29037
810.875	29052
811.016	28820
811.158	28900
811.299	29048
811.441	29056
811.582	29216
811.724	28927
811.865	28934
812.007	28961
812.148	28923
812.29	28987
812.431	29288
812.573	29414
812.714	29391
812.855	29592
812.997	29627
813.138	29726
813.279	29604
813.421	29459
813.562	29482
813.703	29356
813.845	29204
813.986	29048
814.127	28755
814.268	28713
814.41	28850
814.551	28599
814.692	28869
814.833	28546
814.974	28634
815.115	28672
815.256	28615
815.397	28573
815.539	28603
815.68	28424
815.821	28344
815.962	28538
816.103	28550
816.244	28459
816.385	28276
816.526	28382
816.666	28169
816.807	27899
816.948	27937
817.089	28097
817.23	28055
817.371	27937
817.512	27930
817.653	27926
817.793	27903
817.934	27926
818.075	28150
818.216	27937
818.356	27964
818.497	27892
818.638	27675
818.778	27804
818.919	27759
819.06	27766
819.2	27892
819.341	27972
819.481	27926
819.622	28120
819.762	28303
819.903	28382
820.043	28185
820.184	28150
820.324	28162
820.465	28242
820.605	28128
820.746	28097
820.886	28044
821.026	28017
821.167	28036
821.307	28150
821.447	27941
821.588	27778
821.728	27831
821.868	27644
822.008	27526
822.149	27378
822.289	27462
822.429	27302
822.569	27165
822.709	27154
822.849	27017
822.99	26998
823.13	26929
823.27	26998
823.41	26895
823.55	26762
823.69	26800
823.83	26815
823.97	26921
824.11	26682
824.25	26549
824.389	26552
824.529	26549
824.669	26571
824.809	26724
824.949	26731
825.089	26686
825.228	26659
825.368	26632
825.508	26514
825.648	26503
825.787	26537
825.927	26587
826.067	26457
826.206	26412
826.346	26503
826.485	26632
826.625	26518
826.765	26518
826.904	26499
827.044	26313
827.183	26267
827.323	26214
827.462	26336
827.601	26229
827.741	26351
827.88	26320
828.02	26195
828.159	26157
828.298	26252
828.437	26195
828.577	26199
828.716	26298
828.855	26202
828.994	25909
829.134	25879
829.273	25944
829.412	26039
829.551	25784
829.69	26020
829.829	26016
829.968	25947
830.107	25997
830.246	25928
830.385	25951
830.524	25799
830.663	25776
830.802	25651
830.941	25487
831.08	25358
831.219	25582
831.357	25712
831.496	25662
831.635	25613
831.774	25415
831.913	25350
832.051	25331
832.19	25377
832.329	25365
832.467	25232
832.606	25038
832.744	25114
832.883	25148
833.022	25259
833.16	25198
833.299	25187
833.437	25126
833.576	25263
833.714	25255
833.852	25365
833.991	25293
834.129	25430
834.267	25343
834.406	25289
834.544	25369
834.682	25289
834.821	25240
834.959	25358
835.097	25282
835.235	25346
835.373	25198
835.511	25289
835.65	25091
835.788	25152
835.926	24920
836.064	24962
836.202	24928
836.34	25046
836.478	25247
836.615	25141
836.753	25129
836.891	25148
837.029	25057
837.167	25057
837.305	24966
837.443	24916
837.58	25031
837.718	25019
837.856	24905
837.993	24768
838.131	24954
838.269	24730
838.406	24791
838.544	24802
838.681	24475
838.819	24631
838.956	24338
839.094	24475
839.231	24467
839.369	24525
839.506	24696
839.643	24582
839.781	24448
839.918	24361
840.055	24353
840.193	24281
840.33	24323
840.467	24323
840.604	24304
840.742	24547
840.879	24201
841.016	24258
841.153	24129
841.29	24289
841.427	24247
841.564	24319
841.701	24334
841.838	24228
841.975	24232
842.112	24201
842.249	24182
842.385	24133
842.522	24239
842.659	24110
842.796	23969
842.933	24011
843.069	23935
843.206	24045
843.343	24110
843.479	24091
843.616	23996
843.752	23809
843.889	23874
844.025	23992
844.162	23783
844.298	23889
844.435	23843
844.571	23760
844.708	23882
844.844	23980
844.98	23954
845.117	24015
845.253	23798
845.389	23843
845.525	23733
845.661	23714
845.798	23585
845.934	23562
846.07	23630
846.206	23524
846.342	23695
846.478	23539
846.614	23307
846.75	23284
846.886	23299
847.022	23292
847.158	23246
847.294	23220
847.429	23341
847.565	23235
847.701	23528
847.837	22942
847.972	22984
848.108	23117
848.244	23193
848.379	22831
848.515	22919
848.65	22869
848.786	22900
848.921	22900
849.057	22987
849.192	22957
849.328	22961
849.463	22896
849.598	22946
849.734	22790
849.869	22786
850.004	22550
850.14	22641
850.275	22660
850.41	22489
850.545	22748
850.68	22637
850.815	22710
850.95	22611
851.085	22752
851.22	22649
851.355	22630
851.49	22717
851.625	22512
851.76	22569
851.895	22489
852.03	22516
852.165	22702
852.299	22702
852.434	22668
852.569	22679
852.703	22615
852.838	22615
852.973	22660
853.107	22809
853.242	22565
853.376	22508
853.511	22424
853.645	22432
853.78	22542
853.914	22436
854.048	22417
854.183	22394
854.317	22637
854.451	22637
854.585	22523
854.72	22394
854.854	22538
854.988	22447
855.122	22470
855.256	22310
855.39	22428
855.524	22474
855.658	22466
855.792	22561
855.926	22554
856.06	22588
856.194	22470
856.327	22508
856.461	22455
856.595	22333
856.729	22481
856.862	22523
856.996	22531
857.13	22508
857.263	22546
857.397	22523
857.53	22394
857.664	22500
857.797	22516
857.931	22573
858.064	22440
858.197	22550
858.331	22352
858.464	22352
858.597	22360
858.731	22356
858.864	22443
858.997	22440
859.13	22542
859.263	22466
859.396	22341
859.529	22451
859.662	22284
859.795	22413
859.928	22481
860.061	22607
860.194	22641
860.327	22615
860.46	22470
860.592	22523
860.725	22607
860.858	22592
860.99	22474
861.123	22413
861.256	22371
861.388	22493
861.521	23334
861.653	22382
861.786	22424
861.918	22299
862.05	22318
862.183	22356
862.315	22455
862.447	22531
862.58	22265
862.712	22101
862.844	22116
862.976	22276
863.108	22207
863.24	22611
863.372	22230
863.504	22135
863.636	22211
863.768	22181
863.9	22109
864.032	22070
864.164	22105
864.296	22131
864.428	22322
864.559	22306
864.691	22295
864.823	22238
864.954	22177
865.086	22143
865.217	22029
865.349	21998
865.48	22048
865.612	22002
865.743	22082
865.875	22021
866.006	21949
866.137	21979
866.269	21953
866.4	21987
866.531	21907
866.662	21945
866.793	22048
866.924	22029
867.055	22090
867.186	21991
867.317	21903
867.448	21880
867.579	21934
867.71	21759
867.841	21960
867.972	22013
868.103	22044
868.233	22021
868.364	22048
868.495	21987
868.625	22177
868.756	22299
868.886	22154
869.017	22131
869.147	22306
869.278	22386
869.408	22223
869.539	22154
869.669	22192
869.799	22375
869.929	22303
870.06	22329
870.19	22500
870.32	22440
870.45	22489
870.58	22592
870.71	22672
870.84	22687
870.97	22618
871.1	22569
871.23	22755
871.36	22820
871.489	22615
871.619	22790
871.749	22782
871.879	22896
872.008	22949
872.138	22843
872.267	22816
872.397	22634
872.526	22755
872.656	22694
872.785	22622
872.915	22812
873.044	22999
873.173	22881
873.303	22812
873.432	22919
873.561	23006
873.69	22934
873.819	22869
873.948	22938
874.077	22793
874.206	22812
874.335	22831
874.464	23037
874.593	23113
874.722	23033
874.851	23189
874.979	23044
875.108	23193
875.237	23010
875.365	23105
875.494	23018
875.623	23071
875.751	23067
875.88	23060
876.008	23147
876.136	23181
876.265	23455
876.393	23440
876.521	23573
876.65	23554
876.778	23497
876.906	23509
877.034	23471
877.162	23429
877.29	23379
877.418	23387
877.546	23463
877.674	23406
877.802	23398
877.93	23376
878.058	23307
878.185	23250
878.313	23391
878.441	23318
878.568	23136
878.696	23311
878.824	23330
878.951	23478
879.079	23611
879.206	23623
879.333	23493
879.461	23478
879.588	23478
879.715	23581
879.842	23653
879.97	23547
880.097	23227
880.224	23170
880.351	23197
880.478	23197
880.605	23071
880.732	23280
880.859	23452
880.986	23330
881.112	23212
881.239	23121
881.366	22957
881.493	22763
881.619	22809
881.746	22748
881.872	22710
881.999	22763
882.125	22691
882.252	22873
882.378	22744
882.505	22805
882.631	22603
882.757	22451
882.883	22653
883.01	22405
883.136	22443
883.262	22379
883.388	22367
883.514	22474
883.64	22417
883.766	22485
883.892	22234
884.018	22188
884.143	22329
884.269	22523
884.395	22154
884.52	22109
884.646	21998
884.772	21895
884.897	21918
885.023	22010
885.148	22135
885.274	22238
885.399	22196
885.524	22029
885.65	22044
885.775	22036
885.9	22128
886.025	22109
886.15	22093
886.275	21975
886.4	22021
886.525	22051
886.65	21956
886.775	22002
886.9	22177
887.025	22204
887.149	21983
887.274	21876
887.399	21778
887.523	21823
887.648	21850
887.773	21778
887.897	21960
888.021	21876
888.146	21717
888.27	21884
888.395	21949
888.519	21835
888.643	21819
888.767	21865
888.891	21869
889.015	21610
889.139	21732
889.263	21644
889.387	21603
889.511	21789
889.635	21751
889.759	21652
889.883	21599
890.006	21622
890.13	21694
890.254	21561
890.377	21648
890.501	21378
890.624	21332
890.748	21568
890.871	21325
890.995	21237
891.118	21119
891.241	21211
891.364	21161
891.488	21195
891.611	21260
891.734	21127
891.857	21252
891.98	21173
892.103	21154
892.226	21066
892.349	21169
892.471	21077
892.594	21020
892.717	21142
892.839	21085
892.962	21089
893.085	21089
893.207	21047
893.33	20891
893.452	21077
893.575	21112
893.697	21100
893.819	21138
893.941	21264
894.064	21252
894.186	20998
894.308	20941
894.43	21017
894.552	21218
894.674	21131
894.796	20994
894.918	21085
895.04	20971
895.161	21154
895.283	21058
895.405	20975
895.526	20948
895.648	20990
895.769	21058
895.891	21161
896.012	21127
896.134	21142
896.255	21146
896.376	21135
896.498	20990
896.619	21074
896.74	21138
896.861	21161
896.982	21310
897.103	21473
897.224	21332
897.345	21192
897.466	21256
897.587	21298
897.708	21416
897.828	21321
897.949	21245
898.07	21043
898.19	21249
898.311	21252
898.431	21195
898.552	21207
898.672	21294
898.792	21291
898.913	21203
899.033	21081
899.153	21154
899.273	20990
899.393	20853
899.513	21009
899.633	20952
899.753	21055
899.873	20887
899.993	21043
900.113	20906
900.232	21032
900.352	20906
900.472	20842
900.591	20731
900.711	20800
900.83	20781
900.95	20792
901.069	20765
901.189	20712
901.308	20385
901.427	20298
901.546	20191
901.665	20286
901.784	20305
901.904	20119
902.023	20077
902.141	19833
902.26	19822
902.379	19925
902.498	19970
902.617	19734
902.735	19902
902.854	19791
902.973	19696
903.091	19491
903.21	19529
903.328	19449
903.446	19464
903.565	19354
903.683	19221
903.801	19194
903.919	19293
904.038	19187
904.156	19057
904.274	19114
904.392	19034
904.51	19004
904.627	19076
904.745	19069
904.863	19118
904.981	18890
905.098	18669
905.216	18749
905.334	18734
905.451	18764
905.569	18745
905.686	18760
905.803	18711
905.921	18578
906.038	18589
906.155	18494
906.272	18433
906.389	18441
906.506	18239
906.623	18311
906.74	18197
906.857	18117
906.974	18144
907.091	18277
907.208	18445
907.324	18182
907.441	18136
907.557	18034
907.674	17843
907.79	17882
907.907	17878
908.023	17923
908.139	17977
908.256	17843
908.372	17969
908.488	17783
908.604	17695
908.72	17661
908.836	17608
908.952	17638
909.068	17684
909.184	17680
909.3	17611
909.415	17680
909.531	17611
909.647	17315
909.762	17311
909.878	17410
909.993	17368
910.108	17334
910.224	17250
910.339	17265
910.454	17143
910.57	17227
910.685	17056
910.8	17372
910.915	17231
911.03	17170
911.145	17029
911.259	16873
911.374	16968
911.489	16774
911.604	16793
911.718	16672
911.833	16660
911.947	16527
912.062	16493
912.176	16668
912.291	16736
912.405	16683
912.519	16915
912.633	16839
912.748	16656
912.862	16694
912.976	16504
913.09	16402
913.204	16424
913.318	16569
913.431	16573
913.545	16542
913.659	16519
913.772	16497
913.886	16398
914	16207
914.113	16402
914.226	16409
914.34	16325
914.453	16173
914.566	16306
914.68	16185
914.793	16143
914.906	15903
915.019	15842
915.132	15800
915.245	15781
915.358	15960
915.47	15823
915.583	15888
915.696	15869
915.809	15915
915.921	16059
916.034	15789
916.146	15622
916.259	15781
916.371	15823
916.483	15854
916.595	15603
916.708	15614
916.82	15736
916.932	15584
917.044	15557
917.156	15545
917.268	15462
917.38	15561
917.491	15466
917.603	15462
917.715	15553
917.826	15637
917.938	15367
918.049	15291
918.161	15348
918.272	15511
918.384	15584
918.495	15378
918.606	15325
918.717	15112
918.828	15264
918.939	15401
919.05	15199
919.161	15233
919.272	15013
919.383	15097
919.494	15317
919.604	15500
919.715	15192
919.826	15119
919.936	15169
920.047	15260
920.157	15180
920.267	15348
920.378	15260
920.488	15127
920.598	15294
920.708	15443
920.818	15336
920.928	15226
921.038	15382
921.148	15325
921.258	15009
921.368	15119
921.477	14941
921.587	14929
921.697	14765
921.806	14895
921.916	14804
922.025	14583
922.134	14446
922.244	14419
922.353	14606
922.462	14450
922.571	14377
922.68	14191
922.789	14206
922.898	14195
923.007	14081
923.116	14161
923.224	14157
923.333	14126
923.442	14062
923.55	14001
923.659	13997
923.767	13967
923.876	13856
923.984	14039
924.092	13799
924.201	13906
924.309	13909
924.417	13917
924.525	13780
924.633	13928
924.741	14716
924.849	13537
924.956	13708
925.064	13594
925.172	13384
925.279	13521
925.387	13521
925.494	13491
925.602	13658
925.709	13586
925.816	13453
925.924	13460
926.031	13563
926.138	13487
926.245	13559
926.352	13388
926.459	13373
926.566	13472
926.673	13453
926.779	13285
926.886	13221
926.993	13156
927.099	13141
927.206	13034
927.312	13122
927.419	13122
927.525	13069
927.631	13251
927.737	13008
927.843	12943
927.95	12810
928.056	12890
928.162	12939
928.267	12966
928.373	13525
928.479	12943
928.585	12711
928.69	12935
928.796	12935
928.901	12707
929.007	12589
929.112	12684
929.218	12741
929.323	12612
929.428	12646
929.533	12814
929.638	12574
929.743	12593
929.848	12616
929.953	12513
930.058	12502
930.163	12243
930.267	12243
930.372	12399
930.477	12319
930.581	12437
930.685	12258
930.79	12129
930.894	12247
930.998	12136
931.103	12308
931.207	11885
931.311	11805
931.415	11710
931.519	11543
931.623	11467
