Data from test_V78500241_3402.txt Node
Date: Fri Mar 25 16:05:22 CST 2022
User: usil
Spectrometer: V785-0024
Trigger mode: 0
Integration Time (sec): 4.000000E-1
Scans to average: 1
Nonlinearity correction enabled: false
Boxcar width: 0
Storing dark spectrum: false
XAxis mode: Wavelengths
Number of Pixels in Spectrum: 1024
>>>>>Begin Spectral Data<<<<<
801.071	28637
801.214	28683
801.356	28409
801.499	28363
801.641	28375
801.783	28322
801.926	28246
802.068	28341
802.211	28181
802.353	28234
802.496	28013
802.638	27903
802.78	27926
802.923	27949
803.065	27774
803.208	27914
803.35	28063
803.492	28185
803.635	28188
803.777	28051
803.919	28131
804.061	28424
804.204	28120
804.346	28150
804.488	28032
804.63	28105
804.773	28246
804.915	28112
805.057	28333
805.199	28337
805.341	28238
805.483	28398
805.626	28219
805.768	28280
805.91	28363
806.052	28223
806.194	28223
806.336	28462
806.478	28341
806.62	28447
806.762	28443
806.904	28713
807.046	28816
807.188	28767
807.33	28771
807.472	28816
807.614	28656
807.756	28790
807.898	28504
808.04	28481
808.182	28691
808.324	28637
808.465	28748
808.607	28866
808.749	29018
808.891	29185
809.033	29212
809.174	29033
809.316	29010
809.458	29086
809.6	28923
809.741	29155
809.883	29204
810.025	29379
810.166	29452
810.308	29326
810.45	29105
810.591	29239
810.733	29064
810.875	28961
811.016	28900
811.158	28930
811.299	28965
811.441	29113
811.582	29079
811.724	28976
811.865	28999
812.007	29052
812.148	29075
812.29	29174
812.431	29189
812.573	29307
812.714	29478
812.855	29551
812.997	29707
813.138	29714
813.279	29764
813.421	29459
813.562	29638
813.703	29303
813.845	29337
813.986	29048
814.127	28797
814.268	28839
814.41	28733
814.551	28805
814.692	28763
814.833	28691
814.974	28675
815.115	28729
815.256	28577
815.397	28660
815.539	28641
815.68	28538
815.821	28401
815.962	28546
816.103	28596
816.244	28375
816.385	28200
816.526	28333
816.666	28181
816.807	27907
816.948	28196
817.089	28040
817.23	28093
817.371	27953
817.512	28025
817.653	27975
817.793	28086
817.934	27987
818.075	28059
818.216	28067
818.356	28036
818.497	27968
818.638	27800
818.778	27808
818.919	27831
819.06	27857
819.2	27994
819.341	28101
819.481	27956
819.622	28139
819.762	28424
819.903	28375
820.043	28257
820.184	28158
820.324	28207
820.465	28253
820.605	28150
820.746	28158
820.886	27907
821.026	28124
821.167	27968
821.307	28181
821.447	28048
821.588	27953
821.728	27941
821.868	27751
822.008	27523
822.149	27530
822.289	27393
822.429	27195
822.569	27260
822.709	27279
822.849	27089
822.99	27093
823.13	26967
823.27	26918
823.41	26933
823.55	26765
823.69	26823
823.83	26811
823.97	26876
824.11	26617
824.25	26590
824.389	26568
824.529	26731
824.669	26785
824.809	26724
824.949	26804
825.089	26743
825.228	26705
825.368	26450
825.508	26514
825.648	26629
825.787	26724
825.927	26651
826.067	26636
826.206	26556
826.346	26609
826.485	26621
826.625	26484
826.765	26758
826.904	26632
827.044	26450
827.183	26362
827.323	26237
827.462	26366
827.601	26438
827.741	26259
827.88	26275
828.02	26001
828.159	26290
828.298	26237
828.437	26381
828.577	26050
828.716	26301
828.855	26317
828.994	26016
829.134	26122
829.273	26084
829.412	26016
829.551	25944
829.69	25970
829.829	26046
829.968	26062
830.107	26016
830.246	25978
830.385	25944
830.524	25951
830.663	25822
830.802	25677
830.941	25727
831.08	25620
831.219	25601
831.357	25750
831.496	25826
831.635	25578
831.774	25571
831.913	25438
832.051	25377
832.19	25369
832.329	25282
832.467	25403
832.606	25183
832.744	25259
832.883	25221
833.022	25247
833.16	25285
833.299	25308
833.437	25266
833.576	25377
833.714	25244
833.852	25327
833.991	25415
834.129	25392
834.267	25411
834.406	25312
834.544	25392
834.682	25441
834.821	25270
834.959	25632
835.097	25190
835.235	25278
835.373	25255
835.511	25320
835.65	25088
835.788	25129
835.926	25084
836.064	24970
836.202	25114
836.34	25091
836.478	25202
836.615	25129
836.753	25183
836.891	25194
837.029	25175
837.167	25046
837.305	25156
837.443	24992
837.58	24924
837.718	24935
837.856	25000
837.993	24966
838.131	24924
838.269	24859
838.406	24837
838.544	24886
838.681	24604
838.819	24532
838.956	24551
839.094	24566
839.231	24589
839.369	24669
839.506	24821
839.643	24570
839.781	24505
839.918	24517
840.055	24475
840.193	24384
840.33	24235
840.467	24464
840.604	24498
840.742	24559
840.879	24232
841.016	24308
841.153	24243
841.29	24380
841.427	24342
841.564	24319
841.701	24197
841.838	24270
841.975	24167
842.112	24277
842.249	24121
842.385	24091
842.522	24300
842.659	24167
842.796	24076
842.933	24098
843.069	24121
843.206	23996
843.343	24197
843.479	24102
843.616	24174
843.752	23843
843.889	23946
844.025	24114
844.162	23904
844.298	23824
844.435	23939
844.571	23893
844.708	23840
844.844	24083
844.98	24026
845.117	23973
845.253	23832
845.389	23805
845.525	23855
845.661	23756
845.798	23592
845.934	23851
846.07	23573
846.206	23668
846.342	23703
846.478	23646
846.614	23455
846.75	23258
846.886	23318
847.022	23372
847.158	23478
847.294	23356
847.429	23455
847.565	23296
847.701	23452
847.837	23060
847.972	23052
848.108	23037
848.244	23064
848.379	22961
848.515	22892
848.65	22923
848.786	22885
848.921	22968
849.057	22980
849.192	22965
849.328	22923
849.463	22972
849.598	22759
849.734	22774
849.869	22828
850.004	22801
850.14	22733
850.275	22778
850.41	22596
850.545	22649
850.68	22668
850.815	22744
850.95	22736
851.085	22908
851.22	22915
851.355	22698
851.49	22615
851.625	22679
851.76	22649
851.895	22584
852.03	22538
852.165	22710
852.299	22603
852.434	22778
852.569	22702
852.703	22752
852.838	22816
852.973	22828
853.107	22782
853.242	22634
853.376	22531
853.511	22443
853.645	22493
853.78	22615
853.914	22660
854.048	22436
854.183	22500
854.317	22409
854.451	22733
854.585	22550
854.72	22485
854.854	22542
854.988	22516
855.122	22531
855.256	22489
855.39	22478
855.524	22649
855.658	22424
855.792	22474
855.926	22497
856.06	22516
856.194	22527
856.327	22489
856.461	22398
856.595	22459
856.729	22485
856.862	22500
856.996	22588
857.13	22470
857.263	22607
857.397	22481
857.53	22542
857.664	22569
857.797	22634
857.931	22683
858.064	22489
858.197	22599
858.331	22542
858.464	22447
858.597	22455
858.731	22478
858.864	22504
858.997	22508
859.13	22386
859.263	22504
859.396	22584
859.529	22535
859.662	22398
859.795	22474
859.928	22664
860.061	22546
860.194	22717
860.327	22455
860.46	22470
860.592	22736
860.725	22694
860.858	22603
860.99	22512
861.123	22466
861.256	22523
861.388	22481
861.521	23395
861.653	22375
861.786	22356
861.918	22341
862.05	22276
862.183	22303
862.315	22447
862.447	22527
862.58	22504
862.712	22280
862.844	22162
862.976	22360
863.108	22333
863.24	22793
863.372	22253
863.504	22230
863.636	22234
863.768	22188
863.9	22246
864.032	22082
864.164	22230
864.296	22242
864.428	22211
864.559	22120
864.691	22352
864.823	22135
864.954	22230
865.086	22287
865.217	22093
865.349	22013
865.48	22070
865.612	22025
865.743	22135
865.875	22078
866.006	22090
866.137	22032
866.269	22131
866.4	22021
866.531	21915
866.662	22055
866.793	22006
866.924	22063
867.055	22169
867.186	22070
867.317	22021
867.448	21865
867.579	22021
867.71	21956
867.841	21876
867.972	22025
868.103	22021
868.233	21983
868.364	21926
868.495	22093
868.625	22185
868.756	22306
868.886	22242
869.017	22249
869.147	22348
869.278	22352
869.408	22356
869.539	22265
869.669	22303
869.799	22287
869.929	22341
870.06	22394
870.19	22493
870.32	22664
870.45	22664
870.58	22706
870.71	22713
870.84	22759
870.97	22596
871.1	22645
871.23	22778
871.36	22911
871.489	22793
871.619	22866
871.749	22953
871.879	22946
872.008	22755
872.138	22847
872.267	22828
872.397	22816
872.526	22812
872.656	22801
872.785	22683
872.915	22942
873.044	23052
873.173	22786
873.303	22877
873.432	22957
873.561	23086
873.69	22908
873.819	22744
873.948	23079
874.077	22942
874.206	22862
874.335	22889
874.464	23010
874.593	23037
874.722	22976
874.851	23197
874.979	23128
875.108	23178
875.237	23014
875.365	22961
875.494	23105
875.623	23178
875.751	22911
875.88	23117
876.008	23284
876.136	23299
876.265	23570
876.393	23577
876.521	23547
876.65	23570
876.778	23474
876.906	23463
877.034	23406
877.162	23440
877.29	23448
877.418	23444
877.546	23334
877.674	23455
877.802	23478
877.93	23562
878.058	23410
878.185	23250
878.313	23391
878.441	23406
878.568	23261
878.696	23353
878.824	23459
878.951	23433
879.079	23627
879.206	23668
879.333	23512
879.461	23528
879.588	23543
879.715	23638
879.842	23760
879.97	23657
880.097	23368
880.224	23318
880.351	23360
880.478	23204
880.605	23212
880.732	23140
880.859	23463
880.986	23311
881.112	23250
881.239	23071
881.366	22976
881.493	22839
881.619	22835
881.746	22896
881.872	22797
881.999	22869
882.125	22748
882.252	22850
882.378	22793
882.505	22873
882.631	22706
882.757	22519
882.883	22694
883.01	22474
883.136	22424
883.262	22337
883.388	22299
883.514	22535
883.64	22519
883.766	22371
883.892	22280
884.018	22169
884.143	22405
884.269	22440
884.395	22181
884.52	22120
884.646	22299
884.772	22162
884.897	22105
885.023	22090
885.148	22284
885.274	22162
885.399	22291
885.524	22173
885.65	22082
885.775	22051
885.9	22166
886.025	22169
886.15	22230
886.275	21987
886.4	22070
886.525	22207
886.65	22048
886.775	22074
886.9	22177
887.025	22234
887.149	22006
887.274	21945
887.399	21838
887.523	21899
887.648	21778
887.773	21899
887.897	22017
888.021	21880
888.146	21713
888.27	22036
888.395	22086
888.519	21994
888.643	22013
888.767	21930
888.891	21739
889.015	21732
889.139	21698
889.263	21564
889.387	21686
889.511	21926
889.635	21694
889.759	21648
889.883	21648
890.006	21667
890.13	21762
890.254	21583
890.377	21622
890.501	21466
890.624	21496
890.748	21458
890.871	21260
890.995	21184
891.118	21252
891.241	21310
891.364	21237
891.488	21355
891.611	21386
891.734	21218
891.857	21203
891.98	21161
892.103	21306
892.226	21226
892.349	21116
892.471	21154
892.594	21165
892.717	21165
892.839	21188
892.962	21237
893.085	21116
893.207	21157
893.33	20891
893.452	20925
893.575	21146
893.697	21043
893.819	21188
893.941	21363
894.064	21176
894.186	20971
894.308	20952
894.43	21188
894.552	21146
894.674	21089
894.796	21058
894.918	21032
895.04	21055
895.161	21173
895.283	21123
895.405	20967
895.526	21142
895.648	21036
895.769	21108
895.891	21085
896.012	21123
896.134	21089
896.255	21047
896.376	21017
896.498	21077
896.619	21077
896.74	21074
896.861	21169
896.982	21458
897.103	21504
897.224	21325
897.345	21294
897.466	21184
897.587	21233
897.708	21298
897.828	21321
897.949	21230
898.07	21211
898.19	21211
898.311	21348
898.431	21142
898.552	21188
898.672	21431
898.792	21184
898.913	21207
899.033	21241
899.153	21089
899.273	20967
899.393	21028
899.513	21058
899.633	20990
899.753	20990
899.873	20998
899.993	21066
900.113	20994
900.232	20990
900.352	20990
900.472	20769
900.591	20792
900.711	20864
900.83	20758
900.95	20823
901.069	20910
901.189	20659
901.308	20492
901.427	20377
901.546	20259
901.665	20404
901.784	20377
901.904	20225
902.023	20088
902.141	19898
902.26	19818
902.379	19974
902.498	19875
902.617	19807
902.735	19803
902.854	19856
902.973	19712
903.091	19472
903.21	19529
903.328	19525
903.446	19441
903.565	19396
903.683	19362
903.801	19362
903.919	19259
904.038	19289
904.156	19004
904.274	19133
904.392	19053
904.51	19072
904.627	19072
904.745	19156
904.863	18951
904.981	18882
905.098	18722
905.216	18741
905.334	18791
905.451	18825
905.569	18783
905.686	18806
905.803	18703
905.921	18437
906.038	18681
906.155	18506
906.272	18460
906.389	18365
906.506	18281
906.623	18319
906.74	18270
906.857	18174
906.974	18125
907.091	18315
907.208	18456
907.324	18197
907.441	18136
907.557	17946
907.674	17939
907.79	17999
907.907	18015
908.023	18041
908.139	17980
908.256	17973
908.372	17779
908.488	17809
908.604	17813
908.72	17748
908.836	17684
908.952	17592
909.068	17668
909.184	17847
909.3	17608
909.415	17729
909.531	17589
909.647	17356
909.762	17440
909.878	17322
909.993	17414
910.108	17349
910.224	17353
910.339	17273
910.454	17200
910.57	17277
910.685	17105
910.8	17398
910.915	17379
911.03	17147
911.145	17025
911.259	17014
911.374	16915
911.489	16904
911.604	16839
911.718	16740
911.833	16710
911.947	16569
912.062	16489
912.176	16748
912.291	16656
912.405	16675
912.519	16786
912.633	16957
912.748	16828
912.862	16577
912.976	16531
913.09	16592
913.204	16409
913.318	16481
913.431	16542
913.545	16481
913.659	16622
913.772	16584
913.886	16402
914	16246
914.113	16443
914.226	16432
914.34	16424
914.453	16166
914.566	16276
914.68	16162
914.793	16021
914.906	16036
915.019	15907
915.132	15831
915.245	15869
915.358	15770
915.47	15899
915.583	15884
915.696	15884
915.809	16048
915.921	16013
916.034	15804
916.146	15861
916.259	15766
916.371	15884
916.483	15888
916.595	15713
916.708	15728
916.82	15686
916.932	15625
917.044	15633
917.156	15633
917.268	15568
917.38	15705
917.491	15534
917.603	15561
917.715	15606
917.826	15580
917.938	15549
918.049	15428
918.161	15485
918.272	15587
918.384	15564
918.495	15412
918.606	15302
918.717	15138
918.828	15222
918.939	15310
919.05	15214
919.161	15173
919.272	15024
919.383	15043
919.494	15192
919.604	15450
919.715	15211
919.826	15203
919.936	15119
920.047	15173
920.157	15108
920.267	15386
920.378	15138
920.488	15127
920.598	15378
920.708	15443
920.818	15237
920.928	15264
921.038	15549
921.148	15443
921.258	15154
921.368	15043
921.477	15001
921.587	14929
921.697	14845
921.806	14948
921.916	14758
922.025	14549
922.134	14587
922.244	14598
922.353	14632
922.462	14495
922.571	14278
922.68	14366
922.789	14183
922.898	14229
923.007	14176
923.116	14210
923.224	14214
923.333	14088
923.442	14088
923.55	13947
923.659	13997
923.767	13993
923.876	13970
923.984	14039
924.092	13898
924.201	13879
924.309	13906
924.417	13967
924.525	13811
924.633	13883
924.741	14701
924.849	13643
924.956	13822
925.064	13578
925.172	13514
925.279	13544
925.387	13518
925.494	13609
925.602	13708
925.709	13575
925.816	13434
925.924	13696
926.031	13556
926.138	13483
926.245	13537
926.352	13392
926.459	13559
926.566	13529
926.673	13411
926.779	13312
926.886	13350
926.993	13198
927.099	13164
927.206	13031
927.312	13107
927.419	13168
927.525	13137
927.631	13187
927.737	12996
927.843	12966
927.95	12821
928.056	12935
928.162	12985
928.267	13004
928.373	13476
928.479	12962
928.585	12768
928.69	12852
928.796	12890
928.901	12783
929.007	12635
929.112	12776
929.218	12730
929.323	12627
929.428	12703
929.533	12787
929.638	12593
929.743	12498
929.848	12551
929.953	12582
930.058	12437
930.163	12247
930.267	12365
930.372	12380
930.477	12232
930.581	12483
930.685	12330
930.79	12194
930.894	12159
930.998	12186
931.103	12369
931.207	11973
931.311	11863
931.415	11718
931.519	11665
931.623	11509
