Data from test_V78500241_1109.txt Node
Date: Fri Mar 25 15:49:29 CST 2022
User: usil
Spectrometer: V785-0024
Trigger mode: 0
Integration Time (sec): 4.000000E-1
Scans to average: 1
Nonlinearity correction enabled: false
Boxcar width: 0
Storing dark spectrum: false
XAxis mode: Wavelengths
Number of Pixels in Spectrum: 1024
>>>>>Begin Spectral Data<<<<<
801.071	28527
801.214	28485
801.356	28166
801.499	28230
801.641	28006
801.783	28040
801.926	28166
802.068	28143
802.211	27979
802.353	27956
802.496	27850
802.638	27804
802.78	27789
802.923	27732
803.065	27701
803.208	27694
803.35	27911
803.492	27816
803.635	28086
803.777	27759
803.919	28029
804.061	28329
804.204	28013
804.346	27949
804.488	27876
804.63	27873
804.773	27819
804.915	28040
805.057	28105
805.199	27953
805.341	28196
805.483	28063
805.626	28185
805.768	28067
805.91	28135
806.052	28112
806.194	28154
806.336	28424
806.478	28173
806.62	28169
806.762	28303
806.904	28375
807.046	28531
807.188	28573
807.33	28607
807.472	28694
807.614	28588
807.756	28622
807.898	28466
808.04	28333
808.182	28325
808.324	28428
808.465	28535
808.607	28637
808.749	28850
808.891	28892
809.033	28896
809.174	28816
809.316	28816
809.458	28752
809.6	28744
809.741	28786
809.883	28900
810.025	29090
810.166	29102
810.308	29155
810.45	29200
810.591	29048
810.733	28717
810.875	28885
811.016	28839
811.158	28797
811.299	28987
811.441	29048
811.582	29022
811.724	28888
811.865	28759
812.007	28771
812.148	28984
812.29	28858
812.431	29056
812.573	29197
812.714	29197
812.855	29292
812.997	29490
813.138	29611
813.279	29570
813.421	29444
813.562	29174
813.703	29162
813.845	29105
813.986	28824
814.127	28634
814.268	28542
814.41	28698
814.551	28580
814.692	28634
814.833	28588
814.974	28596
815.115	28596
815.256	28519
815.397	28394
815.539	28443
815.68	28401
815.821	28249
815.962	28462
816.103	28466
816.244	28257
816.385	28204
816.526	28181
816.666	27972
816.807	27644
816.948	27972
817.089	27994
817.23	27975
817.371	27888
817.512	27861
817.653	27972
817.793	27835
817.934	27857
818.075	27892
818.216	27983
818.356	27842
818.497	27846
818.638	27705
818.778	27606
818.919	27728
819.06	27591
819.2	27724
819.341	27755
819.481	27819
819.622	27953
819.762	28177
819.903	28128
820.043	27956
820.184	28036
820.324	28219
820.465	28135
820.605	27983
820.746	27895
820.886	27880
821.026	27812
821.167	28025
821.307	28090
821.447	27842
821.588	27717
821.728	27793
821.868	27412
822.008	27447
822.149	27454
822.289	27279
822.429	27085
822.569	26956
822.709	26944
822.849	26853
822.99	26823
823.13	26937
823.27	26914
823.41	26705
823.55	26541
823.69	26765
823.83	26857
823.97	26724
824.11	26507
824.25	26457
824.389	26465
824.529	26590
824.669	26579
824.809	26686
824.949	26796
825.089	26609
825.228	26552
825.368	26431
825.508	26355
825.648	26438
825.787	26259
825.927	26484
826.067	26389
826.206	26415
826.346	26465
826.485	26480
826.625	26248
826.765	26476
826.904	26526
827.044	26218
827.183	26130
827.323	26161
827.462	26195
827.601	26103
827.741	26115
827.88	26046
828.02	26031
828.159	26100
828.298	26142
828.437	26206
828.577	25940
828.716	26164
828.855	26069
828.994	25772
829.134	25772
829.273	25909
829.412	25685
829.551	25696
829.69	25868
829.829	25928
829.968	25845
830.107	25826
830.246	25776
830.385	25776
830.524	25689
830.663	25487
830.802	25514
830.941	25381
831.08	25434
831.219	25426
831.357	25578
831.496	25624
831.635	25400
831.774	25377
831.913	25164
832.051	25266
832.19	25179
832.329	25247
832.467	25187
832.606	25015
832.744	25061
832.883	25103
833.022	25080
833.16	25145
833.299	25095
833.437	25053
833.576	25236
833.714	25088
833.852	25126
833.991	25179
834.129	25164
834.267	25293
834.406	25236
834.544	25110
834.682	25179
834.821	25171
834.959	25304
835.097	24932
835.235	25095
835.373	25103
835.511	25088
835.65	24814
835.788	25050
835.926	24928
836.064	24795
836.202	24859
836.34	24966
836.478	25133
836.615	24981
836.753	24935
836.891	25057
837.029	24947
837.167	24973
837.305	24833
837.443	24848
837.58	24764
837.718	24776
837.856	24840
837.993	24764
838.131	24741
838.269	24741
838.406	24741
838.544	24597
838.681	24536
838.819	24437
838.956	24350
839.094	24220
839.231	24270
839.369	24380
839.506	24654
839.643	24407
839.781	24308
839.918	24224
840.055	24148
840.193	24148
840.33	24091
840.467	24152
840.604	24270
840.742	24498
840.879	24049
841.016	24045
841.153	23958
841.29	24136
841.427	24121
841.564	24247
841.701	24072
841.838	24076
841.975	23946
842.112	24045
842.249	24060
842.385	23965
842.522	24197
842.659	23954
842.796	24015
842.933	23916
843.069	23828
843.206	23859
843.343	23954
843.479	23908
843.616	23863
843.752	23649
843.889	23707
844.025	23828
844.162	23707
844.298	23840
844.435	23592
844.571	23646
844.708	23707
844.844	23824
844.98	23836
845.117	23824
845.253	23699
845.389	23646
845.525	23680
845.661	23429
845.798	23547
845.934	23512
846.07	23383
846.206	23440
846.342	23436
846.478	23330
846.614	23064
846.75	23166
846.886	23067
847.022	23235
847.158	23090
847.294	23151
847.429	23220
847.565	23197
847.701	23467
847.837	22908
847.972	22759
848.108	22991
848.244	22923
848.379	22774
848.515	22816
848.65	22729
848.786	22729
848.921	22771
849.057	22854
849.192	22866
849.328	22850
849.463	22782
849.598	22691
849.734	22599
849.869	22508
850.004	22596
850.14	22478
850.275	22485
850.41	22436
850.545	22436
850.68	22481
850.815	22516
850.95	22459
851.085	22508
851.22	22618
851.355	22485
851.49	22375
851.625	22402
851.76	22402
851.895	22512
852.03	22497
852.165	22459
852.299	22565
852.434	22504
852.569	22459
852.703	22538
852.838	22531
852.973	22481
853.107	22687
853.242	22371
853.376	22337
853.511	22204
853.645	22341
853.78	22398
853.914	22402
854.048	22246
854.183	22337
854.317	22413
854.451	22527
854.585	22223
854.72	22272
854.854	22451
854.988	22223
855.122	22295
855.256	22154
855.39	22291
855.524	22337
855.658	22310
855.792	22390
855.926	22352
856.06	22367
856.194	22481
856.327	22371
856.461	22322
856.595	22261
856.729	22280
856.862	22447
856.996	22348
857.13	22417
857.263	22440
857.397	22485
857.53	22371
857.664	22360
857.797	22459
857.931	22542
858.064	22409
858.197	22481
858.331	22356
858.464	22268
858.597	22344
858.731	22284
858.864	22162
858.997	22204
859.13	22375
859.263	22344
859.396	22382
859.529	22352
859.662	22268
859.795	22303
859.928	22386
860.061	22462
860.194	22607
860.327	22295
860.46	22379
860.592	22379
860.725	22413
860.858	22462
860.99	22234
861.123	22276
861.256	22371
861.388	22249
861.521	22987
861.653	22295
861.786	22185
861.918	22234
862.05	22265
862.183	22234
862.315	22329
862.447	22367
862.58	22303
862.712	21975
862.844	21937
862.976	22086
863.108	22013
863.24	22531
863.372	22040
863.504	22090
863.636	21991
863.768	22013
863.9	21949
864.032	21964
864.164	22017
864.296	21998
864.428	22051
864.559	22055
864.691	22082
864.823	22017
864.954	21994
865.086	22082
865.217	21987
865.349	21865
865.48	21907
865.612	22040
865.743	22051
865.875	21960
866.006	21835
866.137	21846
866.269	21926
866.4	21899
866.531	21857
866.662	21888
866.793	21739
866.924	21762
867.055	21945
867.186	21854
867.317	21865
867.448	21743
867.579	21846
867.71	21781
867.841	21724
867.972	21835
868.103	21861
868.233	21907
868.364	21941
868.495	21945
868.625	22124
868.756	22124
868.886	22017
869.017	22105
869.147	22226
869.278	22139
869.408	22192
869.539	22215
869.669	22169
869.799	22230
869.929	22166
870.06	22200
870.19	22318
870.32	22310
870.45	22424
870.58	22405
870.71	22656
870.84	22626
870.97	22630
871.1	22535
871.23	22603
871.36	22626
871.489	22584
871.619	22706
871.749	22687
871.879	22626
872.008	22858
872.138	22687
872.267	22618
872.397	22649
872.526	22462
872.656	22459
872.785	22470
872.915	22668
873.044	22896
873.173	22820
873.303	22839
873.432	22828
873.561	22820
873.69	22782
873.819	22660
873.948	22672
874.077	22683
874.206	22637
874.335	22752
874.464	22778
874.593	22847
874.722	22953
874.851	22976
874.979	22927
875.108	22930
875.237	22938
875.365	22763
875.494	22835
875.623	22911
875.751	22927
875.88	22919
876.008	23029
876.136	23003
876.265	23414
876.393	23429
876.521	23383
876.65	23360
876.778	23315
876.906	23265
877.034	23212
877.162	23239
877.29	23124
877.418	23261
877.546	23307
877.674	23269
877.802	23083
877.93	23124
878.058	23162
878.185	23075
878.313	23178
878.441	23299
878.568	23254
878.696	23155
878.824	23227
878.951	23265
879.079	23425
879.206	23535
879.333	23341
879.461	23277
879.588	23330
879.715	23440
879.842	23570
879.97	23239
880.097	22976
880.224	23041
880.351	23200
880.478	23018
880.605	23029
880.732	22965
880.859	23250
880.986	23014
881.112	23132
881.239	22881
881.366	22812
881.493	22592
881.619	22557
881.746	22622
881.872	22561
881.999	22538
882.125	22561
882.252	22584
882.378	22592
882.505	22664
882.631	22455
882.757	22375
882.883	22310
883.01	22371
883.136	22261
883.262	22207
883.388	22219
883.514	22352
883.64	22303
883.766	22272
883.892	22044
884.018	22044
884.143	22344
884.269	22215
884.395	21968
884.52	21724
884.646	21972
884.772	21865
884.897	21789
885.023	22093
885.148	21972
885.274	22185
885.399	22032
885.524	22044
885.65	21941
885.775	21899
885.9	21876
886.025	21956
886.15	22116
886.275	21854
886.4	21842
886.525	21854
886.65	21918
886.775	21816
886.9	22036
887.025	22074
887.149	21922
887.274	21785
887.399	21739
887.523	21778
887.648	21648
887.773	21652
887.897	21667
888.021	21835
888.146	21603
888.27	21717
888.395	21743
888.519	21747
888.643	21629
888.767	21747
888.891	21644
889.015	21511
889.139	21599
889.263	21507
889.387	21523
889.511	21652
889.635	21660
889.759	21355
889.883	21473
890.006	21523
890.13	21462
890.254	21416
890.377	21485
890.501	21161
890.624	21180
890.748	21287
890.871	21188
890.995	21116
891.118	21043
891.241	21138
891.364	21074
891.488	21161
891.611	21001
891.734	21070
891.857	21077
891.98	21062
892.103	21013
892.226	21112
892.349	21070
892.471	20823
892.594	20990
892.717	20933
892.839	21032
892.962	21051
893.085	21036
893.207	20994
893.33	20785
893.452	20689
893.575	20994
893.697	20849
893.819	21104
893.941	21074
894.064	21043
894.186	20872
894.308	20910
894.43	21108
894.552	21085
894.674	20944
894.796	20872
894.918	20849
895.04	20921
895.161	20948
895.283	21009
895.405	20777
895.526	21001
895.648	20853
895.769	21055
895.891	21039
896.012	20998
896.134	21001
896.255	20891
896.376	20899
896.498	20929
896.619	21009
896.74	20739
896.861	21058
896.982	21378
897.103	21348
897.224	21108
897.345	21146
897.466	21001
897.587	21081
897.708	21230
897.828	21211
897.949	21036
898.07	20948
898.19	20982
898.311	21249
898.431	21074
898.552	21036
898.672	21222
898.792	21188
898.913	21214
899.033	20921
899.153	21009
899.273	20807
899.393	20853
899.513	20937
899.633	21005
899.753	20937
899.873	20788
899.993	20891
900.113	20853
900.232	20914
900.352	20849
900.472	20655
900.591	20644
900.711	20571
900.83	20651
900.95	20792
901.069	20705
901.189	20571
901.308	20317
901.427	20168
901.546	20199
901.665	20134
901.784	20252
901.904	20088
902.023	19963
902.141	19795
902.26	19769
902.379	19738
902.498	19746
902.617	19696
902.735	19769
902.854	19719
902.973	19556
903.091	19430
903.21	19331
903.328	19369
903.446	19331
903.565	19171
903.683	19152
903.801	18981
903.919	19114
904.038	19088
904.156	18894
904.274	19042
904.392	18894
904.51	18852
904.627	18844
904.745	18947
904.863	18954
904.981	18738
905.098	18642
905.216	18688
905.334	18616
905.451	18506
905.569	18528
905.686	18616
905.803	18582
905.921	18334
906.038	18471
906.155	18330
906.272	18350
906.389	18327
906.506	18144
906.623	18159
906.74	18064
906.857	18057
906.974	18057
907.091	18201
907.208	18197
907.324	18079
907.441	18003
907.557	17840
907.674	17794
907.79	17764
907.907	17802
908.023	17813
908.139	17904
908.256	17813
908.372	17771
908.488	17767
908.604	17573
908.72	17459
908.836	17528
908.952	17554
909.068	17463
909.184	17745
909.3	17551
909.415	17501
909.531	17509
909.647	17356
909.762	17170
909.878	17155
909.993	17223
910.108	17155
910.224	17189
910.339	17185
910.454	17109
910.57	17109
910.685	16984
910.8	17220
910.915	17273
911.03	17014
911.145	16812
911.259	16801
911.374	16847
911.489	16721
911.604	16767
911.718	16508
911.833	16672
911.947	16382
912.062	16402
912.176	16550
912.291	16664
912.405	16630
912.519	16634
912.633	16816
912.748	16649
912.862	16527
912.976	16375
913.09	16177
913.204	16303
913.318	16322
913.431	16409
913.545	16440
913.659	16535
913.772	16379
913.886	16192
914	16147
914.113	16276
914.226	16272
914.34	16169
914.453	15945
914.566	16192
914.68	15987
914.793	15979
914.906	15876
915.019	15778
915.132	15686
915.245	15762
915.358	15690
915.47	15873
915.583	15743
915.696	15739
915.809	15838
915.921	15873
916.034	15660
916.146	15694
916.259	15564
916.371	15694
916.483	15648
916.595	15591
916.708	15549
916.82	15477
916.932	15553
917.044	15549
917.156	15488
917.268	15450
917.38	15370
917.491	15401
917.603	15351
917.715	15363
917.826	15466
917.938	15401
918.049	15199
918.161	15203
918.272	15416
918.384	15420
918.495	15214
918.606	15203
918.717	15085
918.828	15150
918.939	15169
919.05	15024
919.161	15100
919.272	14895
919.383	14982
919.494	15195
919.604	15351
919.715	15108
919.826	15077
919.936	14998
920.047	15211
920.157	15047
920.267	15195
920.378	15100
920.488	14979
920.598	15306
920.708	15386
920.818	15222
920.928	15195
921.038	15405
921.148	15272
921.258	14937
921.368	14883
921.477	14887
921.587	14697
921.697	14659
921.806	14731
921.916	14667
922.025	14480
922.134	14396
922.244	14518
922.353	14484
922.462	14305
922.571	14298
922.68	14240
922.789	14062
922.898	14142
923.007	13978
923.116	14115
923.224	14092
923.333	14065
923.442	13917
923.55	13925
923.659	13936
923.767	14073
923.876	13833
923.984	13883
924.092	13723
924.201	13830
924.309	13822
924.417	13750
924.525	13765
924.633	13662
924.741	14495
924.849	13476
924.956	13647
925.064	13487
925.172	13403
925.279	13491
925.387	13537
925.494	13468
925.602	13693
925.709	13483
925.816	13384
925.924	13441
926.031	13495
926.138	13487
926.245	13407
926.352	13263
926.459	13434
926.566	13426
926.673	13362
926.779	13126
926.886	13206
926.993	13034
927.099	12970
927.206	12973
927.312	12935
927.419	12966
927.525	12973
927.631	13000
927.737	12905
927.843	12897
927.95	12757
928.056	12886
928.162	12791
928.267	12798
928.373	13373
928.479	12932
928.585	12639
928.69	12707
928.796	12932
928.901	12730
929.007	12536
929.112	12760
929.218	12604
929.323	12433
929.428	12570
929.533	12669
929.638	12475
929.743	12532
929.848	12551
929.953	12506
930.058	12346
930.163	12247
930.267	12220
930.372	12342
930.477	12129
930.581	12426
930.685	12213
930.79	12186
930.894	12148
930.998	11996
931.103	12167
931.207	11847
931.311	11741
931.415	11710
931.519	11493
931.623	11398
