Data from test_V78500241_340.txt Node
Date: Fri Mar 25 15:44:09 CST 2022
User: usil
Spectrometer: V785-0024
Trigger mode: 0
Integration Time (sec): 4.000000E-1
Scans to average: 1
Nonlinearity correction enabled: false
Boxcar width: 0
Storing dark spectrum: false
XAxis mode: Wavelengths
Number of Pixels in Spectrum: 1024
>>>>>Begin Spectral Data<<<<<
801.071	29779
801.214	29745
801.356	29509
801.499	29646
801.641	29372
801.783	29349
801.926	29471
802.068	29520
802.211	29246
802.353	29288
802.496	29014
802.638	29079
802.78	28919
802.923	28980
803.065	28915
803.208	29056
803.35	29105
803.492	29143
803.635	29288
803.777	29094
803.919	29174
804.061	29547
804.204	29254
804.346	29231
804.488	29136
804.63	29280
804.773	29044
804.915	29200
805.057	29337
805.199	29261
805.341	29345
805.483	29353
805.626	29334
805.768	29208
805.91	29258
806.052	29417
806.194	29330
806.336	29474
806.478	29326
806.62	29341
806.762	29402
806.904	29661
807.046	29874
807.188	29821
807.33	29855
807.472	29859
807.614	29684
807.756	29794
807.898	29585
808.04	29638
808.182	29596
808.324	29566
808.465	29672
808.607	29847
808.749	29821
808.891	30095
809.033	30136
809.174	30106
809.316	29977
809.458	30038
809.6	30049
809.741	30140
809.883	30194
810.025	30334
810.166	30410
810.308	30353
810.45	30224
810.591	30182
810.733	30121
810.875	29977
811.016	29923
811.158	30079
811.299	30064
811.441	30171
811.582	30209
811.724	29893
811.865	29939
812.007	30053
812.148	30152
812.29	29992
812.431	29988
812.573	30273
812.714	30452
812.855	30604
812.997	30669
813.138	30776
813.279	30646
813.421	30513
813.562	30563
813.703	30464
813.845	30209
813.986	29946
814.127	29687
814.268	29722
814.41	29775
814.551	29562
814.692	29790
814.833	29653
814.974	29600
815.115	29817
815.256	29531
815.397	29516
815.539	29562
815.68	29482
815.821	29414
815.962	29531
816.103	29318
816.244	29254
816.385	29231
816.526	29185
816.666	28972
816.807	28885
816.948	28991
817.089	29155
817.23	29010
817.371	29044
817.512	28892
817.653	28748
817.793	28790
817.934	28854
818.075	28862
818.216	28892
818.356	28885
818.497	28694
818.638	28687
818.778	28618
818.919	28672
819.06	28565
819.2	28675
819.341	29029
819.481	28782
819.622	28991
819.762	29235
819.903	29109
820.043	29037
820.184	29006
820.324	29037
820.465	29185
820.605	28946
820.746	29079
820.886	28816
821.026	28938
821.167	28938
821.307	28911
821.447	28904
821.588	28653
821.728	28641
821.868	28500
822.008	28272
822.149	28432
822.289	28177
822.429	28135
822.569	27865
822.709	27838
822.849	27926
822.99	27778
823.13	27759
823.27	27705
823.41	27538
823.55	27553
823.69	27663
823.83	27625
823.97	27622
824.11	27439
824.25	27348
824.389	27466
824.529	27405
824.669	27408
824.809	27572
824.949	27485
825.089	27526
825.228	27553
825.368	27287
825.508	27138
825.648	27367
825.787	27336
825.927	27389
826.067	27252
826.206	27150
826.346	27294
826.485	27252
826.625	27222
826.765	27496
826.904	27169
827.044	27100
827.183	27043
827.323	26937
827.462	26914
827.601	26933
827.741	26921
827.88	26971
828.02	26845
828.159	26967
828.298	27047
828.437	26960
828.577	26895
828.716	26975
828.855	27001
828.994	26720
829.134	26651
829.273	26769
829.412	26636
829.551	26469
829.69	26556
829.829	26716
829.968	26667
830.107	26804
830.246	26613
830.385	26609
830.524	26453
830.663	26343
830.802	26214
830.941	26210
831.08	26206
831.219	26214
831.357	26317
831.496	26385
831.635	26054
831.774	26214
831.913	26088
832.051	26005
832.19	26024
832.329	25982
832.467	25871
832.606	25750
832.744	25757
832.883	25845
833.022	25822
833.16	25742
833.299	25849
833.437	25818
833.576	25959
833.714	25894
833.852	25803
833.991	25906
834.129	25837
834.267	25963
834.406	25917
834.544	25879
834.682	25849
834.821	25727
834.959	26069
835.097	25837
835.235	25906
835.373	25909
835.511	25693
835.65	25635
835.788	25700
835.926	25510
836.064	25468
836.202	25445
836.34	25609
836.478	25791
836.615	25529
836.753	25601
836.891	25616
837.029	25868
837.167	25643
837.305	25419
837.443	25563
837.58	25331
837.718	25487
837.856	25609
837.993	25476
838.131	25468
838.269	25266
838.406	25396
838.544	25217
838.681	25129
838.819	25091
838.956	24992
839.094	24932
839.231	24882
839.369	25050
839.506	25164
839.643	25118
839.781	24783
839.918	24757
840.055	24791
840.193	24779
840.33	24772
840.467	24837
840.604	24890
840.742	25126
840.879	24589
841.016	24779
841.153	24681
841.29	24783
841.427	24719
841.564	24776
841.701	24722
841.838	24707
841.975	24700
842.112	24631
842.249	24593
842.385	24559
842.522	24749
842.659	24578
842.796	24410
842.933	24471
843.069	24441
843.206	24376
843.343	24532
843.479	24407
843.616	24441
843.752	24338
843.889	24201
844.025	24292
844.162	24053
844.298	24273
844.435	24136
844.571	24125
844.708	24247
844.844	24441
844.98	24330
845.117	24308
845.253	24224
845.389	24079
845.525	24087
845.661	24155
845.798	23988
845.934	23885
846.07	23939
846.206	23950
846.342	23950
846.478	23832
846.614	23657
846.75	23627
846.886	23691
847.022	23710
847.158	23611
847.294	23737
847.429	23665
847.565	23535
847.701	23935
847.837	23334
847.972	23273
848.108	23452
848.244	23368
848.379	23273
848.515	23246
848.65	23254
848.786	23170
848.921	23162
849.057	23417
849.192	23299
849.328	23200
849.463	23311
849.598	23052
849.734	23170
849.869	23079
850.004	23094
850.14	23060
850.275	22942
850.41	22869
850.545	22816
850.68	22869
850.815	22889
850.95	22923
851.085	23090
851.22	23071
851.355	22972
851.49	22961
851.625	23022
851.76	22930
851.895	22831
852.03	22782
852.165	22930
852.299	22976
852.434	23018
852.569	22908
852.703	22919
852.838	22904
852.973	23022
853.107	22953
853.242	22862
853.376	22729
853.511	22725
853.645	22786
853.78	22790
853.914	22641
854.048	22763
854.183	22809
854.317	22778
854.451	22942
854.585	22744
854.72	22691
854.854	22877
854.988	22675
855.122	22713
855.256	22569
855.39	22683
855.524	22748
855.658	22801
855.792	22698
855.926	22672
856.06	22790
856.194	22767
856.327	22721
856.461	22721
856.595	22698
856.729	22801
856.862	22767
856.996	22675
857.13	22698
857.263	22835
857.397	22885
857.53	22607
857.664	22706
857.797	22805
857.931	22854
858.064	22717
858.197	22858
858.331	22721
858.464	22588
858.597	22603
858.731	22755
858.864	22637
858.997	22599
859.13	22710
859.263	22706
859.396	22771
859.529	22752
859.662	22580
859.795	22744
859.928	22607
860.061	22801
860.194	22786
860.327	22793
860.46	22744
860.592	22767
860.725	22809
860.858	22828
860.99	22653
861.123	22569
861.256	22653
861.388	22596
861.521	23410
861.653	22535
861.786	22424
861.918	22493
862.05	22531
862.183	22603
862.315	22668
862.447	22740
862.58	22679
862.712	22493
862.844	22322
862.976	22436
863.108	22500
863.24	22645
863.372	22230
863.504	22360
863.636	22386
863.768	22622
863.9	22386
864.032	22265
864.164	22280
864.296	22413
864.428	22462
864.559	22455
864.691	22390
864.823	22424
864.954	22375
865.086	22272
865.217	22310
865.349	22173
865.48	22268
865.612	22329
865.743	22367
865.875	22310
866.006	22295
866.137	22291
866.269	22226
866.4	22226
866.531	22238
866.662	22215
866.793	22124
866.924	22211
867.055	22200
867.186	22090
867.317	22207
867.448	22048
867.579	22154
867.71	21975
867.841	22181
867.972	22211
868.103	22036
868.233	22120
868.364	21991
868.495	22249
868.625	22329
868.756	22500
868.886	22443
869.017	22504
869.147	22478
869.278	22599
869.408	22500
869.539	22314
869.669	22554
869.799	22497
869.929	22580
870.06	22630
870.19	22622
870.32	22512
870.45	22809
870.58	22653
870.71	22892
870.84	22812
870.97	22683
871.1	22778
871.23	23025
871.36	22949
871.489	22862
871.619	22995
871.749	23018
871.879	23056
872.008	23143
872.138	23048
872.267	22961
872.397	22896
872.526	22915
872.656	22850
872.785	22923
872.915	23037
873.044	23147
873.173	23048
873.303	23071
873.432	23102
873.561	23083
873.69	23083
873.819	22949
873.948	23003
874.077	23010
874.206	22987
874.335	22877
874.464	23018
874.593	23261
874.722	23064
874.851	23261
874.979	23258
875.108	23216
875.237	23246
875.365	23109
875.494	23178
875.623	23414
875.751	23208
875.88	23303
876.008	23345
876.136	23379
876.265	23562
876.393	23661
876.521	23707
876.65	23630
876.778	23646
876.906	23547
877.034	23615
877.162	23611
877.29	23478
877.418	23592
877.546	23634
877.674	23570
877.802	23524
877.93	23699
878.058	23505
878.185	23406
878.313	23421
878.441	23551
878.568	23387
878.696	23520
878.824	23672
878.951	23589
879.079	23794
879.206	23798
879.333	23809
879.461	23619
879.588	23638
879.715	23703
879.842	23824
879.97	23592
880.097	23326
880.224	23425
880.351	23474
880.478	23372
880.605	23395
880.732	23364
880.859	23623
880.986	23311
881.112	23501
881.239	23284
881.366	23174
881.493	22995
881.619	23018
881.746	23025
881.872	22862
881.999	22908
882.125	22862
882.252	22927
882.378	22987
882.505	23052
882.631	22850
882.757	22748
882.883	22763
883.01	22607
883.136	22584
883.262	22584
883.388	22405
883.514	22691
883.64	22634
883.766	22493
883.892	22417
884.018	22500
884.143	22432
884.269	22592
884.395	22375
884.52	22207
884.646	22322
884.772	22219
884.897	22200
885.023	22337
885.148	22352
885.274	22478
885.399	22379
885.524	22356
885.65	22360
885.775	22188
885.9	22188
886.025	22390
886.15	22306
886.275	22196
886.4	22162
886.525	22234
886.65	22147
886.775	22097
886.9	22371
887.025	22360
887.149	22284
887.274	22143
887.399	22051
887.523	21915
887.648	21956
887.773	21759
887.897	22067
888.021	21983
888.146	21831
888.27	22067
888.395	22135
888.519	22097
888.643	21945
888.767	22063
888.891	21854
889.015	21698
889.139	21816
889.263	21701
889.387	21823
889.511	21975
889.635	21892
889.759	21690
889.883	21705
890.006	21759
890.13	21793
890.254	21641
890.377	21751
890.501	21428
890.624	21492
890.748	21481
890.871	21389
890.995	21298
891.118	21157
891.241	21370
891.364	21317
891.488	21507
891.611	21382
891.734	21283
891.857	21321
891.98	21332
892.103	21363
892.226	21321
892.349	21222
892.471	21161
892.594	21287
892.717	21199
892.839	21165
892.962	21378
893.085	21207
893.207	21135
893.33	21123
893.452	21051
893.575	21161
893.697	21150
893.819	21370
893.941	21355
894.064	21310
894.186	21020
894.308	21100
894.43	21294
894.552	21302
894.674	21302
894.796	21081
894.918	21188
895.04	21070
895.161	21249
895.283	21268
895.405	21214
895.526	21123
895.648	21222
895.769	21195
895.891	21298
896.012	21146
896.134	21245
896.255	21226
896.376	21150
896.498	21154
896.619	21218
896.74	21310
896.861	21279
896.982	21545
897.103	21595
897.224	21496
897.345	21416
897.466	21370
897.587	21431
897.708	21447
897.828	21363
897.949	21401
898.07	21302
898.19	21336
898.311	21420
898.431	21363
898.552	21359
898.672	21355
898.792	21378
898.913	21416
899.033	21279
899.153	21089
899.273	20998
899.393	20891
899.513	21226
899.633	21119
899.753	21123
899.873	21138
899.993	21245
900.113	21028
900.232	21005
900.352	21058
900.472	20952
900.591	20872
900.711	20788
900.83	20705
900.95	20937
901.069	20941
901.189	20750
901.308	20602
901.427	20450
901.546	20438
901.665	20438
901.784	20400
901.904	20320
902.023	20157
902.141	19989
902.26	19883
902.379	19890
902.498	19898
902.617	19879
902.735	19967
902.854	19932
902.973	19727
903.091	19597
903.21	19521
903.328	19518
903.446	19430
903.565	19430
903.683	19327
903.801	19160
903.919	19354
904.038	19350
904.156	19084
904.274	19042
904.392	18973
904.51	19103
904.627	19118
904.745	19202
904.863	19065
904.981	18825
905.098	18772
905.216	18787
905.334	18798
905.451	18757
905.569	18741
905.686	18696
905.803	18696
905.921	18585
906.038	18661
906.155	18623
906.272	18445
906.389	18471
906.506	18388
906.623	18251
906.74	18338
906.857	18186
906.974	18232
907.091	18327
907.208	18467
907.324	18213
907.441	18197
907.557	17939
907.674	17988
907.79	17882
907.907	17923
908.023	18022
908.139	17904
908.256	17999
908.372	17931
908.488	17813
908.604	17745
908.72	17630
908.836	17775
908.952	17642
909.068	17680
909.184	17767
909.3	17752
909.415	17726
909.531	17699
909.647	17433
909.762	17414
909.878	17334
909.993	17353
910.108	17421
910.224	17337
910.339	17471
910.454	17345
910.57	17189
910.685	17147
910.8	17402
910.915	17311
911.03	17083
911.145	16927
911.259	17064
911.374	16866
911.489	16885
911.604	16809
911.718	16748
911.833	16744
911.947	16558
912.062	16546
912.176	16713
912.291	16599
912.405	16565
912.519	16862
912.633	16801
912.748	16645
912.862	16622
912.976	16523
913.09	16371
913.204	16478
913.318	16531
913.431	16516
913.545	16428
913.659	16481
913.772	16398
913.886	16276
914	16188
914.113	16375
914.226	16432
914.34	16257
914.453	16063
914.566	16322
914.68	16131
914.793	16101
914.906	15918
915.019	15816
915.132	15838
915.245	15911
915.358	15964
915.47	15895
915.583	15797
915.696	15911
915.809	15956
915.921	15934
916.034	15728
916.146	15705
916.259	15755
916.371	15880
916.483	15759
916.595	15644
916.708	15755
916.82	15747
916.932	15656
917.044	15644
917.156	15576
917.268	15500
917.38	15561
917.491	15450
917.603	15504
917.715	15492
917.826	15584
917.938	15313
918.049	15222
918.161	15439
918.272	15580
918.384	15397
918.495	15355
918.606	15306
918.717	15214
918.828	15230
918.939	15226
919.05	15089
919.161	15283
919.272	14998
919.383	15062
919.494	15294
919.604	15367
919.715	15157
919.826	14960
919.936	15127
920.047	15230
920.157	15184
920.267	15310
920.378	15173
920.488	15161
920.598	15370
920.708	15332
920.818	15195
920.928	15275
921.038	15359
921.148	15241
921.258	14952
921.368	14994
921.477	14941
921.587	14834
921.697	14746
921.806	14792
921.916	14777
922.025	14492
922.134	14537
922.244	14377
922.353	14522
922.462	14362
922.571	14343
922.68	14210
922.789	14103
922.898	14210
923.007	14005
923.116	14088
923.224	14077
923.333	14065
923.442	13955
923.55	13845
923.659	13890
923.767	14031
923.876	13833
923.984	13936
924.092	13731
924.201	13875
924.309	13913
924.417	13811
924.525	13734
924.633	13734
924.741	14522
924.849	13597
924.956	13677
925.064	13544
925.172	13480
925.279	13487
925.387	13578
925.494	13586
925.602	13624
925.709	13552
925.816	13445
925.924	13419
926.031	13529
926.138	13365
926.245	13544
926.352	13354
926.459	13422
926.566	13483
926.673	13373
926.779	13308
926.886	13213
926.993	13046
927.099	13012
927.206	12973
927.312	13095
927.419	13114
927.525	13065
927.631	12939
927.737	12840
927.843	12897
927.95	12734
928.056	12878
928.162	12837
928.267	12867
928.373	13457
928.479	12901
928.585	12616
928.69	12825
928.796	12962
928.901	12738
929.007	12547
929.112	12726
929.218	12658
929.323	12559
929.428	12544
929.533	12719
929.638	12418
929.743	12437
929.848	12608
929.953	12559
930.058	12441
930.163	12178
930.267	12277
930.372	12319
930.477	12243
930.581	12410
930.685	12213
930.79	12155
930.894	12098
930.998	12114
931.103	12178
931.207	11897
931.311	11794
931.415	11680
931.519	11410
931.623	11391
