Data from test_V78500241_3616.txt Node
Date: Fri Mar 25 16:06:51 CST 2022
User: usil
Spectrometer: V785-0024
Trigger mode: 0
Integration Time (sec): 4.000000E-1
Scans to average: 1
Nonlinearity correction enabled: false
Boxcar width: 0
Storing dark spectrum: false
XAxis mode: Wavelengths
Number of Pixels in Spectrum: 1024
>>>>>Begin Spectral Data<<<<<
801.071	28618
801.214	28736
801.356	28489
801.499	28432
801.641	28398
801.783	28459
801.926	28379
802.068	28341
802.211	28386
802.353	28162
802.496	28006
802.638	28025
802.78	27964
802.923	27892
803.065	27934
803.208	27968
803.35	27983
803.492	28135
803.635	28322
803.777	28101
803.919	28211
804.061	28717
804.204	28287
804.346	28169
804.488	28242
804.63	28192
804.773	28192
804.915	28341
805.057	28470
805.199	28371
805.341	28413
805.483	28291
805.626	28584
805.768	28314
805.91	28417
806.052	28535
806.194	28303
806.336	28550
806.478	28481
806.62	28497
806.762	28637
806.904	28782
807.046	28915
807.188	28847
807.33	28976
807.472	28812
807.614	28839
807.756	28828
807.898	28809
808.04	28565
808.182	28611
808.324	28869
808.465	28782
808.607	28953
808.749	29170
808.891	29204
809.033	29216
809.174	29181
809.316	29155
809.458	29231
809.6	28999
809.741	29193
809.883	29330
810.025	29531
810.166	29425
810.308	29474
810.45	29387
810.591	29402
810.733	29197
810.875	29178
811.016	28980
811.158	29010
811.299	29102
811.441	29455
811.582	29273
811.724	29326
811.865	29162
812.007	29174
812.148	29166
812.29	29231
812.431	29311
812.573	29406
812.714	29486
812.855	29676
812.997	29707
813.138	29775
813.279	29809
813.421	29501
813.562	29547
813.703	29531
813.845	29410
813.986	29071
814.127	28915
814.268	28915
814.41	28904
814.551	28824
814.692	29044
814.833	28717
814.974	28755
815.115	28877
815.256	28649
815.397	28641
815.539	28797
815.68	28577
815.821	28649
815.962	28782
816.103	28641
816.244	28588
816.385	28352
816.526	28306
816.666	28295
816.807	27998
816.948	28329
817.089	28230
817.23	28177
817.371	28128
817.512	28188
817.653	28120
817.793	28074
817.934	28329
818.075	28219
818.216	28143
818.356	28219
818.497	28131
818.638	27937
818.778	27926
818.919	27888
819.06	28055
819.2	27983
819.341	28051
819.481	28177
819.622	28337
819.762	28588
819.903	28333
820.043	28325
820.184	28367
820.324	28261
820.465	28341
820.605	28341
820.746	28424
820.886	28173
821.026	28443
821.167	28234
821.307	28360
821.447	28207
821.588	28143
821.728	28002
821.868	27907
822.008	27557
822.149	27599
822.289	27774
822.429	27355
822.569	27340
822.709	27313
822.849	27207
822.99	27211
823.13	27176
823.27	27310
823.41	27154
823.55	26853
823.69	27062
823.83	27009
823.97	26872
824.11	26697
824.25	26773
824.389	26891
824.529	26834
824.669	26823
824.809	27009
824.949	26944
825.089	26937
825.228	26883
825.368	26568
825.508	26670
825.648	26788
825.787	26678
825.927	26777
826.067	26724
826.206	26644
826.346	26823
826.485	26758
826.625	26746
826.765	26708
826.904	26788
827.044	26507
827.183	26419
827.323	26294
827.462	26507
827.601	26495
827.741	26358
827.88	26488
828.02	26347
828.159	26415
828.298	26518
828.437	26473
828.577	26412
828.716	26583
828.855	26362
828.994	26191
829.134	26039
829.273	26153
829.412	25997
829.551	26027
829.69	26161
829.829	26062
829.968	26275
830.107	26176
830.246	26256
830.385	26092
830.524	26111
830.663	25997
830.802	25772
830.941	25776
831.08	25731
831.219	25807
831.357	25837
831.496	25951
831.635	25662
831.774	25624
831.913	25594
832.051	25495
832.19	25559
832.329	25533
832.467	25343
832.606	25312
832.744	25312
832.883	25362
833.022	25331
833.16	25377
833.299	25453
833.437	25346
833.576	25445
833.714	25392
833.852	25426
833.991	25491
834.129	25506
834.267	25578
834.406	25544
834.544	25362
834.682	25457
834.821	25407
834.959	25620
835.097	25407
835.235	25445
835.373	25225
835.511	25339
835.65	25362
835.788	25187
835.926	25289
836.064	24985
836.202	25057
836.34	25365
836.478	25316
836.615	25206
836.753	25228
836.891	25381
837.029	25293
837.167	25274
837.305	25259
837.443	25084
837.58	25088
837.718	25156
837.856	25080
837.993	25034
838.131	25042
838.269	25008
838.406	25034
838.544	24939
838.681	24688
838.819	24768
838.956	24627
839.094	24483
839.231	24540
839.369	24795
839.506	24875
839.643	24867
839.781	24566
839.918	24483
840.055	24532
840.193	24486
840.33	24540
840.467	24479
840.604	24296
840.742	24779
840.879	24361
841.016	24399
841.153	24273
841.29	24589
841.427	24361
841.564	24433
841.701	24414
841.838	24327
841.975	24376
842.112	24372
842.249	24167
842.385	24194
842.522	24376
842.659	24254
842.796	24315
842.933	24311
843.069	24220
843.206	24174
843.343	24262
843.479	24167
843.616	24205
843.752	23950
843.889	23904
844.025	24144
844.162	23954
844.298	24053
844.435	24045
844.571	24060
844.708	24163
844.844	24235
844.98	24163
845.117	24205
845.253	24060
845.389	23927
845.525	23885
845.661	23889
845.798	23745
845.934	23843
846.07	23600
846.206	23786
846.342	23775
846.478	23737
846.614	23421
846.75	23501
846.886	23471
847.022	23474
847.158	23516
847.294	23429
847.429	23543
847.565	23482
847.701	23695
847.837	23261
847.972	23159
848.108	23239
848.244	23273
848.379	22984
848.515	22949
848.65	23064
848.786	23079
848.921	23124
849.057	23098
849.192	23044
849.328	23056
849.463	22999
849.598	23037
849.734	22809
849.869	22984
850.004	22721
850.14	22866
850.275	22805
850.41	22797
850.545	22679
850.68	22702
850.815	22915
850.95	22854
851.085	23098
851.22	22987
851.355	22824
851.49	22786
851.625	22733
851.76	22843
851.895	22911
852.03	22649
852.165	22782
852.299	22957
852.434	23022
852.569	22866
852.703	22854
852.838	22786
852.973	22991
853.107	22877
853.242	22656
853.376	22759
853.511	22588
853.645	22592
853.78	22793
853.914	22649
854.048	22645
854.183	22664
854.317	22691
854.451	22786
854.585	22668
854.72	22554
854.854	22778
854.988	22675
855.122	22622
855.256	22611
855.39	22721
855.524	22649
855.658	22717
855.792	22717
855.926	22679
856.06	22713
856.194	22683
856.327	22519
856.461	22466
856.595	22588
856.729	22717
856.862	22702
856.996	22694
857.13	22801
857.263	22653
857.397	22618
857.53	22569
857.664	22584
857.797	22630
857.931	22740
858.064	22668
858.197	22774
858.331	22584
858.464	22527
858.597	22440
858.731	22603
858.864	22653
858.997	22550
859.13	22653
859.263	22660
859.396	22660
859.529	22672
859.662	22451
859.795	22573
859.928	22599
860.061	22710
860.194	22847
860.327	22771
860.46	22759
860.592	22816
860.725	22706
860.858	22691
860.99	22538
861.123	22497
861.256	22622
861.388	22603
861.521	23402
861.653	22405
861.786	22519
861.918	22459
862.05	22497
862.183	22542
862.315	22592
862.447	22634
862.58	22592
862.712	22333
862.844	22325
862.976	22348
863.108	22421
863.24	22877
863.372	22272
863.504	22337
863.636	22344
863.768	22402
863.9	22379
864.032	22249
864.164	22249
864.296	22409
864.428	22523
864.559	22257
864.691	22409
864.823	22382
864.954	22219
865.086	22325
865.217	22253
865.349	22063
865.48	22287
865.612	22192
865.743	22306
865.875	22211
866.006	22162
866.137	22287
866.269	22185
866.4	22105
866.531	22082
866.662	22124
866.793	21960
866.924	22147
867.055	22158
867.186	22109
867.317	22090
867.448	22090
867.579	22097
867.71	22143
867.841	22032
867.972	22196
868.103	22063
868.233	22147
868.364	22112
868.495	22128
868.625	22303
868.756	22538
868.886	22375
869.017	22344
869.147	22375
869.278	22504
869.408	22246
869.539	22485
869.669	22455
869.799	22470
869.929	22512
870.06	22470
870.19	22691
870.32	22755
870.45	22634
870.58	22797
870.71	22866
870.84	22866
870.97	22816
871.1	22744
871.23	22938
871.36	22927
871.489	22915
871.619	22957
871.749	22972
871.879	23136
872.008	23105
872.138	22965
872.267	22976
872.397	22854
872.526	22809
872.656	22797
872.785	22816
872.915	22927
873.044	23105
873.173	22976
873.303	23105
873.432	23079
873.561	23022
873.69	22980
873.819	23022
873.948	23083
874.077	22885
874.206	23052
874.335	23094
874.464	23102
874.593	23246
874.722	23151
874.851	23208
874.979	23178
875.108	23296
875.237	23166
875.365	22995
875.494	23231
875.623	23174
875.751	23220
875.88	23242
876.008	23410
876.136	23410
876.265	23611
876.393	23805
876.521	23665
876.65	23805
876.778	23611
876.906	23524
877.034	23440
877.162	23596
877.29	23512
877.418	23524
877.546	23486
877.674	23581
877.802	23570
877.93	23520
878.058	23528
878.185	23531
878.313	23436
878.441	23634
878.568	23395
878.696	23528
878.824	23577
878.951	23573
879.079	23703
879.206	23999
879.333	23665
879.461	23528
879.588	23577
879.715	23680
879.842	23836
879.97	23619
880.097	23337
880.224	23277
880.351	23429
880.478	23414
880.605	23376
880.732	23299
880.859	23634
880.986	23356
881.112	23372
881.239	23216
881.366	23033
881.493	23094
881.619	22862
881.746	22892
881.872	22862
881.999	22904
882.125	22862
882.252	22934
882.378	22847
882.505	22949
882.631	22812
882.757	22584
882.883	22782
883.01	22550
883.136	22630
883.262	22390
883.388	22478
883.514	22588
883.64	22687
883.766	22626
883.892	22261
884.018	22421
884.143	22546
884.269	22557
884.395	22284
884.52	22265
884.646	22318
884.772	22143
884.897	22124
885.023	22234
885.148	22325
885.274	22310
885.399	22303
885.524	22268
885.65	22226
885.775	22150
885.9	22200
886.025	22204
886.15	22356
886.275	22192
886.4	22067
886.525	22185
886.65	22211
886.775	22150
886.9	22428
887.025	22382
887.149	22169
887.274	22109
887.399	22036
887.523	22021
887.648	21846
887.773	21835
887.897	21945
888.021	22044
888.146	21953
888.27	22070
888.395	22143
888.519	22116
888.643	22078
888.767	21930
888.891	21922
889.015	21793
889.139	21838
889.263	21907
889.387	21869
889.511	21926
889.635	21789
889.759	21762
889.883	21694
890.006	21797
890.13	21804
890.254	21755
890.377	21747
890.501	21523
890.624	21530
890.748	21496
890.871	21401
890.995	21252
891.118	21260
891.241	21268
891.364	21374
891.488	21511
891.611	21367
891.734	21291
891.857	21348
891.98	21393
892.103	21469
892.226	21340
892.349	21218
892.471	21135
892.594	21340
892.717	21260
892.839	21233
892.962	21131
893.085	21214
893.207	21272
893.33	21230
893.452	21131
893.575	21393
893.697	21146
893.819	21370
893.941	21462
894.064	21351
894.186	21150
894.308	21108
894.43	21256
894.552	21329
894.674	21321
894.796	21047
894.918	21214
895.04	21131
895.161	21260
895.283	21169
895.405	21237
895.526	21249
895.648	21230
895.769	21150
895.891	21226
896.012	21310
896.134	21378
896.255	21188
896.376	21192
896.498	21245
896.619	21252
896.74	21203
896.861	21249
896.982	21572
897.103	21534
897.224	21252
897.345	21363
897.466	21386
897.587	21443
897.708	21549
897.828	21477
897.949	21294
898.07	21214
898.19	21252
898.311	21481
898.431	21355
898.552	21351
898.672	21359
898.792	21408
898.913	21336
899.033	21283
899.153	21226
899.273	21013
899.393	21112
899.513	21146
899.633	21089
899.753	21096
899.873	21039
899.993	21138
900.113	21001
900.232	21138
900.352	20986
900.472	20967
900.591	20796
900.711	20910
900.83	20773
900.95	20910
901.069	20876
901.189	20765
901.308	20617
901.427	20374
901.546	20438
901.665	20492
901.784	20484
901.904	20267
902.023	20248
902.141	20065
902.26	19978
902.379	20024
902.498	19940
902.617	20008
902.735	19978
902.854	19974
902.973	19860
903.091	19582
903.21	19674
903.328	19590
903.446	19510
903.565	19449
903.683	19426
903.801	19213
903.919	19339
904.038	19339
904.156	19213
904.274	19206
904.392	19232
904.51	19187
904.627	19221
904.745	19213
904.863	19236
904.981	18886
905.098	18798
905.216	18833
905.334	18886
905.451	18939
905.569	18658
905.686	18932
905.803	18848
905.921	18578
906.038	18814
906.155	18563
906.272	18456
906.389	18452
906.506	18342
906.623	18399
906.74	18357
906.857	18144
906.974	18338
907.091	18464
907.208	18346
907.324	18384
907.441	18296
907.557	18129
907.674	17969
907.79	18007
907.907	18030
908.023	18148
908.139	17958
908.256	17988
908.372	17908
908.488	17942
908.604	17901
908.72	17737
908.836	17733
908.952	17786
909.068	17798
909.184	17908
909.3	17691
909.415	17729
909.531	17687
909.647	17551
909.762	17486
909.878	17436
909.993	17535
910.108	17417
910.224	17398
910.339	17376
910.454	17315
910.57	17379
910.685	17143
910.8	17402
910.915	17383
911.03	17246
911.145	17197
911.259	16999
911.374	16980
911.489	16896
911.604	16896
911.718	16782
911.833	16809
911.947	16801
912.062	16527
912.176	16691
912.291	16767
912.405	16793
912.519	17064
912.633	16999
912.748	16797
912.862	16843
912.976	16558
913.09	16504
913.204	16569
913.318	16546
913.431	16656
913.545	16672
913.659	16611
913.772	16481
913.886	16447
914	16424
914.113	16466
914.226	16478
914.34	16398
914.453	16257
914.566	16432
914.68	16257
914.793	16276
914.906	16025
915.019	15899
915.132	15960
915.245	16032
915.358	16010
915.47	15964
915.583	15854
915.696	15964
915.809	16029
915.921	16112
916.034	15884
916.146	15823
916.259	15793
916.371	15991
916.483	15918
916.595	15747
916.708	15842
916.82	15812
916.932	15728
917.044	15766
917.156	15724
917.268	15656
917.38	15591
917.491	15515
917.603	15511
917.715	15671
917.826	15610
917.938	15500
918.049	15496
918.161	15519
918.272	15629
918.384	15720
918.495	15420
918.606	15355
918.717	15298
918.828	15275
918.939	15298
919.05	15249
919.161	15298
919.272	15165
919.383	15294
919.494	15367
919.604	15500
919.715	15241
919.826	15157
919.936	15325
920.047	15420
920.157	15207
920.267	15355
920.378	15260
920.488	15169
920.598	15469
920.708	15652
920.818	15336
920.928	15450
921.038	15538
921.148	15523
921.258	15256
921.368	15169
921.477	15013
921.587	14994
921.697	14838
921.806	15013
921.916	14902
922.025	14739
922.134	14606
922.244	14644
922.353	14594
922.462	14533
922.571	14377
922.68	14332
922.789	14267
922.898	14225
923.007	14199
923.116	14225
923.224	14290
923.333	14237
923.442	14119
923.55	14138
923.659	14065
923.767	14157
923.876	14062
923.984	14107
924.092	13940
924.201	14039
924.309	14043
924.417	13978
924.525	13963
924.633	13970
924.741	14845
924.849	13818
924.956	13807
925.064	13731
925.172	13597
925.279	13719
925.387	13639
925.494	13696
925.602	13826
925.709	13662
925.816	13529
925.924	13563
926.031	13594
926.138	13563
926.245	13636
926.352	13529
926.459	13632
926.566	13651
926.673	13518
926.779	13434
926.886	13434
926.993	13251
927.099	13236
927.206	13149
927.312	13225
927.419	13266
927.525	13183
927.631	13236
927.737	13133
927.843	13000
927.95	12920
928.056	12985
928.162	13038
928.267	13126
928.373	13636
928.479	13114
928.585	12882
928.69	13012
928.796	12954
928.901	12890
929.007	12749
929.112	12825
929.218	12802
929.323	12722
929.428	12730
929.533	12768
929.638	12570
929.743	12719
929.848	12715
929.953	12642
930.058	12513
930.163	12369
930.267	12376
930.372	12502
930.477	12220
930.581	12566
930.685	12471
930.79	12209
930.894	12258
930.998	12262
931.103	12391
931.207	12030
931.311	11927
931.415	11904
931.519	11665
931.623	11649
