Data from test_V78500241_3252.txt Node
Date: Fri Mar 25 16:04:19 CST 2022
User: usil
Spectrometer: V785-0024
Trigger mode: 0
Integration Time (sec): 4.000000E-1
Scans to average: 1
Nonlinearity correction enabled: false
Boxcar width: 0
Storing dark spectrum: false
XAxis mode: Wavelengths
Number of Pixels in Spectrum: 1024
>>>>>Begin Spectral Data<<<<<
801.071	28896
801.214	28759
801.356	28554
801.499	28565
801.641	28386
801.783	28291
801.926	28333
802.068	28546
802.211	28363
802.353	28287
802.496	28101
802.638	28109
802.78	27918
802.923	28010
803.065	27964
803.208	28051
803.35	28093
803.492	28215
803.635	28166
803.777	28116
803.919	28169
804.061	28584
804.204	28455
804.346	28120
804.488	28238
804.63	28234
804.773	28295
804.915	28306
805.057	28580
805.199	28238
805.341	28443
805.483	28474
805.626	28455
805.768	28375
805.91	28333
806.052	28417
806.194	28287
806.336	28580
806.478	28390
806.62	28497
806.762	28615
806.904	28835
807.046	28900
807.188	28972
807.33	28831
807.472	29018
807.614	28771
807.756	28934
807.898	28881
808.04	28683
808.182	28626
808.324	28744
808.465	28805
808.607	28812
808.749	29159
808.891	29216
809.033	29246
809.174	29010
809.316	29056
809.458	29170
809.6	29048
809.741	29242
809.883	29387
810.025	29509
810.166	29668
810.308	29360
810.45	29334
810.591	29356
810.733	29212
810.875	29140
811.016	29029
811.158	29155
811.299	29197
811.441	29303
811.582	29414
811.724	29178
811.865	29292
812.007	29166
812.148	29303
812.29	29204
812.431	29383
812.573	29493
812.714	29634
812.855	29672
812.997	29897
813.138	29927
813.279	29703
813.421	29722
813.562	29703
813.703	29501
813.845	29417
813.986	29166
814.127	28923
814.268	28801
814.41	28961
814.551	28668
814.692	28828
814.833	28961
814.974	28824
815.115	28850
815.256	28858
815.397	28877
815.539	28725
815.68	28786
815.821	28733
815.962	28626
816.103	28588
816.244	28535
816.385	28538
816.526	28470
816.666	28398
816.807	28196
816.948	28196
817.089	28211
817.23	28135
817.371	28116
817.512	28265
817.653	28242
817.793	28059
817.934	28200
818.075	28253
818.216	28169
818.356	28257
818.497	28063
818.638	27854
818.778	27960
818.919	28051
819.06	28162
819.2	28074
819.341	28253
819.481	28181
819.622	28375
819.762	28634
819.903	28531
820.043	28424
820.184	28478
820.324	28356
820.465	28401
820.605	28344
820.746	28398
820.886	28242
821.026	28352
821.167	28238
821.307	28367
821.447	28200
821.588	28082
821.728	27953
821.868	27876
822.008	27774
822.149	27732
822.289	27682
822.429	27386
822.569	27386
822.709	27450
822.849	27287
822.99	27241
823.13	27207
823.27	27230
823.41	27009
823.55	26918
823.69	27138
823.83	27081
823.97	26990
824.11	26826
824.25	26731
824.389	26842
824.529	27009
824.669	26933
824.809	26994
824.949	26998
825.089	26952
825.228	26914
825.368	26796
825.508	26765
825.648	26651
825.787	26868
825.927	26708
826.067	26609
826.206	26838
826.346	26708
826.485	26754
826.625	26708
826.765	26800
826.904	26883
827.044	26457
827.183	26659
827.323	26530
827.462	26469
827.601	26465
827.741	26530
827.88	26423
828.02	26351
828.159	26438
828.298	26389
828.437	26381
828.577	26499
828.716	26564
828.855	26461
828.994	26176
829.134	26164
829.273	26195
829.412	26161
829.551	26054
829.69	26153
829.829	26233
829.968	26233
830.107	26233
830.246	26180
830.385	26126
830.524	26145
830.663	25970
830.802	25841
830.941	25769
831.08	25727
831.219	25814
831.357	25868
831.496	25997
831.635	25712
831.774	25658
831.913	25620
832.051	25575
832.19	25537
832.329	25479
832.467	25457
832.606	25407
832.744	25499
832.883	25499
833.022	25468
833.16	25422
833.299	25449
833.437	25521
833.576	25491
833.714	25529
833.852	25445
833.991	25613
834.129	25666
834.267	25529
834.406	25472
834.544	25483
834.682	25540
834.821	25506
834.959	25540
835.097	25514
835.235	25556
835.373	25438
835.511	25510
835.65	25285
835.788	25392
835.926	25213
836.064	25168
836.202	25171
836.34	25335
836.478	25533
836.615	25282
836.753	25225
836.891	25324
837.029	25312
837.167	25206
837.305	25266
837.443	25008
837.58	25156
837.718	25263
837.856	25259
837.993	25103
838.131	25076
838.269	25057
838.406	24894
838.544	24981
838.681	24802
838.819	24795
838.956	24540
839.094	24555
839.231	24559
839.369	24688
839.506	24947
839.643	24852
839.781	24544
839.918	24715
840.055	24635
840.193	24570
840.33	24540
840.467	24433
840.604	24627
840.742	24711
840.879	24403
841.016	24319
841.153	24429
841.29	24460
841.427	24555
841.564	24521
841.701	24540
841.838	24441
841.975	24376
842.112	24426
842.249	24323
842.385	24174
842.522	24437
842.659	24304
842.796	24266
842.933	24091
843.069	24209
843.206	24235
843.343	24228
843.479	24247
843.616	24338
843.752	24068
843.889	24209
844.025	24235
844.162	24155
844.298	23992
844.435	24155
844.571	24083
844.708	24140
844.844	24091
844.98	24243
845.117	24155
845.253	23973
845.389	23885
845.525	23988
845.661	23885
845.798	23672
845.934	23828
846.07	23809
846.206	23813
846.342	23912
846.478	23767
846.614	23474
846.75	23482
846.886	23554
847.022	23558
847.158	23634
847.294	23490
847.429	23531
847.565	23402
847.701	23657
847.837	23280
847.972	23200
848.108	23337
848.244	23296
848.379	23124
848.515	23044
848.65	23048
848.786	23102
848.921	23113
849.057	23136
849.192	23151
849.328	23178
849.463	23098
849.598	22949
849.734	23067
849.869	22919
850.004	22824
850.14	22919
850.275	22778
850.41	22793
850.545	22771
850.68	22790
850.815	22949
850.95	22793
851.085	23064
851.22	22900
851.355	22824
851.49	22835
851.625	22717
851.76	22862
851.895	22812
852.03	22831
852.165	22820
852.299	22881
852.434	22911
852.569	22790
852.703	22717
852.838	22892
852.973	22999
853.107	22911
853.242	22755
853.376	22687
853.511	22634
853.645	22557
853.78	22778
853.914	22782
854.048	22733
854.183	22664
854.317	22683
854.451	22809
854.585	22790
854.72	22702
854.854	22683
854.988	22577
855.122	22744
855.256	22542
855.39	22653
855.524	22793
855.658	22687
855.792	22618
855.926	22603
856.06	22615
856.194	22740
856.327	22656
856.461	22664
856.595	22615
856.729	22615
856.862	22778
856.996	22649
857.13	22736
857.263	22839
857.397	22854
857.53	22592
857.664	22828
857.797	22717
857.931	22725
858.064	22626
858.197	22824
858.331	22656
858.464	22542
858.597	22561
858.731	22603
858.864	22603
858.997	22584
859.13	22668
859.263	22634
859.396	22809
859.529	22596
859.662	22508
859.795	22542
859.928	22698
860.061	22706
860.194	22881
860.327	22687
860.46	22626
860.592	22953
860.725	22793
860.858	22763
860.99	22736
861.123	22641
861.256	22630
861.388	22683
861.521	23337
861.653	22618
861.786	22382
861.918	22519
862.05	22470
862.183	22531
862.315	22599
862.447	22729
862.58	22611
862.712	22337
862.844	22436
862.976	22538
863.108	22523
863.24	22767
863.372	22489
863.504	22367
863.636	22337
863.768	22337
863.9	22405
864.032	22234
864.164	22363
864.296	22478
864.428	22409
864.559	22421
864.691	22356
864.823	22428
864.954	22303
865.086	22329
865.217	22344
865.349	22185
865.48	22390
865.612	22280
865.743	22424
865.875	22280
866.006	22249
866.137	22166
866.269	22375
866.4	22223
866.531	22109
866.662	22116
866.793	22154
866.924	22120
867.055	22139
867.186	22329
867.317	22261
867.448	22082
867.579	22291
867.71	22276
867.841	22040
867.972	22257
868.103	22223
868.233	22287
868.364	22120
868.495	22272
868.625	22375
868.756	22611
868.886	22367
869.017	22325
869.147	22512
869.278	22516
869.408	22405
869.539	22443
869.669	22596
869.799	22481
869.929	22573
870.06	22447
870.19	22740
870.32	22706
870.45	22839
870.58	22839
870.71	23010
870.84	23022
870.97	22866
871.1	22854
871.23	23037
871.36	22942
871.489	23044
871.619	22908
871.749	22953
871.879	23018
872.008	23166
872.138	23086
872.267	22991
872.397	22911
872.526	22778
872.656	22953
872.785	22793
872.915	22965
873.044	23128
873.173	23147
873.303	23064
873.432	23132
873.561	23037
873.69	23010
873.819	23041
873.948	23147
874.077	23086
874.206	22987
874.335	22923
874.464	23216
874.593	23296
874.722	23181
874.851	23387
874.979	23284
875.108	23307
875.237	23341
875.365	23200
875.494	23296
875.623	23376
875.751	23254
875.88	23223
876.008	23410
876.136	23520
876.265	23752
876.393	23870
876.521	23726
876.65	23646
876.778	23516
876.906	23627
877.034	23554
877.162	23691
877.29	23490
877.418	23646
877.546	23543
877.674	23520
877.802	23646
877.93	23600
878.058	23619
878.185	23417
878.313	23562
878.441	23604
878.568	23402
878.696	23630
878.824	23646
878.951	23653
879.079	23748
879.206	23889
879.333	23790
879.461	23600
879.588	23661
879.715	23771
879.842	23992
879.97	23687
880.097	23611
880.224	23376
880.351	23474
880.478	23440
880.605	23334
880.732	23174
880.859	23570
880.986	23452
881.112	23349
881.239	23353
881.366	23174
881.493	23056
881.619	22972
881.746	22987
881.872	22915
881.999	22908
882.125	23041
882.252	23006
882.378	22923
882.505	23083
882.631	22767
882.757	22763
882.883	22725
883.01	22656
883.136	22580
883.262	22550
883.388	22531
883.514	22656
883.64	22721
883.766	22557
883.892	22322
884.018	22329
884.143	22603
884.269	22679
884.395	22386
884.52	22375
884.646	22329
884.772	22135
884.897	22185
885.023	22299
885.148	22405
885.274	22325
885.399	22337
885.524	22185
885.65	22215
885.775	22207
885.9	22291
886.025	22352
886.15	22329
886.275	22268
886.4	22200
886.525	22238
886.65	22147
886.775	22082
886.9	22314
887.025	22386
887.149	22306
887.274	21964
887.399	22101
887.523	22048
887.648	21960
887.773	22040
887.897	22017
888.021	22101
888.146	22116
888.27	22173
888.395	22131
888.519	22025
888.643	22055
888.767	21991
888.891	22021
889.015	21759
889.139	21846
889.263	21873
889.387	21930
889.511	22078
889.635	21895
889.759	21713
889.883	21728
890.006	21899
890.13	21778
890.254	21835
890.377	21629
890.501	21610
890.624	21519
890.748	21648
890.871	21542
890.995	21458
891.118	21496
891.241	21344
891.364	21389
891.488	21397
891.611	21348
891.734	21469
891.857	21344
891.98	21545
892.103	21519
892.226	21336
892.349	21363
892.471	21070
892.594	21336
892.717	21367
892.839	21294
892.962	21275
893.085	21336
893.207	21252
893.33	21142
893.452	21256
893.575	21294
893.697	21332
893.819	21401
893.941	21488
894.064	21431
894.186	21351
894.308	21184
894.43	21386
894.552	21336
894.674	21302
894.796	21287
894.918	21264
895.04	21192
895.161	21249
895.283	21287
895.405	21241
895.526	21310
895.648	21203
895.769	21195
895.891	21142
896.012	21317
896.134	21348
896.255	21287
896.376	21272
896.498	21329
896.619	21363
896.74	21184
896.861	21256
896.982	21447
897.103	21618
897.224	21519
897.345	21447
897.466	21382
897.587	21454
897.708	21549
897.828	21424
897.949	21351
898.07	21321
898.19	21340
898.311	21447
898.431	21424
898.552	21382
898.672	21416
898.792	21405
898.913	21416
899.033	21279
899.153	21260
899.273	21131
899.393	21108
899.513	21146
899.633	21150
899.753	21180
899.873	21051
899.993	21195
900.113	21032
900.232	21180
900.352	21104
900.472	20963
900.591	20864
900.711	20910
900.83	20944
900.95	21093
901.069	21017
901.189	20708
901.308	20499
901.427	20400
901.546	20438
901.665	20549
901.784	20575
901.904	20328
902.023	20233
902.141	20058
902.26	19940
902.379	20130
902.498	19993
902.617	20050
902.735	20043
902.854	19947
902.973	19963
903.091	19647
903.21	19632
903.328	19590
903.446	19578
903.565	19483
903.683	19476
903.801	19335
903.919	19373
904.038	19400
904.156	19114
904.274	19175
904.392	19065
904.51	19179
904.627	19202
904.745	19289
904.863	19259
904.981	19012
905.098	18897
905.216	18875
905.334	18848
905.451	18958
905.569	18962
905.686	18913
905.803	18768
905.921	18661
906.038	18741
906.155	18707
906.272	18422
906.389	18585
906.506	18441
906.623	18380
906.74	18540
906.857	18407
906.974	18239
907.091	18346
907.208	18433
907.324	18384
907.441	18300
907.557	18171
907.674	18053
907.79	17984
907.907	18083
908.023	18144
908.139	18174
908.256	18087
908.372	18011
908.488	17920
908.604	17851
908.72	17798
908.836	17805
908.952	17726
909.068	17817
909.184	17901
909.3	17684
909.415	17764
909.531	17752
909.647	17703
909.762	17554
909.878	17478
909.993	17501
910.108	17398
910.224	17512
910.339	17395
910.454	17364
910.57	17254
910.685	17223
910.8	17551
910.915	17395
911.03	17356
911.145	17121
911.259	17147
911.374	16976
911.489	16942
911.604	16843
911.718	16820
911.833	16930
911.947	16767
912.062	16717
912.176	16873
912.291	16885
912.405	16801
912.519	17056
912.633	17037
912.748	16812
912.862	16790
912.976	16596
913.09	16573
913.204	16603
913.318	16630
913.431	16698
913.545	16721
913.659	16752
913.772	16538
913.886	16367
914	16402
914.113	16390
914.226	16459
914.34	16474
914.453	16257
914.566	16386
914.68	16299
914.793	16226
914.906	16109
915.019	16013
915.132	15998
915.245	15964
915.358	15968
915.47	15987
915.583	15956
915.696	15975
915.809	16109
915.921	16215
916.034	15960
916.146	15816
916.259	15797
916.371	15975
916.483	15960
916.595	15850
916.708	15736
916.82	15793
916.932	15774
917.044	15698
917.156	15671
917.268	15652
917.38	15736
917.491	15667
917.603	15629
917.715	15656
917.826	15736
917.938	15511
918.049	15485
918.161	15675
918.272	15660
918.384	15660
918.495	15564
918.606	15424
918.717	15329
918.828	15294
918.939	15355
919.05	15260
919.161	15245
919.272	15222
919.383	15241
919.494	15359
919.604	15458
919.715	15298
919.826	15264
919.936	15203
920.047	15500
920.157	15268
920.267	15549
920.378	15329
920.488	15211
920.598	15458
920.708	15625
920.818	15439
920.928	15530
921.038	15549
921.148	15557
921.258	15287
921.368	15116
921.477	15036
921.587	15024
921.697	14838
921.806	14979
921.916	14868
922.025	14590
922.134	14571
922.244	14613
922.353	14678
922.462	14492
922.571	14457
922.68	14259
922.789	14191
922.898	14313
923.007	14206
923.116	14275
923.224	14202
923.333	14305
923.442	14195
923.55	14199
923.659	14069
923.767	14123
923.876	14073
923.984	14142
924.092	13951
924.201	14054
924.309	14039
924.417	13963
924.525	13932
924.633	13898
924.741	14682
924.849	13765
924.956	13898
925.064	13696
925.172	13677
925.279	13636
925.387	13647
925.494	13674
925.602	13776
925.709	13616
925.816	13605
925.924	13525
926.031	13643
926.138	13552
926.245	13651
926.352	13537
926.459	13605
926.566	13674
926.673	13563
926.779	13400
926.886	13331
926.993	13240
927.099	13247
927.206	13103
927.312	13118
927.419	13240
927.525	13202
927.631	13118
927.737	13118
927.843	13084
927.95	12985
928.056	12977
928.162	13038
928.267	13000
928.373	13567
928.479	13015
928.585	12852
928.69	12966
928.796	12973
928.901	12806
929.007	12658
929.112	12787
929.218	12840
929.323	12745
929.428	12757
929.533	12852
929.638	12612
929.743	12627
929.848	12642
929.953	12601
930.058	12566
930.163	12414
930.267	12410
930.372	12547
930.477	12330
930.581	12509
930.685	12426
930.79	12273
930.894	12292
930.998	12224
931.103	12342
931.207	12026
931.311	11942
931.415	11809
931.519	11699
931.623	11600
