Data from test_V78500241_1727.txt Node
Date: Fri Mar 25 15:53:45 CST 2022
User: usil
Spectrometer: V785-0024
Trigger mode: 0
Integration Time (sec): 4.000000E-1
Scans to average: 1
Nonlinearity correction enabled: false
Boxcar width: 0
Storing dark spectrum: false
XAxis mode: Wavelengths
Number of Pixels in Spectrum: 1024
>>>>>Begin Spectral Data<<<<<
801.071	28523
801.214	28424
801.356	28348
801.499	28143
801.641	27949
801.783	28074
801.926	28086
802.068	27930
802.211	28059
802.353	27945
802.496	27869
802.638	27835
802.78	27850
802.923	27679
803.065	27568
803.208	27671
803.35	27797
803.492	27842
803.635	27914
803.777	27797
803.919	27911
804.061	28166
804.204	28105
804.346	27861
804.488	27854
804.63	27914
804.773	27816
804.915	28070
805.057	27880
805.199	27812
805.341	27983
805.483	28112
805.626	27979
805.768	28032
805.91	28063
806.052	28162
806.194	27987
806.336	28135
806.478	28044
806.62	28177
806.762	28188
806.904	28451
807.046	28565
807.188	28497
807.33	28489
807.472	28386
807.614	28394
807.756	28512
807.898	28443
808.04	28440
808.182	28337
808.324	28421
808.465	28455
808.607	28637
808.749	28831
808.891	28801
809.033	28816
809.174	28694
809.316	28577
809.458	28771
809.6	28626
809.741	28869
809.883	28896
810.025	29018
810.166	28980
810.308	29056
810.45	29105
810.591	28888
810.733	28835
810.875	28820
811.016	28755
811.158	28546
811.299	28713
811.441	28961
811.582	28801
811.724	28790
811.865	28752
812.007	28782
812.148	28835
812.29	28858
812.431	28999
812.573	29098
812.714	29174
812.855	29204
812.997	29410
813.138	29497
813.279	29395
813.421	29315
813.562	29193
813.703	29060
813.845	28892
813.986	28660
814.127	28698
814.268	28523
814.41	28565
814.551	28367
814.692	28390
814.833	28417
814.974	28329
815.115	28485
815.256	28303
815.397	28360
815.539	28211
815.68	28093
815.821	28207
815.962	28238
816.103	28249
816.244	28048
816.385	28029
816.526	28006
816.666	27934
816.807	27667
816.948	27789
817.089	27770
817.23	27667
817.371	27812
817.512	27831
817.653	27591
817.793	27709
817.934	27751
818.075	27842
818.216	27637
818.356	27819
818.497	27648
818.638	27625
818.778	27507
818.919	27488
819.06	27633
819.2	27736
819.341	27713
819.481	27675
819.622	27873
819.762	28272
819.903	28124
820.043	27857
820.184	27941
820.324	27934
820.465	27922
820.605	27907
820.746	27816
820.886	27709
821.026	27812
821.167	27838
821.307	27884
821.447	27743
821.588	27755
821.728	27606
821.868	27492
822.008	27405
822.149	27310
822.289	27203
822.429	26914
822.569	26883
822.709	26910
822.849	26545
822.99	26750
823.13	26727
823.27	26716
823.41	26419
823.55	26434
823.69	26689
823.83	26579
823.97	26533
824.11	26332
824.25	26431
824.389	26465
824.529	26473
824.669	26499
824.809	26484
824.949	26374
825.089	26351
825.228	26514
825.368	26233
825.508	26275
825.648	26412
825.787	26294
825.927	26351
826.067	26183
826.206	26438
826.346	26248
826.485	26396
826.625	26218
826.765	26533
826.904	26286
827.044	26149
827.183	26157
827.323	25970
827.462	26008
827.601	25982
827.741	25947
827.88	25974
828.02	25784
828.159	25989
828.298	25921
828.437	26031
828.577	25898
828.716	26088
828.855	25898
828.994	25662
829.134	25635
829.273	25704
829.412	25670
829.551	25514
829.69	25696
829.829	25548
829.968	25757
830.107	25746
830.246	25719
830.385	25696
830.524	25578
830.663	25487
830.802	25392
830.941	25255
831.08	25175
831.219	25373
831.357	25518
831.496	25419
831.635	25206
831.774	25126
831.913	25129
832.051	25050
832.19	25114
832.329	25076
832.467	24935
832.606	24844
832.744	24966
832.883	25042
833.022	25034
833.16	25023
833.299	24920
833.437	24951
833.576	24954
833.714	25038
833.852	24951
833.991	25046
834.129	25133
834.267	25065
834.406	25053
834.544	25088
834.682	24848
834.821	25012
834.959	25141
835.097	24924
835.235	24939
835.373	24905
835.511	25072
835.65	24875
835.788	24810
835.926	24696
836.064	24627
836.202	24738
836.34	24859
836.478	25057
836.615	24802
836.753	24688
836.891	24791
837.029	24981
837.167	24817
837.305	24760
837.443	24669
837.58	24661
837.718	24620
837.856	24726
837.993	24601
838.131	24654
838.269	24414
838.406	24517
838.544	24388
838.681	24369
838.819	24308
838.956	24064
839.094	24076
839.231	24152
839.369	24273
839.506	24483
839.643	24376
839.781	24155
839.918	23908
840.055	24163
840.193	24167
840.33	24060
840.467	24133
840.604	23977
840.742	24471
840.879	23969
841.016	23988
841.153	23851
841.29	24167
841.427	23977
841.564	24030
841.701	24003
841.838	24022
841.975	23942
842.112	24011
842.249	23840
842.385	23802
842.522	24053
842.659	23973
842.796	23630
842.933	23748
843.069	23699
843.206	23786
843.343	23870
843.479	23684
843.616	23817
843.752	23634
843.889	23577
844.025	23798
844.162	23562
844.298	23630
844.435	23592
844.571	23528
844.708	23615
844.844	23733
844.98	23687
845.117	23551
845.253	23406
845.389	23478
845.525	23455
845.661	23353
845.798	23379
845.934	23307
846.07	23326
846.206	23345
846.342	23391
846.478	23250
846.614	23025
846.75	22968
846.886	22965
847.022	23105
847.158	23083
847.294	23113
847.429	23132
847.565	23003
847.701	23239
847.837	22733
847.972	22717
848.108	22942
848.244	22911
848.379	22702
848.515	22615
848.65	22596
848.786	22668
848.921	22596
849.057	22687
849.192	22725
849.328	22618
849.463	22584
849.598	22527
849.734	22516
849.869	22417
850.004	22546
850.14	22478
850.275	22436
850.41	22363
850.545	22398
850.68	22322
850.815	22493
850.95	22303
851.085	22557
851.22	22481
851.355	22451
851.49	22299
851.625	22478
851.76	22337
851.895	22268
852.03	22257
852.165	22382
852.299	22485
852.434	22500
852.569	22394
852.703	22382
852.838	22508
852.973	22508
853.107	22436
853.242	22280
853.376	22128
853.511	22006
853.645	22143
853.78	22299
853.914	22211
854.048	22173
854.183	22120
854.317	22211
854.451	22485
854.585	22036
854.72	22177
854.854	22268
854.988	22116
855.122	22200
855.256	21972
855.39	22219
855.524	22211
855.658	22131
855.792	22181
855.926	22185
856.06	22143
856.194	22253
856.327	22169
856.461	22139
856.595	22154
856.729	22226
856.862	22390
856.996	22215
857.13	22333
857.263	22223
857.397	22268
857.53	22200
857.664	22310
857.797	22185
857.931	22196
858.064	22192
858.197	22318
858.331	22139
858.464	22032
858.597	22032
858.731	22105
858.864	22048
858.997	22185
859.13	22238
859.263	22139
859.396	22219
859.529	22059
859.662	22249
859.795	22257
859.928	22162
860.061	22303
860.194	22493
860.327	22215
860.46	22284
860.592	22405
860.725	22455
860.858	22352
860.99	22398
861.123	21987
861.256	22116
861.388	22112
861.521	22991
861.653	22021
861.786	22082
861.918	21953
862.05	21991
862.183	22173
862.315	22124
862.447	22109
862.58	22112
862.712	21960
862.844	21785
862.976	21964
863.108	22070
863.24	22249
863.372	21869
863.504	21804
863.636	21915
863.768	21899
863.9	21720
864.032	21770
864.164	21698
864.296	21850
864.428	21911
864.559	21876
864.691	21895
864.823	21922
864.954	21755
865.086	21850
865.217	21755
865.349	21854
865.48	21778
865.612	21755
865.743	21922
865.875	21819
866.006	21675
866.137	21739
866.269	21797
866.4	21648
866.531	21770
866.662	21732
866.793	21606
866.924	21724
867.055	21667
867.186	21728
867.317	21686
867.448	21679
867.579	21648
867.71	21614
867.841	21633
867.972	21663
868.103	21717
868.233	21648
868.364	21698
868.495	21739
868.625	21972
868.756	22055
868.886	21975
869.017	21964
869.147	22051
869.278	22116
869.408	21964
869.539	21960
869.669	21968
869.799	22006
869.929	22059
870.06	21968
870.19	22276
870.32	22211
870.45	22451
870.58	22265
870.71	22462
870.84	22367
870.97	22409
871.1	22348
871.23	22611
871.36	22474
871.489	22413
871.619	22493
871.749	22557
871.879	22599
872.008	22687
872.138	22535
872.267	22588
872.397	22413
872.526	22447
872.656	22455
872.785	22417
872.915	22390
873.044	22634
873.173	22569
873.303	22577
873.432	22577
873.561	22660
873.69	22615
873.819	22462
873.948	22645
874.077	22573
874.206	22630
874.335	22630
874.464	22634
874.593	22885
874.722	22748
874.851	22858
874.979	22831
875.108	22771
875.237	22915
875.365	22717
875.494	22809
875.623	22843
875.751	22736
875.88	22923
876.008	22824
876.136	22972
876.265	23189
876.393	23242
876.521	23212
876.65	23265
876.778	23337
876.906	23216
877.034	23124
877.162	23151
877.29	23181
877.418	23170
877.546	23109
877.674	23128
877.802	23094
877.93	23166
878.058	23044
878.185	22957
878.313	23052
878.441	23041
878.568	22847
878.696	23147
878.824	23151
878.951	23235
879.079	23303
879.206	23410
879.333	23326
879.461	23029
879.588	23136
879.715	23246
879.842	23356
879.97	23181
880.097	22957
880.224	22927
880.351	22866
880.478	22919
880.605	22968
880.732	22748
880.859	23155
880.986	22923
881.112	22831
881.239	22850
881.366	22554
881.493	22436
881.619	22584
881.746	22443
881.872	22478
881.999	22344
882.125	22489
882.252	22561
882.378	22417
882.505	22580
882.631	22352
882.757	22215
882.883	22325
883.01	22192
883.136	22154
883.262	22059
883.388	22048
883.514	22238
883.64	22230
883.766	22143
883.892	21934
884.018	21842
884.143	22040
884.269	22169
884.395	21812
884.52	21705
884.646	21778
884.772	21778
884.897	21751
885.023	21922
885.148	21876
885.274	21949
885.399	21880
885.524	21880
885.65	21903
885.775	21915
885.9	21816
886.025	21930
886.15	21895
886.275	21625
886.4	21800
886.525	21876
886.65	21717
886.775	21770
886.9	21907
887.025	22013
887.149	21736
887.274	21629
887.399	21538
887.523	21648
887.648	21519
887.773	21477
887.897	21606
888.021	21583
888.146	21504
888.27	21778
888.395	21682
888.519	21599
888.643	21629
888.767	21614
888.891	21401
889.015	21378
889.139	21416
889.263	21424
889.387	21370
889.511	21583
889.635	21485
889.759	21469
889.883	21389
890.006	21355
890.13	21466
890.254	21222
890.377	21207
890.501	21062
890.624	20948
890.748	21135
890.871	20948
890.995	20986
891.118	20807
891.241	20941
891.364	20864
891.488	21017
891.611	21009
891.734	20952
891.857	20895
891.98	20967
892.103	21077
892.226	20948
892.349	20861
892.471	20739
892.594	20830
892.717	20902
892.839	20781
892.962	20861
893.085	20933
893.207	20792
893.33	20777
893.452	20777
893.575	20929
893.697	20762
893.819	20929
893.941	21051
894.064	21032
894.186	20678
894.308	20781
894.43	20895
894.552	20975
894.674	21024
894.796	20640
894.918	20796
895.04	20804
895.161	20845
895.283	20788
895.405	20788
895.526	20807
895.648	20724
895.769	20845
895.891	20773
896.012	20910
896.134	20823
896.255	20765
896.376	20777
896.498	20807
896.619	20868
896.74	20819
896.861	20826
896.982	21032
897.103	21157
897.224	21070
897.345	21062
897.466	20921
897.587	21005
897.708	21230
897.828	21036
897.949	20975
898.07	20788
898.19	20952
898.311	21169
898.431	20777
898.552	20963
898.672	21161
898.792	21047
898.913	21013
899.033	20830
899.153	20739
899.273	20602
899.393	20701
899.513	20731
899.633	20792
899.753	20788
899.873	20701
899.993	20773
900.113	20636
900.232	20689
900.352	20701
900.472	20602
900.591	20492
900.711	20457
900.83	20366
900.95	20670
901.069	20632
901.189	20423
901.308	20145
901.427	20043
901.546	20012
901.665	20069
901.784	20043
901.904	20016
902.023	19830
902.141	19662
902.26	19674
902.379	19635
902.498	19605
902.617	19635
902.735	19708
902.854	19685
902.973	19525
903.091	19209
903.21	19285
903.328	19164
903.446	19084
903.565	18985
903.683	19110
903.801	18878
903.919	18989
904.038	18966
904.156	18894
904.274	18977
904.392	18951
904.51	18741
904.627	18741
904.745	18909
904.863	18844
904.981	18585
905.098	18483
905.216	18452
905.334	18483
905.451	18445
905.569	18483
905.686	18547
905.803	18353
905.921	18304
906.038	18372
906.155	18262
906.272	18083
906.389	18216
906.506	17882
906.623	17927
906.74	17984
906.857	17813
906.974	17935
907.091	18068
907.208	18194
907.324	17965
907.441	17893
907.557	17714
907.674	17630
907.79	17665
907.907	17745
908.023	17790
908.139	17764
908.256	17691
908.372	17661
908.488	17539
908.604	17589
908.72	17433
908.836	17349
908.952	17360
909.068	17421
909.184	17562
909.3	17379
909.415	17539
909.531	17566
909.647	17254
909.762	17265
909.878	17136
909.993	17128
910.108	17105
910.224	16980
910.339	17147
910.454	17010
910.57	16991
910.685	16961
910.8	17147
910.915	17037
911.03	16938
911.145	16748
911.259	16664
911.374	16725
911.489	16634
911.604	16599
911.718	16375
911.833	16462
911.947	16443
912.062	16329
912.176	16531
912.291	16569
912.405	16470
912.519	16721
912.633	16706
912.748	16554
912.862	16390
912.976	16257
913.09	16090
913.204	16192
913.318	16196
913.431	16421
913.545	16390
913.659	16299
913.772	16272
913.886	16147
914	15972
914.113	16188
914.226	16120
914.34	16143
914.453	15987
914.566	16090
914.68	15956
914.793	15846
914.906	15884
915.019	15679
915.132	15671
915.245	15690
915.358	15663
915.47	15660
915.583	15576
915.696	15675
915.809	15739
915.921	15816
916.034	15500
916.146	15580
916.259	15504
916.371	15694
916.483	15485
916.595	15462
916.708	15477
916.82	15466
916.932	15439
917.044	15454
917.156	15416
917.268	15302
917.38	15275
917.491	15176
917.603	15287
917.715	15298
917.826	15382
917.938	15165
918.049	15055
918.161	15298
918.272	15424
918.384	15348
918.495	15237
918.606	15066
918.717	14971
918.828	15184
918.939	15142
919.05	14941
919.161	14956
919.272	14925
919.383	14910
919.494	15028
919.604	15188
919.715	15081
919.826	14921
919.936	14952
920.047	15081
920.157	15047
920.267	15074
920.378	14948
920.488	14952
920.598	15184
920.708	15195
920.818	15123
920.928	15108
921.038	15359
921.148	15260
921.258	14944
921.368	14750
921.477	14804
921.587	14678
921.697	14579
921.806	14716
921.916	14526
922.025	14442
922.134	14396
922.244	14336
922.353	14366
922.462	14244
922.571	14073
922.68	14088
922.789	14050
922.898	13974
923.007	13947
923.116	14005
923.224	13921
923.333	13940
923.442	13757
923.55	13879
923.659	13856
923.767	13803
923.876	13830
923.984	13921
924.092	13658
924.201	13769
924.309	13814
924.417	13708
924.525	13681
924.633	13597
924.741	14362
924.849	13468
924.956	13563
925.064	13422
925.172	13263
925.279	13301
925.387	13384
925.494	13388
925.602	13575
925.709	13358
925.816	13164
925.924	13304
926.031	13449
926.138	13354
926.245	13396
926.352	13327
926.459	13362
926.566	13441
926.673	13251
926.779	13065
926.886	13088
926.993	12890
927.099	12932
927.206	12886
927.312	12890
927.419	12897
927.525	12886
927.631	12932
927.737	12722
927.843	12768
927.95	12707
928.056	12707
928.162	12749
928.267	12776
928.373	13400
928.479	12791
928.585	12623
928.69	12730
928.796	12726
928.901	12582
929.007	12494
929.112	12601
929.218	12570
929.323	12479
929.428	12429
929.533	12551
929.638	12342
929.743	12475
929.848	12479
929.953	12365
930.058	12388
930.163	12163
930.267	12194
930.372	12258
930.477	12098
930.581	12292
930.685	12190
930.79	12038
930.894	12064
930.998	11901
931.103	12083
931.207	11828
931.311	11653
931.415	11509
931.519	11353
931.623	11493
