Data from test_V78500241_1071.txt Node
Date: Fri Mar 25 15:49:13 CST 2022
User: usil
Spectrometer: V785-0024
Trigger mode: 0
Integration Time (sec): 4.000000E-1
Scans to average: 1
Nonlinearity correction enabled: false
Boxcar width: 0
Storing dark spectrum: false
XAxis mode: Wavelengths
Number of Pixels in Spectrum: 1024
>>>>>Begin Spectral Data<<<<<
801.071	28519
801.214	28386
801.356	28124
801.499	27979
801.641	27922
801.783	27888
801.926	27953
802.068	28048
802.211	27869
802.353	27876
802.496	27701
802.638	27622
802.78	27519
802.923	27614
803.065	27557
803.208	27599
803.35	27580
803.492	27542
803.635	27778
803.777	27759
803.919	27736
804.061	28059
804.204	27869
804.346	27831
804.488	27759
804.63	27762
804.773	27819
804.915	27827
805.057	27922
805.199	27823
805.341	27975
805.483	27907
805.626	28025
805.768	27823
805.91	27922
806.052	27937
806.194	27812
806.336	28204
806.478	27911
806.62	27922
806.762	28010
806.904	28242
807.046	28341
807.188	28268
807.33	28459
807.472	28535
807.614	28447
807.756	28417
807.898	28173
808.04	28268
808.182	28310
808.324	28455
808.465	28478
808.607	28485
808.749	28660
808.891	28599
809.033	28812
809.174	28774
809.316	28580
809.458	28656
809.6	28637
809.741	28687
809.883	28801
810.025	29010
810.166	28869
810.308	29003
810.45	28904
810.591	28847
810.733	28706
810.875	28702
811.016	28626
811.158	28523
811.299	28752
811.441	28786
811.582	28755
811.724	28767
811.865	28653
812.007	28660
812.148	28694
812.29	28839
812.431	28873
812.573	29003
812.714	29117
812.855	29250
812.997	29265
813.138	29547
813.279	29284
813.421	29269
813.562	29269
813.703	28934
813.845	28797
813.986	28599
814.127	28447
814.268	28276
814.41	28382
814.551	28238
814.692	28527
814.833	28405
814.974	28341
815.115	28421
815.256	28367
815.397	28375
815.539	28177
815.68	28158
815.821	28093
815.962	28177
816.103	28162
816.244	28055
816.385	27991
816.526	27994
816.666	27911
816.807	27720
816.948	27797
817.089	27793
817.23	27739
817.371	27739
817.512	27724
817.653	27762
817.793	27732
817.934	27701
818.075	27804
818.216	27732
818.356	27625
818.497	27557
818.638	27481
818.778	27488
818.919	27294
819.06	27431
819.2	27511
819.341	27652
819.481	27656
819.622	27724
819.762	27903
819.903	27949
820.043	27949
820.184	27831
820.324	27911
820.465	27914
820.605	27975
820.746	27903
820.886	27698
821.026	27778
821.167	27720
821.307	27823
821.447	27736
821.588	27618
821.728	27496
821.868	27302
822.008	27336
822.149	27321
822.289	27116
822.429	26830
822.569	26724
822.709	26864
822.849	26674
822.99	26587
823.13	26678
823.27	26663
823.41	26583
823.55	26431
823.69	26461
823.83	26609
823.97	26526
824.11	26408
824.25	26377
824.389	26343
824.529	26290
824.669	26305
824.809	26457
824.949	26446
825.089	26393
825.228	26358
825.368	26195
825.508	26282
825.648	26218
825.787	26324
825.927	26351
826.067	26122
826.206	26248
826.346	26142
826.485	26320
826.625	26195
826.765	26381
826.904	26195
827.044	26012
827.183	25936
827.323	25944
827.462	26069
827.601	25856
827.741	25868
827.88	25818
828.02	25822
828.159	25894
828.298	25932
828.437	25974
828.577	25875
828.716	25974
828.855	25860
828.994	25674
829.134	25731
829.273	25662
829.412	25559
829.551	25575
829.69	25582
829.829	25613
829.968	25681
830.107	25628
830.246	25628
830.385	25567
830.524	25434
830.663	25521
830.802	25251
830.941	25133
831.08	25164
831.219	25255
831.357	25278
831.496	25343
831.635	25251
831.774	25187
831.913	25141
832.051	25027
832.19	24985
832.329	24981
832.467	24947
832.606	24821
832.744	24856
832.883	24829
833.022	24848
833.16	24996
833.299	24802
833.437	25023
833.576	25034
833.714	24901
833.852	25057
833.991	24954
834.129	24992
834.267	24939
834.406	24890
834.544	25110
834.682	25046
834.821	24859
834.959	25103
835.097	24901
835.235	24939
835.373	25031
835.511	24924
835.65	24779
835.788	24738
835.926	24772
836.064	24692
836.202	24658
836.34	24871
836.478	24760
836.615	24806
836.753	24734
836.891	24901
837.029	24734
837.167	24730
837.305	24654
837.443	24776
837.58	24623
837.718	24604
837.856	24612
837.993	24559
838.131	24722
838.269	24528
838.406	24528
838.544	24441
838.681	24159
838.819	24281
838.956	24064
839.094	24110
839.231	24030
839.369	24148
839.506	24376
839.643	24281
839.781	24045
839.918	24110
840.055	24064
840.193	24038
840.33	23866
840.467	23931
840.604	24114
840.742	24254
840.879	23870
841.016	23885
841.153	23794
841.29	24015
841.427	23923
841.564	23992
841.701	23942
841.838	23961
841.975	23897
842.112	23790
842.249	23832
842.385	23627
842.522	23893
842.659	23786
842.796	23619
842.933	23756
843.069	23592
843.206	23684
843.343	23843
843.479	23767
843.616	23710
843.752	23554
843.889	23684
844.025	23779
844.162	23402
844.298	23528
844.435	23433
844.571	23421
844.708	23558
844.844	23699
844.98	23642
845.117	23585
845.253	23452
845.389	23395
845.525	23349
845.661	23387
845.798	23280
845.934	23376
846.07	23216
846.206	23151
846.342	23448
846.478	23174
846.614	23060
846.75	22877
846.886	22847
847.022	22949
847.158	23151
847.294	22927
847.429	22896
847.565	22987
847.701	23208
847.837	22721
847.972	22694
848.108	22850
848.244	22740
848.379	22569
848.515	22611
848.65	22493
848.786	22615
848.921	22698
849.057	22630
849.192	22561
849.328	22580
849.463	22611
849.598	22443
849.734	22417
849.869	22303
850.004	22280
850.14	22363
850.275	22207
850.41	22230
850.545	22272
850.68	22344
850.815	22409
850.95	22276
851.085	22455
851.22	22337
851.355	22284
851.49	22246
851.625	22344
851.76	22291
851.895	22257
852.03	22226
852.165	22375
852.299	22371
852.434	22341
852.569	22451
852.703	22280
852.838	22360
852.973	22546
853.107	22478
853.242	22280
853.376	22196
853.511	22086
853.645	22059
853.78	22325
853.914	22124
854.048	21983
854.183	21979
854.317	22116
854.451	22268
854.585	22131
854.72	22070
854.854	22295
854.988	22169
855.122	22093
855.256	21998
855.39	22135
855.524	22306
855.658	22238
855.792	22143
855.926	22276
856.06	22143
856.194	22200
856.327	22093
856.461	22131
856.595	22036
856.729	22112
856.862	22268
856.996	22215
857.13	22158
857.263	22230
857.397	22196
857.53	22246
857.664	22177
857.797	22265
857.931	22261
858.064	22196
858.197	22360
858.331	22181
858.464	22158
858.597	21994
858.731	22078
858.864	22185
858.997	22097
859.13	22086
859.263	22188
859.396	22120
859.529	22025
859.662	22207
859.795	22109
859.928	22051
860.061	22188
860.194	22310
860.327	22105
860.46	22226
860.592	22291
860.725	22188
860.858	22314
860.99	22063
861.123	21991
861.256	22105
861.388	22238
861.521	22850
861.653	21918
861.786	21934
861.918	22032
862.05	22025
862.183	21892
862.315	22143
862.447	22196
862.58	22029
862.712	21915
862.844	21762
862.976	21915
863.108	21842
863.24	22348
863.372	21663
863.504	21789
863.636	21907
863.768	21865
863.9	21812
864.032	21808
864.164	21656
864.296	21861
864.428	21899
864.559	21846
864.691	21884
864.823	21804
864.954	21934
865.086	21816
865.217	21682
865.349	21652
865.48	21747
865.612	21778
865.743	21861
865.875	21667
866.006	21618
866.137	21720
866.269	21759
866.4	21663
866.531	21648
866.662	21671
866.793	21728
866.924	21572
867.055	21808
867.186	21576
867.317	21583
867.448	21557
867.579	21618
867.71	21557
867.841	21599
867.972	21633
868.103	21747
868.233	21724
868.364	21686
868.495	21804
868.625	21937
868.756	21964
868.886	21778
869.017	21907
869.147	21899
869.278	21972
869.408	22040
869.539	21915
869.669	21956
869.799	22002
869.929	22006
870.06	22025
870.19	22135
870.32	22059
870.45	22207
870.58	22253
870.71	22360
870.84	22272
870.97	22280
871.1	22253
871.23	22440
871.36	22538
871.489	22325
871.619	22519
871.749	22390
871.879	22527
872.008	22500
872.138	22527
872.267	22413
872.397	22375
872.526	22318
872.656	22394
872.785	22284
872.915	22500
873.044	22649
873.173	22527
873.303	22504
873.432	22615
873.561	22561
873.69	22493
873.819	22607
873.948	22584
874.077	22508
874.206	22462
874.335	22432
874.464	22519
874.593	22889
874.722	22694
874.851	22744
874.979	22713
875.108	22793
875.237	22618
875.365	22694
875.494	22664
875.623	22706
875.751	22577
875.88	22729
876.008	22824
876.136	22976
876.265	23166
876.393	23307
876.521	23265
876.65	23113
876.778	23200
876.906	23060
877.034	23071
877.162	23159
877.29	23014
877.418	23041
877.546	23056
877.674	23113
877.802	22999
877.93	23052
878.058	23010
878.185	22946
878.313	22957
878.441	23105
878.568	22805
878.696	23014
878.824	22980
878.951	23086
879.079	23223
879.206	23360
879.333	23277
879.461	23136
879.588	23204
879.715	23250
879.842	23368
879.97	23098
880.097	22919
880.224	22892
880.351	22736
880.478	22889
880.605	22797
880.732	22892
880.859	23048
880.986	22915
881.112	22949
881.239	22691
881.366	22592
881.493	22504
881.619	22398
881.746	22371
881.872	22542
881.999	22508
882.125	22272
882.252	22542
882.378	22485
882.505	22504
882.631	22356
882.757	22242
882.883	22352
883.01	22185
883.136	22101
883.262	22036
883.388	21960
883.514	22143
883.64	22154
883.766	21953
883.892	21846
884.018	21991
884.143	22078
884.269	22158
884.395	21865
884.52	21701
884.646	21808
884.772	21766
884.897	21618
885.023	21804
885.148	21953
885.274	21861
885.399	21797
885.524	21778
885.65	21762
885.775	21823
885.9	21736
886.025	21876
886.15	21781
886.275	21762
886.4	21816
886.525	21778
886.65	21690
886.775	21728
886.9	21812
887.025	21953
887.149	21846
887.274	21576
887.399	21515
887.523	21549
887.648	21473
887.773	21606
887.897	21686
888.021	21496
888.146	21523
888.27	21679
888.395	21717
888.519	21507
888.643	21614
888.767	21606
888.891	21431
889.015	21389
889.139	21359
889.263	21466
889.387	21431
889.511	21603
889.635	21420
889.759	21405
889.883	21344
890.006	21424
890.13	21321
890.254	21226
890.377	21302
890.501	20967
890.624	21146
890.748	21146
890.871	21017
890.995	20937
891.118	20735
891.241	20918
891.364	20944
891.488	21005
891.611	20990
891.734	20990
891.857	20876
891.98	20895
892.103	20925
892.226	20944
892.349	20941
892.471	20651
892.594	20842
892.717	20826
892.839	20739
892.962	20807
893.085	20906
893.207	20788
893.33	20716
893.452	20743
893.575	20834
893.697	20640
893.819	21036
893.941	21062
894.064	20971
894.186	20701
894.308	20655
894.43	20845
894.552	20895
894.674	20769
894.796	20731
894.918	20777
895.04	20682
895.161	20868
895.283	20902
895.405	20724
895.526	20883
895.648	20724
895.769	20716
895.891	20933
896.012	20899
896.134	20842
896.255	20899
896.376	20781
896.498	20914
896.619	20842
896.74	20792
896.861	20845
896.982	21017
897.103	21249
897.224	21066
897.345	20952
897.466	20963
897.587	20918
897.708	20971
897.828	20994
897.949	21005
898.07	20899
898.19	20944
898.311	21085
898.431	20899
898.552	21020
898.672	20979
898.792	21024
898.913	21024
899.033	20918
899.153	20914
899.273	20701
899.393	20705
899.513	20644
899.633	20651
899.753	20853
899.873	20579
899.993	20705
900.113	20632
900.232	20629
900.352	20602
900.472	20602
900.591	20480
900.711	20568
900.83	20549
900.95	20552
901.069	20541
901.189	20351
901.308	20157
901.427	20157
901.546	20050
901.665	20103
901.784	20111
901.904	19913
902.023	19947
902.141	19571
902.26	19723
902.379	19571
902.498	19491
902.617	19647
902.735	19597
902.854	19476
902.973	19502
903.091	19297
903.21	19278
903.328	19198
903.446	19156
903.565	19160
903.683	19148
903.801	18993
903.919	19042
904.038	18993
904.156	18795
904.274	18958
904.392	18878
904.51	18772
904.627	18684
904.745	18825
904.863	18696
904.981	18654
905.098	18456
905.216	18475
905.334	18604
905.451	18525
905.569	18490
905.686	18525
905.803	18399
905.921	18251
906.038	18308
906.155	18369
906.272	18194
906.389	18174
906.506	17939
906.623	18049
906.74	17912
906.857	17939
906.974	17859
907.091	18015
907.208	18079
907.324	18049
907.441	17809
907.557	17809
907.674	17699
907.79	17798
907.907	17649
908.023	17771
908.139	17703
908.256	17680
908.372	17551
908.488	17661
908.604	17448
908.72	17349
908.836	17463
908.952	17353
909.068	17448
909.184	17608
909.3	17414
909.415	17490
909.531	17387
909.647	17140
909.762	17242
909.878	16949
909.993	17105
910.108	17178
910.224	17079
910.339	17098
910.454	16942
910.57	16885
910.685	16782
910.8	17307
910.915	17147
911.03	16968
911.145	16729
911.259	16717
911.374	16733
911.489	16500
911.604	16580
911.718	16447
911.833	16538
911.947	16432
912.062	16306
912.176	16478
912.291	16466
912.405	16405
912.519	16653
912.633	16611
912.748	16436
912.862	16413
912.976	16272
913.09	16090
913.204	16226
913.318	16215
913.431	16249
913.545	16413
913.659	16409
913.772	16181
913.886	16131
914	16048
914.113	16162
914.226	16067
914.34	16120
914.453	15934
914.566	16006
914.68	15922
914.793	15854
914.906	15739
915.019	15766
915.132	15477
915.245	15644
915.358	15614
915.47	15595
915.583	15625
915.696	15690
915.809	15667
915.921	15663
916.034	15622
916.146	15469
916.259	15538
916.371	15629
916.483	15576
916.595	15530
916.708	15496
916.82	15450
916.932	15412
917.044	15416
917.156	15332
917.268	15272
917.38	15439
917.491	15268
917.603	15226
917.715	15428
917.826	15279
917.938	15237
918.049	15123
918.161	15192
918.272	15298
918.384	15359
918.495	15226
918.606	15047
918.717	15066
918.828	15081
918.939	15013
919.05	14994
919.161	15039
919.272	14838
919.383	14891
919.494	15039
919.604	15081
919.715	15017
919.826	14948
919.936	14902
920.047	15104
920.157	14963
920.267	15074
920.378	15036
920.488	15001
920.598	15066
920.708	15218
920.818	15119
920.928	15043
921.038	15249
921.148	15199
921.258	14982
921.368	14804
921.477	14678
921.587	14678
921.697	14636
921.806	14746
921.916	14518
922.025	14507
922.134	14366
922.244	14301
922.353	14404
922.462	14195
922.571	14164
922.68	14046
922.789	14027
922.898	13974
923.007	13845
923.116	13970
923.224	13868
923.333	13925
923.442	13841
923.55	13738
923.659	13765
923.767	13868
923.876	13715
923.984	13868
924.092	13689
924.201	13632
924.309	13715
924.417	13712
924.525	13578
924.633	13616
924.741	14370
924.849	13521
924.956	13563
925.064	13445
925.172	13289
925.279	13419
925.387	13365
925.494	13304
925.602	13483
925.709	13426
925.816	13312
925.924	13312
926.031	13346
926.138	13327
926.245	13373
926.352	13198
926.459	13388
926.566	13483
926.673	13225
926.779	13091
926.886	13088
926.993	12897
927.099	12935
927.206	12875
927.312	12833
927.419	12954
927.525	12863
927.631	12928
927.737	12844
927.843	12749
927.95	12654
928.056	12764
928.162	12707
928.267	12806
928.373	13289
928.479	12814
928.585	12525
928.69	12604
928.796	12719
928.901	12601
929.007	12426
929.112	12635
929.218	12506
929.323	12471
929.428	12334
929.533	12563
929.638	12357
929.743	12517
929.848	12395
929.953	12418
930.058	12292
930.163	12167
930.267	12140
930.372	12273
930.477	12121
930.581	12327
930.685	12251
930.79	11942
930.894	12053
930.998	11992
931.103	12083
931.207	11805
931.311	11630
931.415	11646
931.519	11372
931.623	11368
