Data from test_V78500241_1820.txt Node
Date: Fri Mar 25 15:54:24 CST 2022
User: usil
Spectrometer: V785-0024
Trigger mode: 0
Integration Time (sec): 4.000000E-1
Scans to average: 1
Nonlinearity correction enabled: false
Boxcar width: 0
Storing dark spectrum: false
XAxis mode: Wavelengths
Number of Pixels in Spectrum: 1024
>>>>>Begin Spectral Data<<<<<
801.071	28527
801.214	28462
801.356	28211
801.499	28150
801.641	28223
801.783	28048
801.926	28112
802.068	28143
802.211	28002
802.353	27899
802.496	27854
802.638	27739
802.78	27747
802.923	27785
803.065	27618
803.208	27614
803.35	27762
803.492	27926
803.635	28017
803.777	27994
803.919	27972
804.061	28284
804.204	28044
804.346	28006
804.488	27907
804.63	28017
804.773	28051
804.915	28067
805.057	28200
805.199	28101
805.341	28086
805.483	28128
805.626	28158
805.768	28097
805.91	28116
806.052	28093
806.194	28147
806.336	28325
806.478	28143
806.62	28097
806.762	28265
806.904	28375
807.046	28717
807.188	28584
807.33	28691
807.472	28645
807.614	28531
807.756	28637
807.898	28535
808.04	28459
808.182	28447
808.324	28504
808.465	28504
808.607	28679
808.749	28869
808.891	28831
809.033	28999
809.174	28892
809.316	28820
809.458	28854
809.6	28816
809.741	28934
809.883	28858
810.025	29269
810.166	29090
810.308	29090
810.45	29212
810.591	29067
810.733	28733
810.875	28828
811.016	28774
811.158	28725
811.299	28881
811.441	29102
811.582	29098
811.724	28927
811.865	28748
812.007	28862
812.148	28877
812.29	28915
812.431	29064
812.573	29170
812.714	29372
812.855	29341
812.997	29478
813.138	29592
813.279	29452
813.421	29410
813.562	29277
813.703	29151
813.845	29204
813.986	28831
814.127	28710
814.268	28637
814.41	28577
814.551	28470
814.692	28592
814.833	28535
814.974	28512
815.115	28542
815.256	28592
815.397	28592
815.539	28573
815.68	28455
815.821	28261
815.962	28333
816.103	28428
816.244	28211
816.385	28131
816.526	28169
816.666	27979
816.807	27816
816.948	27914
817.089	27991
817.23	27850
817.371	27789
817.512	27983
817.653	27838
817.793	27785
817.934	27907
818.075	27956
818.216	27884
818.356	27831
818.497	27743
818.638	27583
818.778	27599
818.919	27660
819.06	27682
819.2	27755
819.341	27778
819.481	27880
819.622	27914
819.762	28280
819.903	28169
820.043	28051
820.184	27991
820.324	28013
820.465	28078
820.605	28040
820.746	28048
820.886	27835
821.026	27930
821.167	28010
821.307	27945
821.447	27865
821.588	27762
821.728	27724
821.868	27549
822.008	27329
822.149	27344
822.289	27359
822.429	27195
822.569	27024
822.709	27199
822.849	26845
822.99	26842
823.13	26773
823.27	26883
823.41	26655
823.55	26568
823.69	26636
823.83	26830
823.97	26568
824.11	26476
824.25	26442
824.389	26625
824.529	26537
824.669	26659
824.809	26579
824.949	26541
825.089	26537
825.228	26541
825.368	26320
825.508	26358
825.648	26442
825.787	26469
825.927	26446
826.067	26267
826.206	26374
826.346	26412
826.485	26438
826.625	26336
826.765	26511
826.904	26339
827.044	26172
827.183	26187
827.323	26096
827.462	26020
827.601	26058
827.741	26145
827.88	26069
828.02	25959
828.159	26016
828.298	26001
828.437	26043
828.577	25860
828.716	26195
828.855	26035
828.994	25753
829.134	25727
829.273	25856
829.412	25833
829.551	25841
829.69	25826
829.829	25734
829.968	25940
830.107	25864
830.246	25712
830.385	25738
830.524	25734
830.663	25464
830.802	25479
830.941	25381
831.08	25460
831.219	25487
831.357	25491
831.496	25586
831.635	25358
831.774	25350
831.913	25244
832.051	25187
832.19	25190
832.329	25122
832.467	25137
832.606	25034
832.744	24973
832.883	25137
833.022	25015
833.16	24989
833.299	25152
833.437	25099
833.576	25122
833.714	25114
833.852	25198
833.991	25080
834.129	25202
834.267	25232
834.406	25183
834.544	25118
834.682	25129
834.821	25072
834.959	25354
835.097	25084
835.235	25194
835.373	25129
835.511	25164
835.65	24992
835.788	25008
835.926	24833
836.064	24787
836.202	24711
836.34	24882
836.478	25004
836.615	24829
836.753	24867
836.891	24977
837.029	24966
837.167	24966
837.305	24882
837.443	24768
837.58	24753
837.718	24753
837.856	24783
837.993	24764
838.131	24730
838.269	24669
838.406	24555
838.544	24620
838.681	24403
838.819	24372
838.956	24266
839.094	24209
839.231	24254
839.369	24399
839.506	24574
839.643	24551
839.781	24361
839.918	24171
840.055	24224
840.193	24114
840.33	24121
840.467	24167
840.604	24186
840.742	24422
840.879	24114
841.016	23992
841.153	24095
841.29	24216
841.427	24079
841.564	24083
841.701	24053
841.838	24076
841.975	23969
842.112	24003
842.249	23992
842.385	23889
842.522	24068
842.659	23965
842.796	23798
842.933	23996
843.069	23824
843.206	23832
843.343	23855
843.479	23923
843.616	23824
843.752	23630
843.889	23714
844.025	23931
844.162	23623
844.298	23672
844.435	23608
844.571	23547
844.708	23619
844.844	23764
844.98	23851
845.117	23748
845.253	23657
845.389	23421
845.525	23376
845.661	23528
845.798	23471
845.934	23429
846.07	23288
846.206	23414
846.342	23600
846.478	23406
846.614	23162
846.75	23025
846.886	23200
847.022	23220
847.158	23231
847.294	23189
847.429	23170
847.565	23162
847.701	23421
847.837	22915
847.972	22869
848.108	22885
848.244	22908
848.379	22900
848.515	22687
848.65	22630
848.786	22729
848.921	22702
849.057	22835
849.192	22759
849.328	22850
849.463	22607
849.598	22645
849.734	22653
849.869	22656
850.004	22516
850.14	22455
850.275	22550
850.41	22466
850.545	22443
850.68	22409
850.815	22542
850.95	22470
851.085	22508
851.22	22596
851.355	22466
851.49	22455
851.625	22466
851.76	22371
851.895	22432
852.03	22436
852.165	22459
852.299	22565
852.434	22569
852.569	22512
852.703	22455
852.838	22481
852.973	22462
853.107	22599
853.242	22363
853.376	22291
853.511	22162
853.645	22322
853.78	22436
853.914	22344
854.048	22215
854.183	22325
854.317	22409
854.451	22466
854.585	22303
854.72	22329
854.854	22402
854.988	22219
855.122	22306
855.256	22150
855.39	22158
855.524	22284
855.658	22333
855.792	22280
855.926	22337
856.06	22242
856.194	22405
856.327	22188
856.461	22261
856.595	22234
856.729	22223
856.862	22367
856.996	22413
857.13	22226
857.263	22352
857.397	22352
857.53	22360
857.664	22344
857.797	22265
857.931	22428
858.064	22440
858.197	22379
858.331	22413
858.464	22276
858.597	22238
858.731	22249
858.864	22284
858.997	22291
859.13	22390
859.263	22409
859.396	22367
859.529	22291
859.662	22249
859.795	22223
859.928	22284
860.061	22443
860.194	22436
860.327	22337
860.46	22356
860.592	22455
860.725	22413
860.858	22508
860.99	22276
861.123	22284
861.256	22169
861.388	22265
861.521	23018
861.653	22128
861.786	22105
861.918	22112
862.05	22181
862.183	22188
862.315	22234
862.447	22188
862.58	22204
862.712	22010
862.844	22002
862.976	22070
863.108	22059
863.24	22409
863.372	21819
863.504	21979
863.636	21987
863.768	22029
863.9	22032
864.032	21895
864.164	21892
864.296	22109
864.428	22173
864.559	22166
864.691	22036
864.823	22002
864.954	22067
865.086	22036
865.217	21987
865.349	21869
865.48	21937
865.612	21865
865.743	22055
865.875	21819
866.006	21876
866.137	21812
866.269	21975
866.4	21918
866.531	21797
866.662	21823
866.793	21785
866.924	21755
867.055	21960
867.186	21831
867.317	21747
867.448	21709
867.579	21747
867.71	21709
867.841	21713
867.972	21781
868.103	21690
868.233	21774
868.364	21800
868.495	21915
868.625	22025
868.756	22188
868.886	21953
869.017	21960
869.147	22173
869.278	22074
869.408	22154
869.539	22021
869.669	22150
869.799	22067
869.929	22109
870.06	22226
870.19	22440
870.32	22272
870.45	22405
870.58	22390
870.71	22485
870.84	22504
870.97	22466
871.1	22512
871.23	22637
871.36	22771
871.489	22455
871.619	22687
871.749	22664
871.879	22740
872.008	22664
872.138	22656
872.267	22721
872.397	22523
872.526	22409
872.656	22413
872.785	22466
872.915	22672
873.044	22748
873.173	22580
873.303	22694
873.432	22580
873.561	22755
873.69	22523
873.819	22706
873.948	22736
874.077	22752
874.206	22626
874.335	22615
874.464	22748
874.593	22809
874.722	22946
874.851	22892
874.979	22801
875.108	22900
875.237	22866
875.365	22854
875.494	22824
875.623	22915
875.751	22919
875.88	22892
876.008	22999
876.136	23109
876.265	23140
876.393	23349
876.521	23269
876.65	23368
876.778	23341
876.906	23155
877.034	23147
877.162	23337
877.29	23052
877.418	23166
877.546	23273
877.674	23128
877.802	23128
877.93	23231
878.058	23212
878.185	23132
878.313	23185
878.441	23223
878.568	23060
878.696	23037
878.824	23200
878.951	23337
879.079	23414
879.206	23531
879.333	23436
879.461	23277
879.588	23425
879.715	23318
879.842	23471
879.97	23246
880.097	23105
880.224	23006
880.351	23155
880.478	23113
880.605	23010
880.732	23090
880.859	23212
880.986	23075
881.112	23071
881.239	22968
881.366	22790
881.493	22812
881.619	22626
881.746	22706
881.872	22580
881.999	22603
882.125	22512
882.252	22691
882.378	22664
882.505	22664
882.631	22493
882.757	22375
882.883	22375
883.01	22253
883.136	22150
883.262	22344
883.388	22150
883.514	22280
883.64	22451
883.766	22116
883.892	22154
884.018	22112
884.143	22261
884.269	22329
884.395	22120
884.52	21964
884.646	21926
884.772	21907
884.897	21747
885.023	21895
885.148	22029
885.274	22135
885.399	22048
885.524	21918
885.65	21987
885.775	22036
885.9	21876
886.025	22093
886.15	21968
886.275	21895
886.4	21838
886.525	21956
886.65	21827
886.775	21926
886.9	21949
887.025	22036
887.149	21937
887.274	21610
887.399	21762
887.523	21656
887.648	21724
887.773	21652
887.897	21720
888.021	21804
888.146	21633
888.27	21880
888.395	21778
888.519	21625
888.643	21781
888.767	21717
888.891	21770
889.015	21591
889.139	21553
889.263	21519
889.387	21637
889.511	21660
889.635	21488
889.759	21435
889.883	21378
890.006	21530
890.13	21564
890.254	21382
890.377	21466
890.501	21161
890.624	21275
890.748	21329
890.871	21161
890.995	21146
891.118	20925
891.241	20960
891.364	21104
891.488	21195
891.611	21043
891.734	20956
891.857	21017
891.98	21077
892.103	21093
892.226	21100
892.349	20986
892.471	20914
892.594	20910
892.717	21013
892.839	20872
892.962	20944
893.085	21028
893.207	20921
893.33	20921
893.452	20792
893.575	20800
893.697	20880
893.819	21058
893.941	21066
894.064	21058
894.186	20693
894.308	20838
894.43	20971
894.552	21173
894.674	20979
894.796	20788
894.918	20971
895.04	20830
895.161	21039
895.283	20986
895.405	20743
895.526	21081
895.648	20975
895.769	20845
895.891	20861
896.012	20990
896.134	21001
896.255	20834
896.376	20887
896.498	20967
896.619	20963
896.74	20982
896.861	21001
896.982	21321
897.103	21374
897.224	21150
897.345	21165
897.466	21043
897.587	21150
897.708	21211
897.828	21192
897.949	21001
898.07	20895
898.19	21093
898.311	21245
898.431	21047
898.552	21142
898.672	21157
898.792	21173
898.913	21119
899.033	20948
899.153	20921
899.273	20762
899.393	20849
899.513	20838
899.633	20925
899.753	20986
899.873	20819
899.993	20941
900.113	20807
900.232	20830
900.352	20720
900.472	20716
900.591	20606
900.711	20693
900.83	20617
900.95	20686
901.069	20781
901.189	20457
901.308	20370
901.427	20145
901.546	20202
901.665	20176
901.784	20214
901.904	20043
902.023	19917
902.141	19738
902.26	19655
902.379	19833
902.498	19681
902.617	19811
902.735	19757
902.854	19624
902.973	19666
903.091	19419
903.21	19369
903.328	19324
903.446	19202
903.565	19091
903.683	19171
903.801	19061
903.919	19190
904.038	19038
904.156	18989
904.274	19012
904.392	18954
904.51	18954
904.627	18825
904.745	18878
904.863	18996
904.981	18635
905.098	18544
905.216	18608
905.334	18730
905.451	18544
905.569	18623
905.686	18608
905.803	18559
905.921	18357
906.038	18502
906.155	18308
906.272	18350
906.389	18273
906.506	18136
906.623	18083
906.74	18155
906.857	17946
906.974	17973
907.091	18178
907.208	18171
907.324	18068
907.441	17961
907.557	17885
907.674	17866
907.79	17847
907.907	17745
908.023	17870
908.139	17817
908.256	17790
908.372	17748
908.488	17676
908.604	17619
908.72	17581
908.836	17547
908.952	17589
909.068	17581
909.184	17646
909.3	17452
909.415	17509
909.531	17516
909.647	17296
909.762	17246
909.878	17220
909.993	17246
910.108	17208
910.224	17216
910.339	17242
910.454	17162
910.57	16965
910.685	17029
910.8	17220
910.915	17121
911.03	17010
911.145	16820
911.259	16710
911.374	16774
911.489	16892
911.604	16710
911.718	16588
911.833	16546
911.947	16451
912.062	16394
912.176	16592
912.291	16603
912.405	16622
912.519	16713
912.633	16793
912.748	16573
912.862	16561
912.976	16367
913.09	16280
913.204	16310
913.318	16432
913.431	16413
913.545	16382
913.659	16371
913.772	16325
913.886	16162
914	16207
914.113	16284
914.226	16284
914.34	16310
914.453	16029
914.566	16215
914.68	16093
914.793	15895
914.906	15846
915.019	15720
915.132	15720
915.245	15720
915.358	15804
915.47	15743
915.583	15781
915.696	15766
915.809	15892
915.921	15846
916.034	15648
916.146	15698
916.259	15625
916.371	15804
916.483	15644
916.595	15564
916.708	15595
916.82	15603
916.932	15454
917.044	15591
917.156	15393
917.268	15393
917.38	15325
917.491	15313
917.603	15363
917.715	15454
917.826	15359
917.938	15332
918.049	15207
918.161	15329
918.272	15447
918.384	15431
918.495	15291
918.606	15222
918.717	15024
918.828	15192
918.939	15138
919.05	15013
919.161	15081
919.272	14918
919.383	14971
919.494	15093
919.604	15412
919.715	15081
919.826	15100
919.936	14982
920.047	15077
920.157	15089
920.267	15203
920.378	15142
920.488	14994
920.598	15195
920.708	15374
920.818	15195
920.928	15222
921.038	15310
921.148	15268
921.258	15005
921.368	14921
921.477	14750
921.587	14826
921.697	14735
921.806	14735
921.916	14571
922.025	14434
922.134	14507
922.244	14377
922.353	14476
922.462	14305
922.571	14180
922.68	14088
922.789	14088
922.898	14081
923.007	13986
923.116	14142
923.224	14024
923.333	13989
923.442	13997
923.55	13921
923.659	13856
923.767	13917
923.876	13833
923.984	13894
924.092	13849
924.201	13795
924.309	13761
924.417	13791
924.525	13818
924.633	13715
924.741	14423
924.849	13457
924.956	13651
925.064	13441
925.172	13403
925.279	13480
925.387	13396
925.494	13506
925.602	13563
925.709	13559
925.816	13384
925.924	13438
926.031	13449
926.138	13476
926.245	13430
926.352	13270
926.459	13365
926.566	13396
926.673	13293
926.779	13206
926.886	13183
926.993	13114
927.099	12985
927.206	12894
927.312	12882
927.419	13069
927.525	13034
927.631	13050
927.737	12875
927.843	12825
927.95	12825
928.056	12817
928.162	12802
928.267	12802
928.373	13438
928.479	12867
928.585	12677
928.69	12795
928.796	12772
928.901	12684
929.007	12563
929.112	12547
929.218	12597
929.323	12566
929.428	12521
929.533	12707
929.638	12452
929.743	12547
929.848	12532
929.953	12460
930.058	12346
930.163	12186
930.267	12167
930.372	12262
930.477	12159
930.581	12464
930.685	12209
930.79	12133
930.894	12026
930.998	12064
931.103	12163
931.207	11908
931.311	11703
931.415	11707
931.519	11486
931.623	11440
