Data from test_V78500241_3440.txt Node
Date: Fri Mar 25 16:05:37 CST 2022
User: usil
Spectrometer: V785-0024
Trigger mode: 0
Integration Time (sec): 4.000000E-1
Scans to average: 1
Nonlinearity correction enabled: false
Boxcar width: 0
Storing dark spectrum: false
XAxis mode: Wavelengths
Number of Pixels in Spectrum: 1024
>>>>>Begin Spectral Data<<<<<
801.071	28854
801.214	28999
801.356	28618
801.499	28577
801.641	28459
801.783	28443
801.926	28565
802.068	28516
802.211	28447
802.353	28523
802.496	28337
802.638	28215
802.78	28135
802.923	28131
803.065	28006
803.208	28120
803.35	28253
803.492	28299
803.635	28485
803.777	28299
803.919	28390
804.061	28656
804.204	28443
804.346	28436
804.488	28367
804.63	28500
804.773	28398
804.915	28603
805.057	28607
805.199	28531
805.341	28645
805.483	28641
805.626	28554
805.768	28565
805.91	28588
806.052	28622
806.194	28508
806.336	28782
806.478	28702
806.62	28615
806.762	28793
806.904	28927
807.046	29102
807.188	29090
807.33	29052
807.472	29102
807.614	29010
807.756	29083
807.898	28957
808.04	28850
808.182	28809
808.324	29022
808.465	29044
808.607	29067
808.749	29368
808.891	29414
809.033	29375
809.174	29505
809.316	29417
809.458	29372
809.6	29345
809.741	29467
809.883	29398
810.025	29726
810.166	29570
810.308	29589
810.45	29760
810.591	29562
810.733	29364
810.875	29322
811.016	29326
811.158	29239
811.299	29471
811.441	29566
811.582	29436
811.724	29326
811.865	29387
812.007	29573
812.148	29345
812.29	29322
812.431	29543
812.573	29653
812.714	29741
812.855	29859
812.997	30022
813.138	30072
813.279	30068
813.421	29935
813.562	29767
813.703	29672
813.845	29539
813.986	29296
814.127	29067
814.268	29033
814.41	29223
814.551	29037
814.692	29212
814.833	29147
814.974	29010
815.115	29006
815.256	28949
815.397	28892
815.539	28999
815.68	28896
815.821	28847
815.962	28797
816.103	28740
816.244	28812
816.385	28710
816.526	28645
816.666	28424
816.807	28242
816.948	28314
817.089	28527
817.23	28497
817.371	28493
817.512	28131
817.653	28337
817.793	28497
817.934	28257
818.075	28371
818.216	28310
818.356	28306
818.497	28226
818.638	28048
818.778	28150
818.919	28139
819.06	28261
819.2	28284
819.341	28542
819.481	28371
819.622	28557
819.762	28744
819.903	28481
820.043	28546
820.184	28504
820.324	28596
820.465	28588
820.605	28519
820.746	28474
820.886	28333
821.026	28455
821.167	28386
821.307	28622
821.447	28443
821.588	28238
821.728	28169
821.868	28109
822.008	27838
822.149	27789
822.289	27918
822.429	27564
822.569	27416
822.709	27561
822.849	27351
822.99	27325
823.13	27363
823.27	27408
823.41	27173
823.55	27100
823.69	27222
823.83	27386
823.97	27085
824.11	27058
824.25	27028
824.389	26902
824.529	27138
824.669	27009
824.809	27108
824.949	27062
825.089	27165
825.228	27096
825.368	26963
825.508	26883
825.648	26925
825.787	26944
825.927	26845
826.067	26876
826.206	26861
826.346	26982
826.485	26994
826.625	26910
826.765	26986
826.904	27009
827.044	26712
827.183	26674
827.323	26594
827.462	26735
827.601	26636
827.741	26644
827.88	26587
828.02	26549
828.159	26549
828.298	26609
828.437	26697
828.577	26465
828.716	26773
828.855	26609
828.994	26473
829.134	26381
829.273	26290
829.412	26358
829.551	26225
829.69	26259
829.829	26244
829.968	26438
830.107	26358
830.246	26404
830.385	26282
830.524	26347
830.663	26081
830.802	26107
830.941	25811
831.08	25944
831.219	26024
831.357	26062
831.496	26103
831.635	25894
831.774	25955
831.913	25746
832.051	25807
832.19	25647
832.329	25700
832.467	25742
832.606	25491
832.744	25518
832.883	25525
833.022	25605
833.16	25590
833.299	25791
833.437	25647
833.576	25586
833.714	25742
833.852	25795
833.991	25738
834.129	25712
834.267	25799
834.406	25571
834.544	25734
834.682	25746
834.821	25601
834.959	25830
835.097	25635
835.235	25677
835.373	25540
835.511	25632
835.65	25620
835.788	25491
835.926	25563
836.064	25304
836.202	25251
836.34	25518
836.478	25567
836.615	25426
836.753	25483
836.891	25460
837.029	25628
837.167	25438
837.305	25499
837.443	25346
837.58	25392
837.718	25479
837.856	25251
837.993	25251
838.131	25259
838.269	25244
838.406	25297
838.544	25213
838.681	25019
838.819	25000
838.956	24783
839.094	24681
839.231	24806
839.369	25031
839.506	24992
839.643	25072
839.781	24814
839.918	24715
840.055	24768
840.193	24726
840.33	24719
840.467	24741
840.604	24749
840.742	24935
840.879	24654
841.016	24654
841.153	24456
841.29	24745
841.427	24593
841.564	24646
841.701	24783
841.838	24490
841.975	24734
842.112	24563
842.249	24525
842.385	24426
842.522	24692
842.659	24475
842.796	24589
842.933	24505
843.069	24334
843.206	24418
843.343	24574
843.479	24479
843.616	24426
843.752	24205
843.889	24270
844.025	24350
844.162	24273
844.298	24300
844.435	24296
844.571	24254
844.708	24262
844.844	24426
844.98	24346
845.117	24338
845.253	24053
845.389	24190
845.525	24079
845.661	24121
845.798	23958
845.934	23996
846.07	23988
846.206	24049
846.342	24216
846.478	23874
846.614	23813
846.75	23558
846.886	23524
847.022	23615
847.158	23558
847.294	23668
847.429	23642
847.565	23684
847.701	23973
847.837	23429
847.972	23429
848.108	23395
848.244	23330
848.379	23376
848.515	23250
848.65	23181
848.786	23261
848.921	23303
849.057	23326
849.192	23383
849.328	23337
849.463	23254
849.598	23143
849.734	23200
849.869	23105
850.004	23056
850.14	23064
850.275	22938
850.41	22911
850.545	23064
850.68	22972
850.815	23124
850.95	23044
851.085	23216
851.22	23166
851.355	23044
851.49	22919
851.625	23083
851.76	23094
851.895	22961
852.03	22904
852.165	23075
852.299	23113
852.434	23029
852.569	23162
852.703	23090
852.838	23044
852.973	23121
853.107	23166
853.242	22972
853.376	22972
853.511	22637
853.645	22752
853.78	23014
853.914	22904
854.048	22797
854.183	22767
854.317	22911
854.451	23010
854.585	22668
854.72	22850
854.854	22927
854.988	22805
855.122	22877
855.256	22805
855.39	22850
855.524	22976
855.658	23003
855.792	22793
855.926	22839
856.06	22885
856.194	22889
856.327	22778
856.461	22687
856.595	22850
856.729	22713
856.862	22900
856.996	22927
857.13	22942
857.263	23048
857.397	22831
857.53	22752
857.664	22850
857.797	22911
857.931	22908
858.064	22881
858.197	22904
858.331	22828
858.464	22805
858.597	22672
858.731	22733
858.864	22858
858.997	22881
859.13	22850
859.263	22885
859.396	22923
859.529	22782
859.662	22850
859.795	22733
859.928	22843
860.061	22889
860.194	23003
860.327	22755
860.46	22847
860.592	22763
860.725	22999
860.858	22961
860.99	22930
861.123	22858
861.256	22858
861.388	22816
861.521	23436
861.653	22733
861.786	22618
861.918	22793
862.05	22618
862.183	22748
862.315	22694
862.447	22786
862.58	22774
862.712	22550
862.844	22516
862.976	22618
863.108	22554
863.24	22885
863.372	22440
863.504	22565
863.636	22557
863.768	22550
863.9	22485
864.032	22565
864.164	22443
864.296	22531
864.428	22596
864.559	22618
864.691	22744
864.823	22497
864.954	22550
865.086	22546
865.217	22440
865.349	22329
865.48	22462
865.612	22421
865.743	22554
865.875	22481
866.006	22462
866.137	22470
866.269	22440
866.4	22371
866.531	22325
866.662	22204
866.793	22299
866.924	22379
867.055	22375
867.186	22421
867.317	22284
867.448	22215
867.579	22253
867.71	22352
867.841	22333
867.972	22238
868.103	22238
868.233	22337
868.364	22405
868.495	22538
868.625	22702
868.756	22679
868.886	22421
869.017	22622
869.147	22618
869.278	22729
869.408	22615
869.539	22656
869.669	22668
869.799	22557
869.929	22630
870.06	22733
870.19	22824
870.32	22847
870.45	22934
870.58	22961
870.71	23083
870.84	23079
870.97	22942
871.1	22900
871.23	23223
871.36	23208
871.489	23155
871.619	23159
871.749	23242
871.879	23235
872.008	23303
872.138	23250
872.267	23178
872.397	23060
872.526	23037
872.656	22980
872.785	22915
872.915	23231
873.044	23330
873.173	23231
873.303	23292
873.432	23242
873.561	23414
873.69	23303
873.819	23193
873.948	23273
874.077	23277
874.206	23181
874.335	23159
874.464	23250
874.593	23429
874.722	23353
874.851	23410
874.979	23570
875.108	23387
875.237	23444
875.365	23433
875.494	23410
875.623	23417
875.751	23239
875.88	23330
876.008	23528
876.136	23577
876.265	23748
876.393	23855
876.521	23779
876.65	23904
876.778	23786
876.906	23737
877.034	23703
877.162	23752
877.29	23760
877.418	23859
877.546	23764
877.674	23710
877.802	23687
877.93	23729
878.058	23676
878.185	23809
878.313	23733
878.441	23600
878.568	23611
878.696	23646
878.824	23847
878.951	23908
879.079	24018
879.206	23939
879.333	23931
879.461	23813
879.588	23779
879.715	23802
879.842	24049
879.97	23775
880.097	23600
880.224	23608
880.351	23509
880.478	23592
880.605	23482
880.732	23646
880.859	23748
880.986	23551
881.112	23562
881.239	23474
881.366	23204
881.493	23353
881.619	23151
881.746	23174
881.872	23189
881.999	23181
882.125	23006
882.252	23064
882.378	23159
882.505	23277
882.631	22984
882.757	22767
882.883	22801
883.01	22847
883.136	22809
883.262	22645
883.388	22584
883.514	22759
883.64	22805
883.766	22683
883.892	22531
884.018	22550
884.143	22763
884.269	22820
884.395	22523
884.52	22466
884.646	22421
884.772	22390
884.897	22329
885.023	22428
885.148	22474
885.274	22618
885.399	22421
885.524	22512
885.65	22428
885.775	22500
885.9	22409
886.025	22417
886.15	22379
886.275	22367
886.4	22390
886.525	22325
886.65	22375
886.775	22257
886.9	22508
887.025	22702
887.149	22318
887.274	22135
887.399	22196
887.523	22181
887.648	22135
887.773	22143
887.897	22234
888.021	22291
888.146	22177
888.27	22325
888.395	22150
888.519	22158
888.643	22116
888.767	22181
888.891	22078
889.015	22021
889.139	21911
889.263	21918
889.387	21956
889.511	22173
889.635	22070
889.759	21892
889.883	21911
890.006	21991
890.13	22082
890.254	21861
890.377	21991
890.501	21736
890.624	21504
890.748	21804
890.871	21633
890.995	21488
891.118	21496
891.241	21439
891.364	21450
891.488	21679
891.611	21428
891.734	21488
891.857	21709
891.98	21485
892.103	21580
892.226	21538
892.349	21511
892.471	21310
892.594	21359
892.717	21355
892.839	21481
892.962	21511
893.085	21443
893.207	21313
893.33	21161
893.452	21408
893.575	21462
893.697	21469
893.819	21519
893.941	21542
894.064	21389
894.186	21336
894.308	21378
894.43	21439
894.552	21568
894.674	21500
894.796	21291
894.918	21241
895.04	21378
895.161	21507
895.283	21416
895.405	21412
895.526	21283
895.648	21382
895.769	21492
895.891	21401
896.012	21469
896.134	21329
896.255	21408
896.376	21310
896.498	21477
896.619	21370
896.74	21386
896.861	21412
896.982	21694
897.103	21770
897.224	21591
897.345	21576
897.466	21485
897.587	21504
897.708	21781
897.828	21690
897.949	21625
898.07	21325
898.19	21595
898.311	21553
898.431	21511
898.552	21515
898.672	21648
898.792	21644
898.913	21591
899.033	21431
899.153	21237
899.273	21272
899.393	21252
899.513	21313
899.633	21317
899.753	21298
899.873	21192
899.993	21252
900.113	21218
900.232	21367
900.352	21138
900.472	21218
900.591	20914
900.711	21032
900.83	21017
900.95	21096
901.069	21150
901.189	21024
901.308	20697
901.427	20613
901.546	20663
901.665	20636
901.784	20743
901.904	20499
902.023	20454
902.141	20187
902.26	20195
902.379	20221
902.498	20024
902.617	20024
902.735	20176
902.854	20096
902.973	19967
903.091	19746
903.21	19746
903.328	19746
903.446	19666
903.565	19685
903.683	19700
903.801	19544
903.919	19438
904.038	19445
904.156	19354
904.274	19396
904.392	19266
904.51	19282
904.627	19320
904.745	19346
904.863	19312
904.981	19133
905.098	18909
905.216	18943
905.334	18973
905.451	19065
905.569	18973
905.686	19050
905.803	18954
905.921	18734
906.038	18844
906.155	18814
906.272	18616
906.389	18692
906.506	18604
906.623	18555
906.74	18407
906.857	18319
906.974	18414
907.091	18574
907.208	18642
907.324	18445
907.441	18292
907.557	18266
907.674	18296
907.79	18209
907.907	18159
908.023	18304
908.139	18350
908.256	18197
908.372	18098
908.488	18079
908.604	18022
908.72	17882
908.836	17863
908.952	17855
909.068	17931
909.184	18030
909.3	17901
909.415	17939
909.531	17893
909.647	17646
909.762	17623
909.878	17524
909.993	17687
910.108	17668
910.224	17509
910.339	17490
910.454	17395
910.57	17406
910.685	17387
910.8	17657
910.915	17520
911.03	17414
911.145	17242
911.259	17220
911.374	17200
911.489	17178
911.604	17064
911.718	16896
911.833	16942
911.947	16889
912.062	16698
912.176	16999
912.291	16942
912.405	16877
912.519	17010
912.633	17041
912.748	16957
912.862	16972
912.976	16691
913.09	16672
913.204	16706
913.318	16755
913.431	16892
913.545	16854
913.659	16828
913.772	16706
913.886	16596
914	16554
914.113	16580
914.226	16687
914.34	16588
914.453	16417
914.566	16561
914.68	16390
914.793	16367
914.906	16234
915.019	16173
915.132	15915
915.245	16055
915.358	16078
915.47	16109
915.583	16181
915.696	16101
915.809	16177
915.921	16280
916.034	16040
916.146	15964
916.259	15968
916.371	16021
916.483	16032
916.595	15930
916.708	15865
916.82	15899
916.932	15827
917.044	15960
917.156	15907
917.268	15739
917.38	15720
917.491	15671
917.603	15709
917.715	15709
917.826	15770
917.938	15644
918.049	15549
918.161	15732
918.272	15804
918.384	15816
918.495	15633
918.606	15511
918.717	15370
918.828	15443
918.939	15485
919.05	15439
919.161	15462
919.272	15161
919.383	15325
919.494	15576
919.604	15526
919.715	15428
919.826	15367
919.936	15348
920.047	15515
920.157	15439
920.267	15568
920.378	15325
920.488	15466
920.598	15610
920.708	15614
920.818	15549
920.928	15538
921.038	15599
921.148	15595
921.258	15268
921.368	15226
921.477	15100
921.587	15074
921.697	14979
921.806	15013
921.916	15009
922.025	14739
922.134	14716
922.244	14648
922.353	14777
922.462	14594
922.571	14575
922.68	14358
922.789	14404
922.898	14431
923.007	14332
923.116	14457
923.224	14377
923.333	14343
923.442	14187
923.55	14142
923.659	14237
923.767	14286
923.876	14172
923.984	14202
924.092	14081
924.201	14084
924.309	14145
924.417	14065
924.525	14073
924.633	14046
924.741	14975
924.849	13864
924.956	13970
925.064	13689
925.172	13700
925.279	13734
925.387	13841
925.494	13776
925.602	13955
925.709	13734
925.816	13655
925.924	13647
926.031	13715
926.138	13594
926.245	13674
926.352	13578
926.459	13727
926.566	13841
926.673	13609
926.779	13502
926.886	13491
926.993	13312
927.099	13331
927.206	13304
927.312	13232
927.419	13331
927.525	13365
927.631	13293
927.737	13183
927.843	13072
927.95	12993
928.056	13103
928.162	13095
928.267	13187
928.373	13772
928.479	13232
928.585	12970
928.69	13072
928.796	13027
928.901	12916
929.007	12760
929.112	12924
929.218	12943
929.323	12802
929.428	12856
929.533	12962
929.638	12719
929.743	12764
929.848	12783
929.953	12677
930.058	12642
930.163	12509
930.267	12563
930.372	12620
930.477	12403
930.581	12597
930.685	12593
930.79	12262
930.894	12353
930.998	12289
931.103	12456
931.207	12163
931.311	12057
931.415	11855
931.519	11718
931.623	11707
