Data from test_V78500241_10.txt Node
Date: Fri Mar 25 15:41:52 CST 2022
User: usil
Spectrometer: V785-0024
Trigger mode: 0
Integration Time (sec): 4.000000E-1
Scans to average: 1
Nonlinearity correction enabled: false
Boxcar width: 0
Storing dark spectrum: false
XAxis mode: Wavelengths
Number of Pixels in Spectrum: 1024
>>>>>Begin Spectral Data<<<<<
801.071	27081
801.214	27009
801.356	26769
801.499	26876
801.641	26674
801.783	26412
801.926	26495
802.068	26385
802.211	26377
802.353	26275
802.496	26199
802.638	26077
802.78	26107
802.923	25932
803.065	25879
803.208	25868
803.35	25959
803.492	26001
803.635	26157
803.777	25944
803.919	25997
804.061	26423
804.204	26081
804.346	25879
804.488	25894
804.63	25849
804.773	25849
804.915	25864
805.057	25944
805.199	25997
805.341	26046
805.483	25989
805.626	25887
805.768	25997
805.91	25978
806.052	26153
806.194	25860
806.336	26073
806.478	26149
806.62	25928
806.762	26119
806.904	26043
807.046	26461
807.188	26442
807.33	26362
807.472	26309
807.614	26328
807.756	26187
807.898	26126
808.04	26233
808.182	26187
808.324	26122
808.465	25970
808.607	26202
808.749	26263
808.891	26427
809.033	26583
809.174	26423
809.316	26400
809.458	26381
809.6	26324
809.741	26549
809.883	26511
810.025	26503
810.166	26583
810.308	26511
810.45	26583
810.591	26461
810.733	26415
810.875	26320
811.016	26225
811.158	26294
811.299	26271
811.441	26412
811.582	26393
811.724	26275
811.865	26381
812.007	26210
812.148	26252
812.29	26252
812.431	26389
812.573	26533
812.714	26712
812.855	26678
812.997	26785
813.138	27058
813.279	26826
813.421	26826
813.562	26708
813.703	26469
813.845	26450
813.986	26077
814.127	26001
814.268	25879
814.41	25909
814.551	25826
814.692	25788
814.833	25750
814.974	25769
815.115	25643
815.256	25628
815.397	25620
815.539	25616
815.68	25476
815.821	25343
815.962	25441
816.103	25529
816.244	25369
816.385	25255
816.526	25019
816.666	25072
816.807	24924
816.948	24897
817.089	25080
817.23	25057
817.371	24772
817.512	24852
817.653	24871
817.793	24787
817.934	24939
818.075	24669
818.216	24810
818.356	24642
818.497	24574
818.638	24433
818.778	24513
818.919	24536
819.06	24559
819.2	24661
819.341	24806
819.481	24700
819.622	24825
819.762	25065
819.903	24989
820.043	24867
820.184	24814
820.324	24635
820.465	24890
820.605	24745
820.746	24669
820.886	24677
821.026	24757
821.167	24779
821.307	24825
821.447	24776
821.588	24559
821.728	24452
821.868	24308
822.008	24155
822.149	24194
822.289	24087
822.429	23874
822.569	23821
822.709	23699
822.849	23581
822.99	23600
823.13	23474
823.27	23429
823.41	23345
823.55	23181
823.69	23436
823.83	23395
823.97	23391
824.11	23105
824.25	22995
824.389	23181
824.529	23181
824.669	23037
824.809	23090
824.949	23208
825.089	23162
825.228	23102
825.368	22949
825.508	22965
825.648	22809
825.787	22885
825.927	22976
826.067	22748
826.206	22782
826.346	22759
826.485	22957
826.625	22858
826.765	22991
826.904	22847
827.044	22527
827.183	22611
827.323	22573
827.462	22622
827.601	22561
827.741	22478
827.88	22474
828.02	22409
828.159	22466
828.298	22462
828.437	22561
828.577	22417
828.716	22497
828.855	22489
828.994	22207
829.134	22238
829.273	22177
829.412	22173
829.551	22162
829.69	22128
829.829	22272
829.968	22284
830.107	22314
830.246	22093
830.385	22109
830.524	22002
830.663	21937
830.802	21861
830.941	21686
831.08	21713
831.219	21892
831.357	21865
831.496	21895
831.635	21660
831.774	21580
831.913	21561
832.051	21443
832.19	21591
832.329	21564
832.467	21393
832.606	21359
832.744	21192
832.883	21310
833.022	21443
833.16	21310
833.299	21317
833.437	21329
833.576	21374
833.714	21332
833.852	21542
833.991	21458
834.129	21359
834.267	21447
834.406	21481
834.544	21401
834.682	21272
834.821	21279
834.959	21526
835.097	21344
835.235	21336
835.373	21336
835.511	21176
835.65	21184
835.788	21104
835.926	21108
836.064	20979
836.202	21020
836.34	21123
836.478	21226
836.615	21131
836.753	21233
836.891	21355
837.029	21207
837.167	21119
837.305	21173
837.443	21005
837.58	20883
837.718	21161
837.856	21070
837.993	21001
838.131	21058
838.269	20944
838.406	20986
838.544	20800
838.681	20724
838.819	20621
838.956	20499
839.094	20484
839.231	20457
839.369	20773
839.506	20834
839.643	20716
839.781	20362
839.918	20465
840.055	20400
840.193	20434
840.33	20419
840.467	20355
840.604	20457
840.742	20670
840.879	20393
841.016	20294
841.153	20415
841.29	20484
841.427	20370
841.564	20381
841.701	20351
841.838	20358
841.975	20298
842.112	20271
842.249	20153
842.385	20008
842.522	20275
842.659	20172
842.796	20100
842.933	20096
843.069	20077
843.206	19936
843.343	20153
843.479	20062
843.616	20122
843.752	19830
843.889	19837
844.025	19978
844.162	19761
844.298	19997
844.435	19769
844.571	19818
844.708	19734
844.844	19917
844.98	19925
845.117	19894
845.253	19811
845.389	19655
845.525	19769
845.661	19651
845.798	19445
845.934	19514
846.07	19472
846.206	19476
846.342	19651
846.478	19590
846.614	19403
846.75	19217
846.886	19255
847.022	19335
847.158	19327
847.294	19301
847.429	19209
847.565	19209
847.701	19518
847.837	18939
847.972	19042
848.108	19015
848.244	19057
848.379	18753
848.515	18646
848.65	18741
848.786	18810
848.921	18783
849.057	18951
849.192	18924
849.328	18878
849.463	18806
849.598	18829
849.734	18593
849.869	18760
850.004	18544
850.14	18517
850.275	18578
850.41	18464
850.545	18479
850.68	18467
850.815	18589
850.95	18437
851.085	18802
851.22	18597
851.355	18361
851.49	18441
851.625	18494
851.76	18486
851.895	18475
852.03	18525
852.165	18467
852.299	18452
852.434	18589
852.569	18433
852.703	18547
852.838	18544
852.973	18623
853.107	18555
853.242	18448
853.376	18399
853.511	18258
853.645	18300
853.78	18357
853.914	18395
854.048	18376
854.183	18277
854.317	18346
854.451	18486
854.585	18372
854.72	18365
854.854	18433
854.988	18346
855.122	18289
855.256	18251
855.39	18285
855.524	18292
855.658	18410
855.792	18315
855.926	18277
856.06	18486
856.194	18452
856.327	18254
856.461	18292
856.595	18224
856.729	18334
856.862	18437
856.996	18304
857.13	18429
857.263	18513
857.397	18422
857.53	18292
857.664	18254
857.797	18277
857.931	18490
858.064	18311
858.197	18384
858.331	18441
858.464	18182
858.597	18235
858.731	18277
858.864	18300
858.997	18194
859.13	18350
859.263	18319
859.396	18304
859.529	18174
859.662	18213
859.795	18144
859.928	18117
860.061	18346
860.194	18418
860.327	18254
860.46	18296
860.592	18384
860.725	18452
860.858	18365
860.99	18239
861.123	18049
861.256	18182
861.388	18224
861.521	18814
861.653	18125
861.786	18068
861.918	18209
862.05	18239
862.183	18266
862.315	18395
862.447	18384
862.58	18296
862.712	18197
862.844	18011
862.976	18034
863.108	18034
863.24	18391
863.372	17893
863.504	17935
863.636	17965
863.768	18057
863.9	17923
864.032	17863
864.164	17954
864.296	17939
864.428	17935
864.559	17961
864.691	18053
864.823	18019
864.954	17999
865.086	18011
865.217	17935
865.349	17939
865.48	17885
865.612	17866
865.743	18072
865.875	17977
866.006	17836
866.137	17996
866.269	18011
866.4	17805
866.531	17817
866.662	17866
866.793	17805
866.924	17828
867.055	17775
867.186	17790
867.317	17794
867.448	17767
867.579	17741
867.71	17748
867.841	17828
867.972	17783
868.103	17783
868.233	17745
868.364	17866
868.495	17874
868.625	18102
868.756	18178
868.886	17980
869.017	17996
869.147	18121
869.278	18171
869.408	18174
869.539	18087
869.669	18083
869.799	18114
869.929	18213
870.06	18235
870.19	18369
870.32	18319
870.45	18380
870.58	18452
870.71	18582
870.84	18498
870.97	18486
871.1	18475
871.23	18612
871.36	18711
871.489	18692
871.619	18665
871.749	18642
871.879	18776
872.008	18821
872.138	18665
872.267	18555
872.397	18593
872.526	18578
872.656	18483
872.785	18536
872.915	18681
873.044	18814
873.173	18741
873.303	18745
873.432	18734
873.561	18757
873.69	18783
873.819	18604
873.948	18779
874.077	18681
874.206	18620
874.335	18722
874.464	18852
874.593	19004
874.722	18890
874.851	19103
874.979	19034
875.108	18966
875.237	18894
875.365	18962
875.494	18996
875.623	19057
875.751	18947
875.88	19080
876.008	19133
876.136	19263
876.265	19384
876.393	19624
876.521	19468
876.65	19525
876.778	19552
876.906	19369
877.034	19407
877.162	19331
877.29	19362
877.418	19335
877.546	19426
877.674	19335
877.802	19381
877.93	19350
878.058	19301
878.185	19255
878.313	19289
878.441	19369
878.568	19187
878.696	19358
878.824	19544
878.951	19354
879.079	19559
879.206	19674
879.333	19635
879.461	19502
879.588	19464
879.715	19563
879.842	19575
879.97	19346
880.097	19145
880.224	19187
880.351	19221
880.478	19232
880.605	19187
880.732	19202
880.859	19441
880.986	19304
881.112	19194
881.239	19179
881.366	18954
881.493	18852
881.619	18859
881.746	18989
881.872	18867
881.999	18802
882.125	18916
882.252	18924
882.378	18875
882.505	18920
882.631	18802
882.757	18654
882.883	18623
883.01	18692
883.136	18612
883.262	18452
883.388	18479
883.514	18642
883.64	18673
883.766	18479
883.892	18418
884.018	18384
884.143	18681
884.269	18749
884.395	18353
884.52	18258
884.646	18266
884.772	18330
884.897	18190
885.023	18327
885.148	18300
885.274	18429
885.399	18391
885.524	18251
885.65	18197
885.775	18243
885.9	18224
886.025	18372
886.15	18315
886.275	18197
886.4	18041
886.525	18254
886.65	18182
886.775	18190
886.9	18395
887.025	18513
887.149	18235
887.274	18038
887.399	17920
887.523	18038
887.648	17969
887.773	17984
887.897	18106
888.021	18106
888.146	17988
888.27	18182
888.395	18224
888.519	18136
888.643	18133
888.767	18030
888.891	17931
889.015	17874
889.139	17980
889.263	17901
889.387	17965
889.511	18072
889.635	17920
889.759	17722
889.883	17859
890.006	17870
890.13	17961
890.254	17752
890.377	17748
890.501	17684
890.624	17653
890.748	17676
890.871	17615
890.995	17532
891.118	17383
891.241	17493
891.364	17535
891.488	17642
891.611	17524
891.734	17421
891.857	17630
891.98	17509
892.103	17436
892.226	17478
892.349	17425
892.471	17299
892.594	17425
892.717	17509
892.839	17376
892.962	17330
893.085	17463
893.207	17425
893.33	17330
893.452	17349
893.575	17379
893.697	17383
893.819	17684
893.941	17699
894.064	17543
894.186	17288
894.308	17455
894.43	17551
894.552	17695
894.674	17539
894.796	17433
894.918	17395
895.04	17463
895.161	17535
895.283	17543
895.405	17448
895.526	17524
895.648	17471
895.769	17463
895.891	17539
896.012	17573
896.134	17570
896.255	17581
896.376	17516
896.498	17490
896.619	17589
896.74	17528
896.861	17570
896.982	17859
897.103	17920
897.224	17889
897.345	17794
897.466	17718
897.587	17851
897.708	17984
897.828	17832
897.949	17745
898.07	17512
898.19	17653
898.311	17824
898.431	17745
898.552	17691
898.672	17824
898.792	18038
898.913	17836
899.033	17600
899.153	17566
899.273	17589
899.393	17634
899.513	17539
899.633	17516
899.753	17562
899.873	17558
899.993	17562
900.113	17448
900.232	17608
900.352	17501
900.472	17490
900.591	17311
900.711	17387
900.83	17387
900.95	17547
901.069	17395
901.189	17353
901.308	17166
901.427	17022
901.546	17045
901.665	17071
901.784	17022
901.904	16900
902.023	16793
902.141	16580
902.26	16561
902.379	16611
902.498	16489
902.617	16516
902.735	16554
902.854	16432
902.973	16440
903.091	16242
903.21	16246
903.328	16246
903.446	16128
903.565	15991
903.683	16120
903.801	15930
903.919	15960
904.038	15991
904.156	15823
904.274	15816
904.392	15774
904.51	15766
904.627	15838
904.745	15835
904.863	16013
904.981	15675
905.098	15530
905.216	15488
905.334	15469
905.451	15477
905.569	15401
905.686	15462
905.803	15397
905.921	15359
906.038	15450
906.155	15272
906.272	15097
906.389	15222
906.506	15070
906.623	14994
906.74	15074
906.857	14933
906.974	14906
907.091	15112
907.208	15081
907.324	15017
907.441	14819
907.557	14838
907.674	14670
907.79	14754
907.907	14731
908.023	14655
908.139	14678
908.256	14651
908.372	14518
908.488	14606
908.604	14454
908.72	14419
908.836	14446
908.952	14317
909.068	14336
909.184	14514
909.3	14461
909.415	14522
909.531	14396
909.647	14176
909.762	14046
909.878	14043
909.993	14153
910.108	14161
910.224	14092
910.339	14214
910.454	13993
910.57	13970
910.685	13925
910.8	14233
910.915	14081
911.03	13921
911.145	13841
911.259	13750
911.374	13761
911.489	13666
911.604	13533
911.718	13514
911.833	13460
911.947	13464
912.062	13457
912.176	13552
912.291	13597
912.405	13559
912.519	13632
912.633	13765
912.748	13594
912.862	13495
912.976	13381
913.09	13228
913.204	13354
913.318	13346
913.431	13434
913.545	13506
913.659	13441
913.772	13343
913.886	13190
914	13122
914.113	13301
914.226	13274
914.34	13244
914.453	13057
914.566	13187
914.68	13206
914.793	13168
914.906	12776
915.019	12859
915.132	12863
915.245	12791
915.358	12947
915.47	12882
915.583	12852
915.696	12894
915.809	12981
915.921	12935
916.034	12810
916.146	12848
916.259	12703
916.371	12837
916.483	12844
916.595	12760
916.708	12810
916.82	12768
916.932	12779
917.044	12738
917.156	12684
917.268	12578
917.38	12578
917.491	12585
917.603	12646
917.715	12627
917.826	12734
917.938	12646
918.049	12490
918.161	12570
918.272	12688
918.384	12719
918.495	12627
918.606	12460
918.717	12300
918.828	12494
918.939	12433
919.05	12391
919.161	12376
919.272	12159
919.383	12277
919.494	12372
919.604	12566
919.715	12388
919.826	12308
919.936	12365
920.047	12422
920.157	12414
920.267	12490
920.378	12353
920.488	12350
920.598	12597
920.708	12662
920.818	12528
920.928	12513
921.038	12608
921.148	12639
921.258	12399
921.368	12311
921.477	12190
921.587	12155
921.697	12041
921.806	12213
921.916	12041
922.025	11916
922.134	11771
922.244	11729
922.353	11923
922.462	11783
922.571	11714
922.68	11539
922.789	11459
922.898	11417
923.007	11444
923.116	11528
923.224	11364
923.333	11455
923.442	11376
923.55	11303
923.659	11299
923.767	11379
923.876	11383
923.984	11387
924.092	11223
924.201	11265
924.309	11239
924.417	11231
924.525	11246
924.633	11277
924.741	12136
924.849	11064
924.956	11147
925.064	10987
925.172	10961
925.279	10972
925.387	11022
925.494	11025
925.602	11159
925.709	11041
925.816	10980
925.924	11014
926.031	11113
926.138	11022
926.245	11041
926.352	10934
926.459	10980
926.566	11102
926.673	10892
926.779	10717
926.886	10790
926.993	10683
927.099	10694
927.206	10569
927.312	10569
927.419	10683
927.525	10656
927.631	10664
927.737	10569
927.843	10569
927.95	10417
928.056	10592
928.162	10592
928.267	10550
928.373	11151
928.479	10580
928.585	10344
928.69	10485
928.796	10550
928.901	10451
929.007	10188
929.112	10344
929.218	10405
929.323	10265
929.428	10223
929.533	10329
929.638	10242
929.743	10188
929.848	10325
929.953	10173
930.058	10143
930.163	9987
930.267	10013
930.372	10112
930.477	9918
930.581	10234
930.685	10051
930.79	9861
930.894	9964
930.998	9899
931.103	9972
931.207	9610
931.311	9637
931.415	9530
931.519	9447
931.623	9268
