Data from test_V78500241_1346.txt Node
Date: Fri Mar 25 15:51:07 CST 2022
User: usil
Spectrometer: V785-0024
Trigger mode: 0
Integration Time (sec): 4.000000E-1
Scans to average: 1
Nonlinearity correction enabled: false
Boxcar width: 0
Storing dark spectrum: false
XAxis mode: Wavelengths
Number of Pixels in Spectrum: 1024
>>>>>Begin Spectral Data<<<<<
801.071	28375
801.214	28363
801.356	28036
801.499	27945
801.641	27903
801.783	27865
801.926	27873
802.068	27819
802.211	27698
802.353	27747
802.496	27542
802.638	27477
802.78	27538
802.923	27568
803.065	27557
803.208	27367
803.35	27466
803.492	27614
803.635	27743
803.777	27580
803.919	27774
804.061	28002
804.204	27671
804.346	27808
804.488	27751
804.63	27709
804.773	27580
804.915	27808
805.057	27922
805.199	27762
805.341	27865
805.483	28002
805.626	27857
805.768	27831
805.91	27899
806.052	27880
806.194	27895
806.336	28093
806.478	28105
806.62	27983
806.762	28109
806.904	28143
807.046	28375
807.188	28318
807.33	28417
807.472	28470
807.614	28322
807.756	28363
807.898	28325
808.04	28253
808.182	28204
808.324	28207
808.465	28386
808.607	28413
808.749	28618
808.891	28729
809.033	28641
809.174	28538
809.316	28561
809.458	28538
809.6	28611
809.741	28778
809.883	28885
810.025	28782
810.166	28866
810.308	28869
810.45	28919
810.591	28717
810.733	28729
810.875	28649
811.016	28687
811.158	28546
811.299	28656
811.441	28782
811.582	28729
811.724	28641
811.865	28527
812.007	28527
812.148	28641
812.29	28641
812.431	28744
812.573	28946
812.714	28980
812.855	29147
812.997	29231
813.138	29265
813.279	29185
813.421	29235
813.562	29006
813.703	28869
813.845	28733
813.986	28538
814.127	28527
814.268	28398
814.41	28443
814.551	28253
814.692	28341
814.833	28185
814.974	28135
815.115	28417
815.256	28223
815.397	28090
815.539	28067
815.68	28040
815.821	28036
815.962	28112
816.103	28131
816.244	27945
816.385	27895
816.526	27797
816.666	27751
816.807	27641
816.948	27686
817.089	27762
817.23	27572
817.371	27648
817.512	27709
817.653	27717
817.793	27538
817.934	27660
818.075	27717
818.216	27610
818.356	27587
818.497	27416
818.638	27249
818.778	27416
818.919	27378
819.06	27344
819.2	27439
819.341	27557
819.481	27641
819.622	27873
819.762	27975
819.903	27884
820.043	27797
820.184	27728
820.324	27869
820.465	27857
820.605	27717
820.746	27831
820.886	27595
821.026	27800
821.167	27614
821.307	27861
821.447	27572
821.588	27511
821.728	27496
821.868	27408
822.008	27013
822.149	27024
822.289	27142
822.429	26887
822.569	26830
822.709	26811
822.849	26663
822.99	26602
823.13	26655
823.27	26640
823.41	26514
823.55	26351
823.69	26374
823.83	26396
823.97	26374
824.11	26263
824.25	26218
824.389	26294
824.529	26240
824.669	26229
824.809	26453
824.949	26389
825.089	26431
825.228	26229
825.368	26043
825.508	26218
825.648	26153
825.787	26031
825.927	26187
826.067	26134
826.206	26069
826.346	26233
826.485	26195
826.625	26138
826.765	26240
826.904	26084
827.044	25826
827.183	25921
827.323	25757
827.462	25898
827.601	26035
827.741	25894
827.88	25966
828.02	25696
828.159	25811
828.298	25830
828.437	25986
828.577	25879
828.716	25906
828.855	25772
828.994	25506
829.134	25723
829.273	25510
829.412	25502
829.551	25552
829.69	25502
829.829	25571
829.968	25624
830.107	25594
830.246	25521
830.385	25529
830.524	25381
830.663	25270
830.802	25247
830.941	25194
831.08	25145
831.219	25316
831.357	25251
831.496	25354
831.635	25168
831.774	25164
831.913	24935
832.051	24894
832.19	24894
832.329	24966
832.467	24817
832.606	24878
832.744	24715
832.883	24878
833.022	24825
833.16	24856
833.299	24760
833.437	24905
833.576	24916
833.714	24783
833.852	24829
833.991	24886
834.129	25004
834.267	24996
834.406	24867
834.544	25031
834.682	24829
834.821	24806
834.959	24909
835.097	24677
835.235	24920
835.373	24894
835.511	24863
835.65	24726
835.788	24798
835.926	24555
836.064	24521
836.202	24589
836.34	24604
836.478	24726
836.615	24654
836.753	24726
836.891	24696
837.029	24730
837.167	24642
837.305	24631
837.443	24631
837.58	24547
837.718	24604
837.856	24574
837.993	24460
838.131	24498
838.269	24361
838.406	24403
838.544	24346
838.681	24171
838.819	24243
838.956	24114
839.094	23969
839.231	24022
839.369	24148
839.506	24251
839.643	24273
839.781	23988
839.918	23954
840.055	23923
840.193	23942
840.33	23973
840.467	23988
840.604	23897
840.742	24201
840.879	23817
841.016	23775
841.153	23859
841.29	24007
841.427	23954
841.564	23870
841.701	23813
841.838	23885
841.975	23695
842.112	23771
842.249	23790
842.385	23623
842.522	23836
842.659	23748
842.796	23566
842.933	23630
843.069	23592
843.206	23531
843.343	23604
843.479	23611
843.616	23707
843.752	23478
843.889	23490
844.025	23592
844.162	23280
844.298	23585
844.435	23436
844.571	23383
844.708	23459
844.844	23535
844.98	23581
845.117	23509
845.253	23379
845.389	23406
845.525	23261
845.661	23341
845.798	23155
845.934	23174
846.07	23079
846.206	23162
846.342	23307
846.478	23159
846.614	22995
846.75	22854
846.886	22972
847.022	23014
847.158	22980
847.294	22862
847.429	23067
847.565	22866
847.701	22946
847.837	22607
847.972	22527
848.108	22668
848.244	22618
848.379	22565
848.515	22485
848.65	22451
848.786	22455
848.921	22523
849.057	22485
849.192	22573
849.328	22580
849.463	22405
849.598	22459
849.734	22421
849.869	22306
850.004	22363
850.14	22234
850.275	22207
850.41	22204
850.545	22105
850.68	22196
850.815	22276
850.95	22280
851.085	22409
851.22	22318
851.355	22246
851.49	22173
851.625	22158
851.76	22234
851.895	22169
852.03	22177
852.165	22234
852.299	22211
852.434	22219
852.569	22272
852.703	22230
852.838	22352
852.973	22440
853.107	22348
853.242	22147
853.376	22143
853.511	21907
853.645	22048
853.78	22181
853.914	22143
854.048	21987
854.183	22025
854.317	22063
854.451	22097
854.585	22109
854.72	22051
854.854	22120
854.988	22006
855.122	21991
855.256	21934
855.39	21838
855.524	22200
855.658	22116
855.792	22173
855.926	22116
856.06	22131
856.194	22074
856.327	22017
856.461	22097
856.595	22112
856.729	22021
856.862	22162
856.996	22128
857.13	22128
857.263	22150
857.397	22188
857.53	21972
857.664	22029
857.797	22101
857.931	22150
858.064	22021
858.197	22181
858.331	22093
858.464	21979
858.597	21945
858.731	22120
858.864	21968
858.997	22044
859.13	22044
859.263	22143
859.396	22135
859.529	21975
859.662	21991
859.795	22029
859.928	22010
860.061	22226
860.194	22120
860.327	22101
860.46	22093
860.592	22109
860.725	22090
860.858	22143
860.99	22109
861.123	22017
861.256	21983
861.388	22029
861.521	22717
861.653	22006
861.786	21888
861.918	21797
862.05	21964
862.183	21975
862.315	22025
862.447	22139
862.58	21945
862.712	21835
862.844	21816
862.976	21884
863.108	21781
863.24	22253
863.372	21739
863.504	21857
863.636	21819
863.768	21774
863.9	21701
864.032	21614
864.164	21713
864.296	21884
864.428	21861
864.559	21781
864.691	21778
864.823	21774
864.954	21770
865.086	21743
865.217	21728
865.349	21606
865.48	21614
865.612	21622
865.743	21812
865.875	21759
866.006	21637
866.137	21675
866.269	21660
866.4	21686
866.531	21595
866.662	21580
866.793	21576
866.924	21549
867.055	21507
867.186	21648
867.317	21610
867.448	21450
867.579	21591
867.71	21561
867.841	21576
867.972	21641
868.103	21591
868.233	21595
868.364	21534
868.495	21694
868.625	21751
868.756	21861
868.886	21732
869.017	21789
869.147	21800
869.278	21888
869.408	21861
869.539	21991
869.669	21873
869.799	21876
869.929	21983
870.06	22029
870.19	22166
870.32	22090
870.45	22036
870.58	22109
870.71	22348
870.84	22280
870.97	22169
871.1	22124
871.23	22478
871.36	22424
871.489	22295
871.619	22428
871.749	22348
871.879	22535
872.008	22538
872.138	22436
872.267	22489
872.397	22394
872.526	22230
872.656	22299
872.785	22188
872.915	22432
873.044	22405
873.173	22398
873.303	22493
873.432	22557
873.561	22622
873.69	22478
873.819	22440
873.948	22535
874.077	22440
874.206	22314
874.335	22379
874.464	22607
874.593	22710
874.722	22481
874.851	22637
874.979	22721
875.108	22645
875.237	22656
875.365	22443
875.494	22588
875.623	22812
875.751	22607
875.88	22721
876.008	22877
876.136	22877
876.265	22984
876.393	23155
876.521	23132
876.65	23113
876.778	23022
876.906	22908
877.034	22949
877.162	23006
877.29	22984
877.418	22908
877.546	22965
877.674	23010
877.802	22908
877.93	22976
878.058	22927
878.185	22797
878.313	22965
878.441	22900
878.568	22820
878.696	22919
878.824	22923
878.951	23136
879.079	23212
879.206	23372
879.333	23261
879.461	23037
879.588	23071
879.715	23223
879.842	23147
879.97	23044
880.097	22858
880.224	22862
880.351	22862
880.478	22755
880.605	22786
880.732	22820
880.859	22972
880.986	22824
881.112	22755
881.239	22759
881.366	22459
881.493	22508
881.619	22325
881.746	22409
881.872	22424
881.999	22360
882.125	22390
882.252	22379
882.378	22242
882.505	22493
882.631	22272
882.757	22177
882.883	22093
883.01	22010
883.136	22070
883.262	21934
883.388	21876
883.514	22139
883.64	22051
883.766	22021
883.892	21873
884.018	21869
884.143	21907
884.269	22040
884.395	21846
884.52	21625
884.646	21774
884.772	21538
884.897	21496
885.023	21774
885.148	21819
885.274	21797
885.399	21759
885.524	21652
885.65	21656
885.775	21591
885.9	21637
886.025	21857
886.15	21732
886.275	21728
886.4	21587
886.525	21671
886.65	21583
886.775	21466
886.9	21812
887.025	21983
887.149	21656
887.274	21477
887.399	21405
887.523	21466
887.648	21435
887.773	21329
887.897	21618
888.021	21496
888.146	21481
888.27	21599
888.395	21606
888.519	21466
888.643	21477
888.767	21568
888.891	21420
889.015	21386
889.139	21325
889.263	21184
889.387	21264
889.511	21408
889.635	21393
889.759	21310
889.883	21142
890.006	21184
890.13	21351
890.254	21154
890.377	21157
890.501	21154
890.624	20899
890.748	21074
890.871	20998
890.995	20811
891.118	20746
891.241	20777
891.364	20651
891.488	21009
891.611	20811
891.734	20754
891.857	20861
891.98	20701
892.103	20948
892.226	20861
892.349	20826
892.471	20678
892.594	20640
892.717	20823
892.839	20689
892.962	20682
893.085	20849
893.207	20788
893.33	20583
893.452	20606
893.575	20834
893.697	20720
893.819	20830
893.941	20857
894.064	20807
894.186	20602
894.308	20606
894.43	20712
894.552	20906
894.674	20705
894.796	20636
894.918	20788
895.04	20594
895.161	20727
895.283	20750
895.405	20644
895.526	20804
895.648	20655
895.769	20712
895.891	20750
896.012	20781
896.134	20777
896.255	20701
896.376	20651
896.498	20739
896.619	20686
896.74	20640
896.861	20785
896.982	20941
897.103	21233
897.224	20853
897.345	20883
897.466	20910
897.587	20918
897.708	20960
897.828	20937
897.949	20842
898.07	20819
898.19	20777
898.311	20990
898.431	20887
898.552	20876
898.672	20792
898.792	20891
898.913	20963
899.033	20712
899.153	20655
899.273	20727
899.393	20682
899.513	20644
899.633	20617
899.753	20609
899.873	20590
899.993	20556
900.113	20613
900.232	20590
900.352	20575
900.472	20469
900.591	20324
900.711	20324
900.83	20324
900.95	20507
901.069	20434
901.189	20252
901.308	20062
901.427	20039
901.546	19997
901.665	19936
901.784	19982
901.904	19830
902.023	19833
902.141	19453
902.26	19613
902.379	19567
902.498	19426
902.617	19392
902.735	19510
902.854	19392
902.973	19346
903.091	19255
903.21	19251
903.328	19103
903.446	19103
903.565	18871
903.683	18932
903.801	18814
903.919	18954
904.038	18829
904.156	18692
904.274	18719
904.392	18760
904.51	18738
904.627	18661
904.745	18753
904.863	18700
904.981	18563
905.098	18422
905.216	18483
905.334	18433
905.451	18422
905.569	18353
905.686	18456
905.803	18391
905.921	18095
906.038	18319
906.155	18140
906.272	18053
906.389	18125
906.506	17916
906.623	18019
906.74	17874
906.857	17790
906.974	17680
907.091	17920
907.208	18072
907.324	17904
907.441	17752
907.557	17665
907.674	17676
907.79	17646
907.907	17619
908.023	17642
908.139	17703
908.256	17615
908.372	17532
908.488	17471
908.604	17402
908.72	17299
908.836	17334
908.952	17315
909.068	17353
909.184	17497
909.3	17330
909.415	17269
909.531	17330
909.647	17105
909.762	17064
909.878	17067
909.993	16965
910.108	16995
910.224	17033
910.339	16961
910.454	16839
910.57	16797
910.685	16771
910.8	17086
910.915	17014
911.03	16847
911.145	16710
911.259	16626
911.374	16656
911.489	16565
911.604	16634
911.718	16310
911.833	16386
911.947	16223
912.062	16162
912.176	16246
912.291	16443
912.405	16344
912.519	16485
912.633	16512
912.748	16440
912.862	16337
912.976	16360
913.09	16135
913.204	16166
913.318	16246
913.431	16333
913.545	16200
913.659	16215
913.772	16204
913.886	16101
914	15934
914.113	16044
914.226	16029
914.34	16002
914.453	15842
914.566	15991
914.68	15888
914.793	15835
914.906	15656
915.019	15534
915.132	15504
915.245	15549
915.358	15538
915.47	15542
915.583	15595
915.696	15564
915.809	15641
915.921	15728
916.034	15481
916.146	15534
916.259	15374
916.371	15496
916.483	15530
916.595	15389
916.708	15367
916.82	15382
916.932	15340
917.044	15241
917.156	15268
917.268	15226
917.38	15161
917.491	15039
917.603	15222
917.715	15256
917.826	15313
917.938	15142
918.049	15142
918.161	15127
918.272	15230
918.384	15211
918.495	15161
918.606	14998
918.717	14933
918.828	14994
918.939	14929
919.05	14979
919.161	14914
919.272	14682
919.383	14708
919.494	15089
919.604	15233
919.715	14929
919.826	14868
919.936	14937
920.047	14975
920.157	14941
920.267	15100
920.378	14979
920.488	14834
920.598	15127
920.708	15249
920.818	15043
920.928	15077
921.038	15226
921.148	15180
921.258	14861
921.368	14754
921.477	14674
921.587	14636
921.697	14575
921.806	14530
921.916	14522
922.025	14362
922.134	14313
922.244	14309
922.353	14271
922.462	14134
922.571	14202
922.68	14046
922.789	13940
922.898	14001
923.007	13845
923.116	13970
923.224	13936
923.333	13875
923.442	13788
923.55	13776
923.659	13742
923.767	13784
923.876	13700
923.984	13780
924.092	13624
924.201	13685
924.309	13594
924.417	13655
924.525	13499
924.633	13578
924.741	14530
924.849	13354
924.956	13430
925.064	13346
925.172	13263
925.279	13339
925.387	13335
925.494	13274
925.602	13335
925.709	13362
925.816	13221
925.924	13270
926.031	13381
926.138	13270
926.245	13168
926.352	13069
926.459	13247
926.566	13274
926.673	13149
926.779	13000
926.886	13076
926.993	12913
927.099	12825
927.206	12779
927.312	12837
927.419	12932
927.525	12806
927.631	12867
927.737	12783
927.843	12692
927.95	12597
928.056	12703
928.162	12734
928.267	12760
928.373	13270
928.479	12772
928.585	12433
928.69	12570
928.796	12677
928.901	12525
929.007	12376
929.112	12585
929.218	12513
929.323	12498
929.428	12247
929.533	12464
929.638	12365
929.743	12395
929.848	12426
929.953	12365
930.058	12232
930.163	12114
930.267	12140
930.372	12190
930.477	12060
930.581	12235
930.685	12098
930.79	11961
930.894	11973
930.998	11904
931.103	12011
931.207	11714
931.311	11596
931.415	11589
931.519	11235
931.623	11364
