Data from test_V78500241_3718.txt Node
Date: Fri Mar 25 16:07:33 CST 2022
User: usil
Spectrometer: V785-0024
Trigger mode: 0
Integration Time (sec): 4.000000E-1
Scans to average: 1
Nonlinearity correction enabled: false
Boxcar width: 0
Storing dark spectrum: false
XAxis mode: Wavelengths
Number of Pixels in Spectrum: 1024
>>>>>Begin Spectral Data<<<<<
801.071	28325
801.214	28207
801.356	28105
801.499	28139
801.641	27922
801.783	27907
801.926	27998
802.068	27873
802.211	27778
802.353	27873
802.496	27553
802.638	27625
802.78	27618
802.923	27580
803.065	27443
803.208	27553
803.35	27671
803.492	27724
803.635	27793
803.777	27751
803.919	27869
804.061	28158
804.204	27880
804.346	27690
804.488	27766
804.63	27869
804.773	27652
804.915	27945
805.057	27827
805.199	27895
805.341	27968
805.483	28010
805.626	27968
805.768	27956
805.91	28162
806.052	28002
806.194	27926
806.336	28242
806.478	27934
806.62	27937
806.762	28105
806.904	28215
807.046	28432
807.188	28440
807.33	28306
807.472	28451
807.614	28284
807.756	28424
807.898	28242
808.04	28173
808.182	28295
808.324	28417
808.465	28318
808.607	28542
808.749	28694
808.891	28675
809.033	28717
809.174	28736
809.316	28519
809.458	28835
809.6	28535
809.741	28694
809.883	28721
810.025	28991
810.166	28816
810.308	28949
810.45	28835
810.591	28805
810.733	28683
810.875	28675
811.016	28523
811.158	28485
811.299	28721
811.441	28797
811.582	28812
811.724	28599
811.865	28729
812.007	28584
812.148	28660
812.29	28683
812.431	28759
812.573	28957
812.714	29029
812.855	29048
812.997	29200
813.138	29280
813.279	29318
813.421	29212
813.562	29117
813.703	29083
813.845	28927
813.986	28630
814.127	28451
814.268	28390
814.41	28352
814.551	28337
814.692	28215
814.833	28207
814.974	28295
815.115	28409
815.256	28287
815.397	28314
815.539	28192
815.68	28173
815.821	28105
815.962	28105
816.103	28238
816.244	27960
816.385	27903
816.526	27983
816.666	27770
816.807	27561
816.948	27724
817.089	27618
817.23	27850
817.371	27599
817.512	27534
817.653	27534
817.793	27720
817.934	27557
818.075	27675
818.216	27641
818.356	27507
818.497	27644
818.638	27420
818.778	27447
818.919	27401
819.06	27469
819.2	27477
819.341	27732
819.481	27572
819.622	27743
819.762	28021
819.903	28021
820.043	27918
820.184	27850
820.324	27865
820.465	27816
820.605	27918
820.746	27751
820.886	27679
821.026	27656
821.167	27637
821.307	27770
821.447	27679
821.588	27572
821.728	27351
821.868	27272
822.008	27070
822.149	27123
822.289	27184
822.429	26960
822.569	26743
822.709	26800
822.849	26769
822.99	26617
823.13	26625
823.27	26617
823.41	26511
823.55	26282
823.69	26526
823.83	26423
823.97	26423
824.11	26225
824.25	26172
824.389	26237
824.529	26473
824.669	26199
824.809	26484
824.949	26332
825.089	26336
825.228	26351
825.368	26210
825.508	26134
825.648	26046
825.787	26294
825.927	26351
826.067	26149
826.206	26096
826.346	26145
826.485	26214
826.625	26168
826.765	26298
826.904	26172
827.044	26012
827.183	25936
827.323	25925
827.462	25963
827.601	25875
827.741	25974
827.88	25833
828.02	25788
828.159	25750
828.298	25841
828.437	25944
828.577	25723
828.716	26012
828.855	25894
828.994	25700
829.134	25803
829.273	25715
829.412	25540
829.551	25479
829.69	25544
829.829	25712
829.968	25506
830.107	25639
830.246	25643
830.385	25559
830.524	25407
830.663	25304
830.802	25396
830.941	25213
831.08	25282
831.219	25331
831.357	25304
831.496	25422
831.635	25145
831.774	25179
831.913	25004
832.051	24939
832.19	24890
832.329	24954
832.467	24795
832.606	24886
832.744	24840
832.883	24798
833.022	24867
833.16	24852
833.299	24894
833.437	24924
833.576	24970
833.714	24954
833.852	24916
833.991	25050
834.129	24966
834.267	25095
834.406	24977
834.544	24867
834.682	24973
834.821	24844
834.959	25095
835.097	24844
835.235	24935
835.373	24901
835.511	24768
835.65	24631
835.788	24597
835.926	24578
836.064	24582
836.202	24692
836.34	24722
836.478	24863
836.615	24661
836.753	24677
836.891	24768
837.029	24623
837.167	24726
837.305	24627
837.443	24601
837.58	24517
837.718	24646
837.856	24574
837.993	24536
838.131	24486
838.269	24441
838.406	24612
838.544	24384
838.681	24205
838.819	24232
838.956	24087
839.094	23950
839.231	24064
839.369	24273
839.506	24350
839.643	24277
839.781	24007
839.918	23897
840.055	24045
840.193	24152
840.33	23935
840.467	24053
840.604	24026
840.742	24235
840.879	23714
841.016	23874
841.153	23779
841.29	23920
841.427	24083
841.564	23942
841.701	23946
841.838	23996
841.975	23893
842.112	23916
842.249	23805
842.385	23764
842.522	23889
842.659	23836
842.796	23646
842.933	23672
843.069	23623
843.206	23741
843.343	23817
843.479	23707
843.616	23764
843.752	23398
843.889	23490
844.025	23630
844.162	23455
844.298	23520
844.435	23486
844.571	23512
844.708	23486
844.844	23672
844.98	23608
845.117	23596
845.253	23322
845.389	23406
845.525	23265
845.661	23497
845.798	23204
845.934	23337
846.07	23181
846.206	23258
846.342	23364
846.478	23216
846.614	22980
846.75	22911
846.886	22968
847.022	22919
847.158	23094
847.294	22953
847.429	23022
847.565	22850
847.701	23239
847.837	22668
847.972	22618
848.108	22812
848.244	22717
848.379	22622
848.515	22580
848.65	22531
848.786	22519
848.921	22519
849.057	22740
849.192	22672
849.328	22584
849.463	22557
849.598	22459
849.734	22497
849.869	22276
850.004	22325
850.14	22303
850.275	22287
850.41	22306
850.545	22215
850.68	22287
850.815	22402
850.95	22352
851.085	22443
851.22	22413
851.355	22272
851.49	22295
851.625	22325
851.76	22344
851.895	22268
852.03	22158
852.165	22291
852.299	22398
852.434	22322
852.569	22291
852.703	22314
852.838	22371
852.973	22523
853.107	22363
853.242	22204
853.376	22150
853.511	22097
853.645	22044
853.78	22314
853.914	22097
854.048	22105
854.183	22093
854.317	22169
854.451	22322
854.585	22017
854.72	22181
854.854	22112
854.988	22219
855.122	22128
855.256	22002
855.39	22109
855.524	22185
855.658	22188
855.792	22021
855.926	22025
856.06	22116
856.194	22265
856.327	22109
856.461	22086
856.595	21930
856.729	22112
856.862	22276
856.996	22181
857.13	22162
857.263	22246
857.397	22219
857.53	22143
857.664	22211
857.797	22128
857.931	22226
858.064	22223
858.197	22333
858.331	22162
858.464	22067
858.597	21983
858.731	22188
858.864	22055
858.997	22051
859.13	22055
859.263	22143
859.396	22166
859.529	22109
859.662	22051
859.795	22078
859.928	22124
860.061	22363
860.194	22344
860.327	22215
860.46	22265
860.592	22402
860.725	22280
860.858	22295
860.99	22105
861.123	22067
861.256	22093
861.388	22238
861.521	22721
861.653	21941
861.786	21915
861.918	21922
862.05	22002
862.183	22090
862.315	22074
862.447	22150
862.58	22032
862.712	21812
862.844	21717
862.976	21884
863.108	21915
863.24	22242
863.372	21781
863.504	21694
863.636	21774
863.768	21747
863.9	21956
864.032	21755
864.164	21770
864.296	21846
864.428	21994
864.559	21846
864.691	21838
864.823	21835
864.954	21869
865.086	21660
865.217	21854
865.349	21751
865.48	21701
865.612	21648
865.743	21857
865.875	21682
866.006	21671
866.137	21682
866.269	21656
866.4	21736
866.531	21686
866.662	21614
866.793	21519
866.924	21557
867.055	21606
867.186	21660
867.317	21679
867.448	21583
867.579	21534
867.71	21542
867.841	21603
867.972	21564
868.103	21709
868.233	21587
868.364	21717
868.495	21755
868.625	21831
868.756	22051
868.886	21797
869.017	21808
869.147	22116
869.278	22002
869.408	21861
869.539	21857
869.669	21926
869.799	21861
869.929	22048
870.06	22048
870.19	22101
870.32	22128
870.45	22337
870.58	22402
870.71	22398
870.84	22325
870.97	22181
871.1	22287
871.23	22497
871.36	22459
871.489	22398
871.619	22485
871.749	22611
871.879	22584
872.008	22596
872.138	22519
872.267	22462
872.397	22337
872.526	22325
872.656	22253
872.785	22139
872.915	22569
873.044	22675
873.173	22588
873.303	22584
873.432	22630
873.561	22622
873.69	22489
873.819	22497
873.948	22565
874.077	22478
874.206	22478
874.335	22557
874.464	22691
874.593	22729
874.722	22500
874.851	22862
874.979	22755
875.108	22763
875.237	22679
875.365	22656
875.494	22694
875.623	22835
875.751	22672
875.88	22713
876.008	22938
876.136	22892
876.265	23147
876.393	23261
876.521	23189
876.65	23162
876.778	23109
876.906	23155
877.034	23037
877.162	22942
877.29	23006
877.418	23048
877.546	23052
877.674	23033
877.802	23132
877.93	23151
878.058	23037
878.185	23056
878.313	23022
878.441	22999
878.568	23010
878.696	23018
878.824	23128
878.951	22999
879.079	23303
879.206	23410
879.333	23178
879.461	23037
879.588	23258
879.715	23189
879.842	23364
879.97	23284
880.097	22850
880.224	22942
880.351	22839
880.478	22843
880.605	22797
880.732	22957
880.859	23216
880.986	22930
881.112	22831
881.239	22736
881.366	22664
881.493	22550
881.619	22447
881.746	22516
881.872	22386
881.999	22440
882.125	22405
882.252	22584
882.378	22493
882.505	22451
882.631	22268
882.757	22116
882.883	22177
883.01	22112
883.136	21998
883.262	22090
883.388	21968
883.514	22124
883.64	22082
883.766	22055
883.892	21991
884.018	21987
884.143	22044
884.269	22093
884.395	21778
884.52	21713
884.646	21789
884.772	21705
884.897	21599
885.023	21819
885.148	21857
885.274	21865
885.399	21926
885.524	21873
885.65	21835
885.775	21766
885.9	21804
886.025	21888
886.15	21884
886.275	21778
886.4	21644
886.525	21732
886.65	21644
886.775	21675
886.9	21903
887.025	21922
887.149	21709
887.274	21587
887.399	21561
887.523	21561
887.648	21595
887.773	21439
887.897	21728
888.021	21736
888.146	21450
888.27	21648
888.395	21686
888.519	21492
888.643	21606
888.767	21625
888.891	21428
889.015	21317
889.139	21332
889.263	21272
889.387	21504
889.511	21572
889.635	21279
889.759	21386
889.883	21336
890.006	21412
890.13	21466
890.254	21230
890.377	21302
890.501	21081
890.624	21043
890.748	21135
890.871	20910
890.995	20857
891.118	20788
891.241	20960
891.364	20895
891.488	21017
891.611	20963
891.734	20944
891.857	20872
891.98	20815
892.103	20925
892.226	20880
892.349	20811
892.471	20697
892.594	20921
892.717	20781
892.839	20735
892.962	20701
893.085	20895
893.207	20902
893.33	20602
893.452	20678
893.575	20876
893.697	20636
893.819	20998
893.941	20971
894.064	21024
894.186	20735
894.308	20625
894.43	20819
894.552	20994
894.674	20781
894.796	20758
894.918	20819
895.04	20746
895.161	20899
895.283	20788
895.405	20716
895.526	20682
895.648	20731
895.769	20902
895.891	20762
896.012	20861
896.134	20826
896.255	20792
896.376	20792
896.498	20823
896.619	20876
896.74	20838
896.861	20857
896.982	21112
897.103	21218
897.224	21055
897.345	20963
897.466	20918
897.587	20910
897.708	21146
897.828	21096
897.949	20986
898.07	20819
898.19	20830
898.311	21116
898.431	20868
898.552	21051
898.672	20979
898.792	21096
898.913	21009
899.033	20769
899.153	20796
899.273	20678
899.393	20788
899.513	20697
899.633	20712
899.753	20686
899.873	20693
899.993	20636
900.113	20560
900.232	20667
900.352	20667
900.472	20499
900.591	20480
900.711	20564
900.83	20408
900.95	20537
901.069	20571
901.189	20286
901.308	20081
901.427	20092
901.546	20107
901.665	20069
901.784	20073
901.904	19986
902.023	19822
902.141	19651
902.26	19582
902.379	19601
902.498	19666
902.617	19510
902.735	19548
902.854	19567
902.973	19525
903.091	19126
903.21	19263
903.328	19308
903.446	19122
903.565	19034
903.683	18928
903.801	18924
903.919	18977
904.038	18989
904.156	18776
904.274	18844
904.392	18741
904.51	18863
904.627	18817
904.745	18760
904.863	18821
904.981	18513
905.098	18502
905.216	18555
905.334	18498
905.451	18445
905.569	18536
905.686	18441
905.803	18410
905.921	18254
906.038	18289
906.155	18220
906.272	18110
906.389	18228
906.506	18076
906.623	18041
906.74	17946
906.857	17866
906.974	17904
907.091	17988
907.208	18148
907.324	17988
907.441	17832
907.557	17805
907.674	17707
907.79	17581
907.907	17737
908.023	17733
908.139	17737
908.256	17653
908.372	17657
908.488	17570
908.604	17463
908.72	17417
908.836	17452
908.952	17356
909.068	17448
909.184	17395
909.3	17311
909.415	17398
909.531	17360
909.647	17159
909.762	17204
909.878	17064
909.993	17102
910.108	17102
910.224	17090
910.339	17212
910.454	16877
910.57	16881
910.685	16748
910.8	17079
910.915	17064
911.03	16900
911.145	16725
911.259	16774
911.374	16736
911.489	16634
911.604	16592
911.718	16485
911.833	16432
911.947	16329
912.062	16371
912.176	16424
912.291	16405
912.405	16394
912.519	16713
912.633	16626
912.748	16558
912.862	16500
912.976	16268
913.09	16139
913.204	16150
913.318	16268
913.431	16432
913.545	16280
913.659	16325
913.772	16306
913.886	16071
914	16074
914.113	16067
914.226	16158
914.34	16086
914.453	15915
914.566	16139
914.68	15964
914.793	15781
914.906	15660
915.019	15633
915.132	15553
915.245	15523
915.358	15622
915.47	15633
915.583	15622
915.696	15511
915.809	15865
915.921	15774
916.034	15500
916.146	15382
916.259	15469
916.371	15557
916.483	15580
916.595	15454
916.708	15412
916.82	15408
916.932	15462
917.044	15568
917.156	15355
917.268	15237
917.38	15340
917.491	15203
917.603	15218
917.715	15370
917.826	15428
917.938	15199
918.049	15150
918.161	15268
918.272	15435
918.384	15298
918.495	15264
918.606	15161
918.717	15028
918.828	15043
918.939	14944
919.05	14864
919.161	14982
919.272	14804
919.383	14777
919.494	15043
919.604	15245
919.715	15066
919.826	14834
919.936	15009
920.047	14986
920.157	14941
920.267	15142
920.378	14952
920.488	14994
920.598	15169
920.708	15230
920.818	15157
920.928	15036
921.038	15279
921.148	15127
921.258	14967
921.368	14815
921.477	14655
921.587	14689
921.697	14533
921.806	14743
921.916	14522
922.025	14320
922.134	14324
922.244	14358
922.353	14313
922.462	14248
922.571	14145
922.68	14031
922.789	13932
922.898	13906
923.007	13959
923.116	14001
923.224	13947
923.333	13978
923.442	13807
923.55	13807
923.659	13826
923.767	13951
923.876	13753
923.984	13852
924.092	13719
924.201	13719
924.309	13712
924.417	13544
924.525	13639
924.633	13620
924.741	14450
924.849	13392
924.956	13556
925.064	13506
925.172	13270
925.279	13400
925.387	13343
925.494	13430
925.602	13518
925.709	13426
925.816	13266
925.924	13327
926.031	13339
926.138	13384
926.245	13362
926.352	13255
926.459	13308
926.566	13335
926.673	13164
926.779	13149
926.886	13152
926.993	12939
927.099	12947
927.206	12947
927.312	12897
927.419	13019
927.525	13046
927.631	13019
927.737	12848
927.843	12863
927.95	12627
928.056	12810
928.162	12707
928.267	12821
928.373	13434
928.479	12894
928.585	12612
928.69	12692
928.796	12741
928.901	12631
929.007	12418
929.112	12627
929.218	12563
929.323	12517
929.428	12433
929.533	12547
929.638	12418
929.743	12418
929.848	12445
929.953	12350
930.058	12311
930.163	12076
930.267	12136
930.372	12258
930.477	12129
930.581	12243
930.685	12148
930.79	11984
930.894	12049
930.998	12030
931.103	12167
931.207	11828
931.311	11714
931.415	11649
931.519	11414
931.623	11414
