Data from test_V78500241_954.txt Node
Date: Fri Mar 25 15:48:24 CST 2022
User: usil
Spectrometer: V785-0024
Trigger mode: 0
Integration Time (sec): 4.000000E-1
Scans to average: 1
Nonlinearity correction enabled: false
Boxcar width: 0
Storing dark spectrum: false
XAxis mode: Wavelengths
Number of Pixels in Spectrum: 1024
>>>>>Begin Spectral Data<<<<<
801.071	28417
801.214	28272
801.356	27968
801.499	28086
801.641	27812
801.783	28010
801.926	27960
802.068	27975
802.211	27854
802.353	27774
802.496	27747
802.638	27572
802.78	27633
802.923	27595
803.065	27485
803.208	27534
803.35	27705
803.492	27892
803.635	27785
803.777	27720
803.919	27842
804.061	28188
804.204	27869
804.346	27884
804.488	27808
804.63	27720
804.773	27762
804.915	27953
805.057	28032
805.199	27793
805.341	27968
805.483	27983
805.626	27968
805.768	27937
805.91	27937
806.052	28021
806.194	28105
806.336	28265
806.478	28116
806.62	27884
806.762	28086
806.904	28398
807.046	28565
807.188	28424
807.33	28478
807.472	28584
807.614	28329
807.756	28451
807.898	28265
808.04	28226
808.182	28341
808.324	28394
808.465	28447
808.607	28478
808.749	28557
808.891	28866
809.033	28927
809.174	28744
809.316	28675
809.458	28615
809.6	28626
809.741	28854
809.883	28771
810.025	28938
810.166	28953
810.308	29037
810.45	29029
810.591	28862
810.733	28691
810.875	28793
811.016	28664
811.158	28691
811.299	28881
811.441	28858
811.582	28968
811.724	28599
811.865	28687
812.007	28698
812.148	28599
812.29	28797
812.431	28900
812.573	29143
812.714	29204
812.855	29307
812.997	29372
813.138	29478
813.279	29459
813.421	29421
813.562	29288
813.703	29086
813.845	29090
813.986	28691
814.127	28363
814.268	28447
814.41	28421
814.551	28287
814.692	28508
814.833	28405
814.974	28337
815.115	28440
815.256	28238
815.397	28226
815.539	28280
815.68	28272
815.821	28074
815.962	28169
816.103	28257
816.244	28082
816.385	28070
816.526	28150
816.666	27785
816.807	27781
816.948	27857
817.089	27975
817.23	27876
817.371	27785
817.512	27755
817.653	27759
817.793	27591
817.934	27743
818.075	27686
818.216	27823
818.356	27698
818.497	27675
818.638	27412
818.778	27393
818.919	27367
819.06	27515
819.2	27610
819.341	27755
819.481	27557
819.622	27873
819.762	28188
819.903	28105
820.043	27907
820.184	27854
820.324	27876
820.465	27869
820.605	27816
820.746	27922
820.886	27755
821.026	27797
821.167	27808
821.307	27850
821.447	27675
821.588	27751
821.728	27416
821.868	27424
822.008	27116
822.149	27142
822.289	27313
822.429	26861
822.569	26918
822.709	26937
822.849	26746
822.99	26769
823.13	26655
823.27	26621
823.41	26549
823.55	26450
823.69	26503
823.83	26579
823.97	26503
824.11	26301
824.25	26423
824.389	26450
824.529	26370
824.669	26415
824.809	26495
824.949	26400
825.089	26480
825.228	26404
825.368	26286
825.508	26313
825.648	26199
825.787	26282
825.927	26324
826.067	26206
826.206	26115
826.346	26389
826.485	26374
826.625	26191
826.765	26313
826.904	26309
827.044	26027
827.183	25947
827.323	25894
827.462	25997
827.601	25997
827.741	26062
827.88	25852
828.02	25879
828.159	25970
828.298	25959
828.437	26149
828.577	25879
828.716	26008
828.855	25902
828.994	25613
829.134	25662
829.273	25632
829.412	25731
829.551	25571
829.69	25624
829.829	25753
829.968	25658
830.107	25871
830.246	25548
830.385	25609
830.524	25605
830.663	25441
830.802	25411
830.941	25365
831.08	25187
831.219	25259
831.357	25354
831.496	25483
831.635	25263
831.774	25244
831.913	25088
832.051	25034
832.19	25057
832.329	25137
832.467	24897
832.606	24947
832.744	24920
832.883	24905
833.022	24783
833.16	24909
833.299	25046
833.437	24875
833.576	25012
833.714	25076
833.852	25019
833.991	24951
834.129	25061
834.267	25099
834.406	24848
834.544	24973
834.682	25004
834.821	25053
834.959	25084
835.097	24939
835.235	25110
835.373	25061
835.511	25012
835.65	24878
835.788	24795
835.926	24563
836.064	24597
836.202	24715
836.34	24783
836.478	24837
836.615	24814
836.753	24894
836.891	24981
837.029	24897
837.167	24821
837.305	24745
837.443	24612
837.58	24673
837.718	24844
837.856	24601
837.993	24616
838.131	24631
838.269	24479
838.406	24525
838.544	24452
838.681	24213
838.819	24338
838.956	24213
839.094	24083
839.231	24220
839.369	24338
839.506	24513
839.643	24327
839.781	24079
839.918	24159
840.055	24072
840.193	24018
840.33	24034
840.467	24076
840.604	24174
840.742	24235
840.879	23786
841.016	23984
841.153	23897
841.29	24190
841.427	23977
841.564	24087
841.701	24011
841.838	23931
841.975	23927
842.112	23916
842.249	23958
842.385	23775
842.522	23942
842.659	23771
842.796	23798
842.933	23752
843.069	23630
843.206	23699
843.343	23775
843.479	23790
843.616	23832
843.752	23478
843.889	23630
844.025	23775
844.162	23524
844.298	23699
844.435	23710
844.571	23440
844.708	23573
844.844	23638
844.98	23657
845.117	23596
845.253	23524
845.389	23482
845.525	23444
845.661	23376
845.798	23231
845.934	23364
846.07	23227
846.206	23345
846.342	23356
846.478	23307
846.614	22995
846.75	22934
846.886	22961
847.022	23060
847.158	22991
847.294	22957
847.429	23010
847.565	22957
847.701	23246
847.837	22824
847.972	22656
848.108	22763
848.244	22873
848.379	22755
848.515	22561
848.65	22584
848.786	22615
848.921	22611
849.057	22710
849.192	22679
849.328	22641
849.463	22565
849.598	22538
849.734	22485
849.869	22390
850.004	22329
850.14	22329
850.275	22405
850.41	22246
850.545	22299
850.68	22325
850.815	22356
850.95	22268
851.085	22580
851.22	22436
851.355	22394
851.49	22272
851.625	22363
851.76	22402
851.895	22226
852.03	22242
852.165	22276
852.299	22348
852.434	22470
852.569	22428
852.703	22333
852.838	22390
852.973	22497
853.107	22470
853.242	22173
853.376	22230
853.511	22135
853.645	22067
853.78	22276
853.914	22242
854.048	22223
854.183	22093
854.317	22219
854.451	22261
854.585	22116
854.72	22265
854.854	22147
854.988	22116
855.122	22200
855.256	21972
855.39	22135
855.524	22181
855.658	22226
855.792	22124
855.926	22230
856.06	22268
856.194	22325
856.327	22070
856.461	22188
856.595	22059
856.729	22211
856.862	22249
856.996	22253
857.13	22185
857.263	22287
857.397	22337
857.53	22200
857.664	22295
857.797	22230
857.931	22253
858.064	22185
858.197	22139
858.331	22101
858.464	22154
858.597	22063
858.731	22162
858.864	22166
858.997	22101
859.13	22131
859.263	22242
859.396	22219
859.529	22112
859.662	22082
859.795	22116
859.928	22082
860.061	22310
860.194	22440
860.327	22181
860.46	22169
860.592	22219
860.725	22246
860.858	22344
860.99	22131
861.123	22070
861.256	22128
861.388	22242
861.521	22835
861.653	21975
861.786	22002
861.918	21956
862.05	21983
862.183	22040
862.315	22131
862.447	22131
862.58	22036
862.712	21850
862.844	22036
862.976	22017
863.108	22032
863.24	22097
863.372	21755
863.504	21903
863.636	21964
863.768	21907
863.9	21915
864.032	21911
864.164	21732
864.296	21930
864.428	22036
864.559	21892
864.691	22002
864.823	21876
864.954	21922
865.086	21701
865.217	21823
865.349	21755
865.48	21660
865.612	21774
865.743	21953
865.875	21800
866.006	21755
866.137	21717
866.269	21717
866.4	21705
866.531	21739
866.662	21705
866.793	21622
866.924	21698
867.055	21728
867.186	21675
867.317	21709
867.448	21644
867.579	21709
867.71	21637
867.841	21606
867.972	21663
868.103	21682
868.233	21648
868.364	21671
868.495	21865
868.625	21945
868.756	21937
868.886	21816
869.017	21941
869.147	22040
869.278	22010
869.408	21915
869.539	21857
869.669	21960
869.799	22116
869.929	22025
870.06	22063
870.19	22246
870.32	22246
870.45	22249
870.58	22303
870.71	22363
870.84	22348
870.97	22257
871.1	22272
871.23	22493
871.36	22493
871.489	22310
871.619	22542
871.749	22538
871.879	22478
872.008	22565
872.138	22557
872.267	22474
872.397	22306
872.526	22367
872.656	22310
872.785	22303
872.915	22531
873.044	22561
873.173	22535
873.303	22641
873.432	22474
873.561	22493
873.69	22542
873.819	22485
873.948	22554
874.077	22512
874.206	22470
874.335	22516
874.464	22653
874.593	22721
874.722	22660
874.851	22706
874.979	22797
875.108	22911
875.237	22694
875.365	22641
875.494	22713
875.623	22778
875.751	22736
875.88	22793
876.008	22889
876.136	22930
876.265	23105
876.393	23280
876.521	23086
876.65	23227
876.778	22968
876.906	23003
877.034	23121
877.162	23143
877.29	23006
877.418	23113
877.546	23162
877.674	23006
877.802	23128
877.93	23075
878.058	22999
878.185	23025
878.313	23033
878.441	23037
878.568	22942
878.696	22999
878.824	23117
878.951	23197
879.079	23299
879.206	23452
879.333	23265
879.461	23193
879.588	23303
879.715	23204
879.842	23315
879.97	23178
880.097	22957
880.224	22889
880.351	22858
880.478	22930
880.605	22850
880.732	22953
880.859	23128
880.986	22930
881.112	22987
881.239	22782
881.366	22649
881.493	22577
881.619	22504
881.746	22497
881.872	22489
881.999	22409
882.125	22363
882.252	22504
882.378	22371
882.505	22493
882.631	22428
882.757	22242
882.883	22295
883.01	22135
883.136	22029
883.262	22101
883.388	21964
883.514	22093
883.64	22173
883.766	22036
883.892	21880
884.018	21895
884.143	22105
884.269	22219
884.395	21808
884.52	21831
884.646	21846
884.772	21781
884.897	21622
885.023	21937
885.148	21918
885.274	21854
885.399	21880
885.524	21736
885.65	21804
885.775	21785
885.9	21728
886.025	21861
886.15	21876
886.275	21736
886.4	21633
886.525	21759
886.65	21778
886.775	21701
886.9	21994
887.025	21884
887.149	21785
887.274	21690
887.399	21545
887.523	21519
887.648	21447
887.773	21481
887.897	21561
888.021	21564
888.146	21580
888.27	21682
888.395	21435
888.519	21580
888.643	21618
888.767	21591
888.891	21454
889.015	21325
889.139	21420
889.263	21374
889.387	21450
889.511	21504
889.635	21363
889.759	21310
889.883	21424
890.006	21199
890.13	21397
890.254	21264
890.377	21268
890.501	21005
890.624	21142
890.748	21176
890.871	20979
890.995	20929
891.118	20868
891.241	20944
891.364	20819
891.488	20990
891.611	20994
891.734	20830
891.857	20975
891.98	21024
892.103	20975
892.226	20773
892.349	20788
892.471	20762
892.594	20804
892.717	20819
892.839	20762
892.962	20819
893.085	20895
893.207	20804
893.33	20834
893.452	20819
893.575	20731
893.697	20777
893.819	20960
893.941	21058
894.064	20929
894.186	20830
894.308	20708
894.43	20880
894.552	21024
894.674	20914
894.796	20583
894.918	20800
895.04	20659
895.161	20804
895.283	20823
895.405	20678
895.526	20800
895.648	20788
895.769	20769
895.891	20880
896.012	20853
896.134	20986
896.255	20796
896.376	20678
896.498	20807
896.619	20853
896.74	20826
896.861	20868
896.982	21039
897.103	21298
897.224	21077
897.345	20982
897.466	21009
897.587	20956
897.708	21077
897.828	21066
897.949	20960
898.07	20853
898.19	20941
898.311	21024
898.431	20979
898.552	21081
898.672	21093
898.792	20994
898.913	20921
899.033	20876
899.153	20720
899.273	20674
899.393	20682
899.513	20727
899.633	20746
899.753	20701
899.873	20686
899.993	20739
900.113	20777
900.232	20663
900.352	20530
900.472	20530
900.591	20552
900.711	20454
900.83	20450
900.95	20533
901.069	20693
901.189	20419
901.308	20107
901.427	20134
901.546	20134
901.665	20138
901.784	20096
901.904	19967
902.023	19860
902.141	19677
902.26	19651
902.379	19696
902.498	19571
902.617	19624
902.735	19537
902.854	19567
902.973	19403
903.091	19228
903.21	19331
903.328	19194
903.446	19164
903.565	19050
903.683	18935
903.801	18966
903.919	19031
904.038	18985
904.156	18817
904.274	18909
904.392	18764
904.51	18730
904.627	18802
904.745	18840
904.863	18863
904.981	18658
905.098	18433
905.216	18445
905.334	18517
905.451	18456
905.569	18372
905.686	18604
905.803	18517
905.921	18330
906.038	18342
906.155	18346
906.272	18117
906.389	18213
906.506	17958
906.623	18098
906.74	17939
906.857	17870
906.974	17866
907.091	18045
907.208	18102
907.324	17935
907.441	17931
907.557	17714
907.674	17657
907.79	17661
907.907	17661
908.023	17783
908.139	17714
908.256	17665
908.372	17634
908.488	17627
908.604	17471
908.72	17509
908.836	17410
908.952	17330
909.068	17372
909.184	17520
909.3	17414
909.415	17482
909.531	17391
909.647	17235
909.762	17140
909.878	17117
909.993	17010
910.108	17208
910.224	17117
910.339	17174
910.454	16991
910.57	16908
910.685	16900
910.8	17128
910.915	17033
911.03	17022
911.145	16801
911.259	16664
911.374	16691
911.489	16569
911.604	16626
911.718	16462
911.833	16489
911.947	16386
912.062	16386
912.176	16390
912.291	16451
912.405	16455
912.519	16637
912.633	16691
912.748	16478
912.862	16367
912.976	16207
913.09	16226
913.204	16238
913.318	16188
913.431	16333
913.545	16257
913.659	16299
913.772	16185
913.886	16044
914	15964
914.113	16188
914.226	16226
914.34	16188
914.453	15945
914.566	16211
914.68	15918
914.793	15960
914.906	15698
915.019	15622
915.132	15545
915.245	15656
915.358	15713
915.47	15694
915.583	15625
915.696	15618
915.809	15648
915.921	15736
916.034	15549
916.146	15572
916.259	15538
916.371	15545
916.483	15504
916.595	15488
916.708	15485
916.82	15397
916.932	15370
917.044	15496
917.156	15488
917.268	15207
917.38	15268
917.491	15169
917.603	15298
917.715	15332
917.826	15279
917.938	15207
918.049	15081
918.161	15161
918.272	15332
918.384	15283
918.495	15123
918.606	15047
918.717	15028
918.828	15058
918.939	15020
919.05	15055
919.161	14971
919.272	14731
919.383	14883
919.494	14967
919.604	15165
919.715	14899
919.826	14891
919.936	14883
920.047	15085
920.157	14960
920.267	15127
920.378	14937
920.488	15039
920.598	15138
920.708	15317
920.818	15089
920.928	15024
921.038	15279
921.148	15218
921.258	14982
921.368	14765
921.477	14689
921.587	14648
921.697	14659
921.806	14655
921.916	14549
922.025	14400
922.134	14214
922.244	14278
922.353	14301
922.462	14206
922.571	14195
922.68	13967
922.789	14005
922.898	13959
923.007	13955
923.116	13993
923.224	13936
923.333	13890
923.442	13788
923.55	13818
923.659	13811
923.767	13906
923.876	13727
923.984	13837
924.092	13681
924.201	13731
924.309	13750
924.417	13685
924.525	13594
924.633	13563
924.741	14632
924.849	13415
924.956	13506
925.064	13400
925.172	13407
925.279	13373
925.387	13419
925.494	13472
925.602	13529
925.709	13381
925.816	13320
925.924	13270
926.031	13381
926.138	13320
926.245	13312
926.352	13175
926.459	13255
926.566	13415
926.673	13255
926.779	13091
926.886	13061
926.993	12996
927.099	12867
927.206	12829
927.312	12897
927.419	13000
927.525	12920
927.631	13012
927.737	12806
927.843	12711
927.95	12688
928.056	12688
928.162	12795
928.267	12760
928.373	13331
928.479	12897
928.585	12616
928.69	12593
928.796	12703
928.901	12658
929.007	12441
929.112	12521
929.218	12585
929.323	12433
929.428	12407
929.533	12563
929.638	12357
929.743	12410
929.848	12353
929.953	12327
930.058	12224
930.163	12110
930.267	12110
930.372	12213
930.477	12091
930.581	12357
930.685	12064
930.79	11954
930.894	12034
930.998	11980
931.103	12110
931.207	11840
931.311	11592
931.415	11532
931.519	11433
931.623	11406
