Data from test_V78500241_1758.txt Node
Date: Fri Mar 25 15:53:58 CST 2022
User: usil
Spectrometer: V785-0024
Trigger mode: 0
Integration Time (sec): 4.000000E-1
Scans to average: 1
Nonlinearity correction enabled: false
Boxcar width: 0
Storing dark spectrum: false
XAxis mode: Wavelengths
Number of Pixels in Spectrum: 1024
>>>>>Begin Spectral Data<<<<<
801.071	28744
801.214	28596
801.356	28550
801.499	28348
801.641	28124
801.783	28295
801.926	28432
802.068	28325
802.211	28238
802.353	28188
802.496	27941
802.638	28082
802.78	27907
802.923	27785
803.065	27819
803.208	27903
803.35	28143
803.492	28055
803.635	28105
803.777	28120
803.919	28200
804.061	28451
804.204	28158
804.346	28158
804.488	28166
804.63	28204
804.773	28169
804.915	28211
805.057	28344
805.199	28177
805.341	28314
805.483	28424
805.626	28287
805.768	28196
805.91	28363
806.052	28379
806.194	28360
806.336	28497
806.478	28500
806.62	28367
806.762	28542
806.904	28660
807.046	28843
807.188	28664
807.33	28877
807.472	28782
807.614	28683
807.756	28736
807.898	28649
808.04	28459
808.182	28580
808.324	28645
808.465	28816
808.607	28888
808.749	29025
808.891	29155
809.033	29166
809.174	29143
809.316	29010
809.458	29090
809.6	29006
809.741	29136
809.883	29151
810.025	29379
810.166	29341
810.308	29349
810.45	29235
810.591	29151
810.733	29136
810.875	29109
811.016	28980
811.158	29022
811.299	29242
811.441	29208
811.582	29212
811.724	29048
811.865	29014
812.007	29029
812.148	29109
812.29	28987
812.431	29277
812.573	29444
812.714	29315
812.855	29562
812.997	29703
813.138	29775
813.279	29817
813.421	29611
813.562	29501
813.703	29364
813.845	29204
813.986	29010
814.127	28984
814.268	28588
814.41	28858
814.551	28702
814.692	28847
814.833	28675
814.974	28691
815.115	28721
815.256	28645
815.397	28580
815.539	28717
815.68	28584
815.821	28500
815.962	28538
816.103	28557
816.244	28421
816.385	28379
816.526	28352
816.666	28131
816.807	27994
816.948	28109
817.089	28173
817.23	28128
817.371	28211
817.512	28070
817.653	27956
817.793	27998
817.934	28063
818.075	28017
818.216	28063
818.356	27953
818.497	28059
818.638	27922
818.778	27827
818.919	27838
819.06	27838
819.2	27941
819.341	28040
819.481	27911
819.622	28150
819.762	28344
819.903	28325
820.043	28185
820.184	28128
820.324	28150
820.465	28287
820.605	28223
820.746	28192
820.886	28154
821.026	28207
821.167	28093
821.307	28181
821.447	28006
821.588	28177
821.728	27823
821.868	27583
822.008	27679
822.149	27500
822.289	27526
822.429	27226
822.569	27275
822.709	27169
822.849	27123
822.99	27039
823.13	26963
823.27	26982
823.41	26876
823.55	26769
823.69	26849
823.83	26937
823.97	26895
824.11	26739
824.25	26655
824.389	26708
824.529	26861
824.669	26849
824.809	26944
824.949	26659
825.089	26762
825.228	26765
825.368	26613
825.508	26598
825.648	26511
825.787	26575
825.927	26571
826.067	26465
826.206	26617
826.346	26590
826.485	26514
826.625	26526
826.765	26545
826.904	26560
827.044	26309
827.183	26313
827.323	26374
827.462	26377
827.601	26412
827.741	26199
827.88	26298
828.02	26164
828.159	26290
828.298	26347
828.437	26362
828.577	26221
828.716	26381
828.855	26195
828.994	25966
829.134	26081
829.273	26035
829.412	25871
829.551	25856
829.69	25932
829.829	25936
829.968	26077
830.107	26062
830.246	25936
830.385	25974
830.524	26081
830.663	25734
830.802	25658
830.941	25658
831.08	25514
831.219	25594
831.357	25712
831.496	25830
831.635	25525
831.774	25529
831.913	25384
832.051	25544
832.19	25483
832.329	25396
832.467	25160
832.606	25388
832.744	25206
832.883	25194
833.022	25209
833.16	25209
833.299	25415
833.437	25244
833.576	25263
833.714	25240
833.852	25301
833.991	25228
834.129	25506
834.267	25312
834.406	25148
834.544	25282
834.682	25346
834.821	25358
834.959	25384
835.097	25240
835.235	25407
835.373	25263
835.511	25335
835.65	25122
835.788	25114
835.926	24951
836.064	24977
836.202	25008
836.34	25122
836.478	25137
836.615	25080
836.753	25183
836.891	25179
837.029	25168
837.167	25152
837.305	25038
837.443	25091
837.58	25027
837.718	25061
837.856	24947
837.993	24909
838.131	24916
838.269	24753
838.406	24833
838.544	24829
838.681	24559
838.819	24479
838.956	24460
839.094	24296
839.231	24464
839.369	24753
839.506	24779
839.643	24642
839.781	24300
839.918	24391
840.055	24285
840.193	24464
840.33	24304
840.467	24266
840.604	24471
840.742	24677
840.879	24285
841.016	24273
841.153	24239
841.29	24475
841.427	24399
841.564	24384
841.701	24388
841.838	24266
841.975	24266
842.112	24182
842.249	24171
842.385	24049
842.522	24403
842.659	24270
842.796	24095
842.933	24129
843.069	24045
843.206	23920
843.343	23996
843.479	24095
843.616	24190
843.752	23977
843.889	23885
844.025	24034
844.162	23904
844.298	24053
844.435	23882
844.571	23901
844.708	23980
844.844	23988
844.98	23977
845.117	23878
845.253	23920
845.389	23775
845.525	23733
845.661	23687
845.798	23672
845.934	23554
846.07	23463
846.206	23649
846.342	23714
846.478	23535
846.614	23334
846.75	23200
846.886	23265
847.022	23254
847.158	23425
847.294	23269
847.429	23349
847.565	23261
847.701	23528
847.837	23094
847.972	22987
848.108	23014
848.244	23239
848.379	22972
848.515	22889
848.65	22843
848.786	22957
848.921	22961
849.057	22930
849.192	22999
849.328	23006
849.463	22847
849.598	22877
849.734	22778
849.869	22698
850.004	22702
850.14	22599
850.275	22793
850.41	22630
850.545	22641
850.68	22675
850.815	22786
850.95	22607
851.085	22816
851.22	22733
851.355	22717
851.49	22626
851.625	22649
851.76	22675
851.895	22519
852.03	22546
852.165	22694
852.299	22645
852.434	22706
852.569	22584
852.703	22710
852.838	22759
852.973	22850
853.107	22778
853.242	22497
853.376	22462
853.511	22428
853.645	22489
853.78	22641
853.914	22565
854.048	22603
854.183	22451
854.317	22736
854.451	22584
854.585	22538
854.72	22360
854.854	22691
854.988	22451
855.122	22603
855.256	22295
855.39	22413
855.524	22519
855.658	22531
855.792	22580
855.926	22557
856.06	22493
856.194	22611
856.327	22478
856.461	22428
856.595	22379
856.729	22382
856.862	22626
856.996	22527
857.13	22542
857.263	22561
857.397	22481
857.53	22489
857.664	22584
857.797	22508
857.931	22630
858.064	22550
858.197	22542
858.331	22409
858.464	22504
858.597	22356
858.731	22428
858.864	22371
858.997	22599
859.13	22478
859.263	22405
859.396	22504
859.529	22443
859.662	22508
859.795	22356
859.928	22489
860.061	22626
860.194	22713
860.327	22599
860.46	22390
860.592	22653
860.725	22622
860.858	22626
860.99	22489
861.123	22356
861.256	22443
861.388	22516
861.521	23121
861.653	22367
861.786	22188
861.918	22261
862.05	22447
862.183	22272
862.315	22379
862.447	22405
862.58	22421
862.712	22181
862.844	22234
862.976	22166
863.108	22344
863.24	22565
863.372	22086
863.504	22219
863.636	22162
863.768	22265
863.9	22246
864.032	22013
864.164	22101
864.296	22097
864.428	22192
864.559	22192
864.691	22299
864.823	22010
864.954	22124
865.086	22105
865.217	22177
865.349	22006
865.48	22048
865.612	22051
865.743	22158
865.875	22082
866.006	21991
866.137	22021
866.269	21991
866.4	22051
866.531	22093
866.662	21876
866.793	21953
866.924	22112
867.055	22017
867.186	22051
867.317	21907
867.448	21991
867.579	21922
867.71	21907
867.841	21850
867.972	21907
868.103	21945
868.233	21983
868.364	21956
868.495	22044
868.625	22234
868.756	22306
868.886	22101
869.017	22162
869.147	22261
869.278	22337
869.408	22314
869.539	22166
869.669	22265
869.799	22158
869.929	22356
870.06	22287
870.19	22474
870.32	22607
870.45	22512
870.58	22577
870.71	22729
870.84	22729
870.97	22748
871.1	22736
871.23	22839
871.36	22805
871.489	22687
871.619	22755
871.749	22725
871.879	22820
872.008	22839
872.138	22858
872.267	22824
872.397	22767
872.526	22622
872.656	22698
872.785	22656
872.915	22782
873.044	22938
873.173	22889
873.303	22858
873.432	22774
873.561	22968
873.69	23010
873.819	22915
873.948	22957
874.077	22869
874.206	22858
874.335	22816
874.464	22881
874.593	23025
874.722	22987
874.851	23132
874.979	23132
875.108	23159
875.237	22984
875.365	22980
875.494	22961
875.623	23071
875.751	23025
875.88	22984
876.008	23166
876.136	23223
876.265	23410
876.393	23535
876.521	23608
876.65	23524
876.778	23414
876.906	23330
877.034	23349
877.162	23277
877.29	23280
877.418	23478
877.546	23349
877.674	23322
877.802	23311
877.93	23459
878.058	23220
878.185	23246
878.313	23322
878.441	23349
878.568	23265
878.696	23292
878.824	23493
878.951	23429
879.079	23615
879.206	23756
879.333	23623
879.461	23436
879.588	23455
879.715	23444
879.842	23653
879.97	23497
880.097	23292
880.224	23231
880.351	23288
880.478	23273
880.605	23261
880.732	23200
880.859	23467
880.986	23170
881.112	23242
881.239	23231
881.366	23052
881.493	22839
881.619	22843
881.746	22797
881.872	22790
881.999	22713
882.125	22698
882.252	22725
882.378	22763
882.505	22820
882.631	22596
882.757	22546
882.883	22569
883.01	22512
883.136	22485
883.262	22246
883.388	22341
883.514	22443
883.64	22356
883.766	22451
883.892	22188
884.018	22268
884.143	22253
884.269	22462
884.395	22204
884.52	22185
884.646	22173
884.772	22086
884.897	21987
885.023	22120
885.148	22154
885.274	22265
885.399	22230
885.524	22048
885.65	22082
885.775	22063
885.9	21968
886.025	22200
886.15	22143
886.275	22059
886.4	22002
886.525	22116
886.65	22032
886.775	21876
886.9	22223
887.025	22306
887.149	21956
887.274	21819
887.399	21899
887.523	21827
887.648	21842
887.773	21717
887.897	21781
888.021	21899
888.146	21739
888.27	21838
888.395	21998
888.519	21774
888.643	21895
888.767	21846
888.891	21694
889.015	21705
889.139	21652
889.263	21530
889.387	21835
889.511	21675
889.635	21717
889.759	21622
889.883	21625
890.006	21701
890.13	21625
890.254	21481
890.377	21511
890.501	21298
890.624	21386
890.748	21466
890.871	21298
890.995	21302
891.118	21195
891.241	21184
891.364	21165
891.488	21306
891.611	21184
891.734	21218
891.857	21252
891.98	21039
892.103	21116
892.226	21150
892.349	21028
892.471	20975
892.594	21043
892.717	21066
892.839	21028
892.962	21131
893.085	21089
893.207	21169
893.33	20944
893.452	21001
893.575	21093
893.697	21020
893.819	21260
893.941	21412
894.064	21142
894.186	21028
894.308	20975
894.43	21180
894.552	21195
894.674	21154
894.796	21039
894.918	20925
895.04	21017
895.161	21211
895.283	21138
895.405	21032
895.526	20963
895.648	21066
895.769	21108
895.891	21112
896.012	21108
896.134	21039
896.255	21039
896.376	20933
896.498	21017
896.619	21135
896.74	21013
896.861	21089
896.982	21367
897.103	21534
897.224	21226
897.345	21249
897.466	21272
897.587	21199
897.708	21302
897.828	21207
897.949	21146
898.07	21077
898.19	21195
898.311	21302
898.431	21199
898.552	21222
898.672	21317
898.792	21237
898.913	21252
899.033	21081
899.153	21005
899.273	20971
899.393	20986
899.513	21051
899.633	20986
899.753	21062
899.873	20876
899.993	20952
900.113	20990
900.232	20956
900.352	20895
900.472	20773
900.591	20621
900.711	20712
900.83	20708
900.95	20914
901.069	20762
901.189	20663
901.308	20488
901.427	20259
901.546	20355
901.665	20320
901.784	20400
901.904	20294
902.023	20119
902.141	20081
902.26	19841
902.379	19940
902.498	19928
902.617	19670
902.735	19936
902.854	19746
902.973	19693
903.091	19575
903.21	19495
903.328	19495
903.446	19422
903.565	19339
903.683	19240
903.801	19183
903.919	19168
904.038	19126
904.156	19015
904.274	19031
904.392	19141
904.51	19031
904.627	18951
904.745	18989
904.863	19129
904.981	18875
905.098	18711
905.216	18677
905.334	18776
905.451	18802
905.569	18646
905.686	18730
905.803	18646
905.921	18509
906.038	18593
906.155	18513
906.272	18365
906.389	18410
906.506	18292
906.623	18216
906.74	18148
906.857	18076
906.974	18121
907.091	18277
907.208	18414
907.324	18270
907.441	18041
907.557	17984
907.674	17958
907.79	17821
907.907	17840
908.023	17965
908.139	17939
908.256	17950
908.372	17726
908.488	17863
908.604	17745
908.72	17627
908.836	17691
908.952	17672
909.068	17687
909.184	17687
909.3	17627
909.415	17695
909.531	17623
909.647	17402
909.762	17387
909.878	17345
909.993	17307
910.108	17296
910.224	17239
910.339	17391
910.454	17151
910.57	17086
910.685	17010
910.8	17349
910.915	17299
911.03	17189
911.145	16847
911.259	16919
911.374	16904
911.489	16911
911.604	16824
911.718	16656
911.833	16752
911.947	16554
912.062	16504
912.176	16767
912.291	16626
912.405	16637
912.519	16904
912.633	16843
912.748	16710
912.862	16752
912.976	16489
913.09	16424
913.204	16462
913.318	16398
913.431	16622
913.545	16462
913.659	16550
913.772	16333
913.886	16329
914	16268
914.113	16440
914.226	16306
914.34	16344
914.453	16242
914.566	16440
914.68	16078
914.793	16055
914.906	15915
915.019	15865
915.132	15823
915.245	15926
915.358	15827
915.47	15857
915.583	15846
915.696	15869
915.809	16063
915.921	16025
916.034	15804
916.146	15694
916.259	15614
916.371	15903
916.483	15861
916.595	15667
916.708	15679
916.82	15614
916.932	15671
917.044	15614
917.156	15648
917.268	15473
917.38	15469
917.491	15492
917.603	15504
917.715	15595
917.826	15656
917.938	15351
918.049	15332
918.161	15378
918.272	15485
918.384	15542
918.495	15447
918.606	15207
918.717	15173
918.828	15275
918.939	15260
919.05	15214
919.161	15283
919.272	15127
919.383	15112
919.494	15306
919.604	15431
919.715	15222
919.826	15055
919.936	15138
920.047	15294
920.157	15138
920.267	15279
920.378	15222
920.488	15161
920.598	15458
920.708	15504
920.818	15283
920.928	15272
921.038	15454
921.148	15405
921.258	15066
921.368	14971
921.477	14998
921.587	14838
921.697	14857
921.806	14910
921.916	14834
922.025	14632
922.134	14571
922.244	14454
922.353	14602
922.462	14317
922.571	14377
922.68	14282
922.789	14126
922.898	14153
923.007	14005
923.116	14256
923.224	14161
923.333	14210
923.442	14005
923.55	13917
923.659	14039
923.767	13959
923.876	14043
923.984	14012
924.092	13871
924.201	13928
924.309	13974
924.417	14001
924.525	13860
924.633	13925
924.741	14571
924.849	13685
924.956	13734
925.064	13681
925.172	13476
925.279	13620
925.387	13582
925.494	13590
925.602	13723
925.709	13651
925.816	13510
925.924	13518
926.031	13499
926.138	13381
926.245	13594
926.352	13377
926.459	13609
926.566	13605
926.673	13445
926.779	13308
926.886	13278
926.993	13179
927.099	13122
927.206	13069
927.312	13103
927.419	13213
927.525	13046
927.631	13095
927.737	13053
927.843	12924
927.95	12829
928.056	12848
928.162	12943
928.267	12989
928.373	13624
928.479	12966
928.585	12654
928.69	12886
928.796	12817
928.901	12681
929.007	12612
929.112	12696
929.218	12726
929.323	12627
929.428	12696
929.533	12753
929.638	12593
929.743	12646
929.848	12589
929.953	12509
930.058	12471
930.163	12228
930.267	12273
930.372	12433
930.477	12258
930.581	12479
930.685	12372
930.79	12148
930.894	12182
930.998	12243
931.103	12285
931.207	11885
931.311	11786
931.415	11756
931.519	11478
931.623	11520
