Data from test_V78500241_1002.txt Node
Date: Fri Mar 25 15:48:44 CST 2022
User: usil
Spectrometer: V785-0024
Trigger mode: 0
Integration Time (sec): 4.000000E-1
Scans to average: 1
Nonlinearity correction enabled: false
Boxcar width: 0
Storing dark spectrum: false
XAxis mode: Wavelengths
Number of Pixels in Spectrum: 1024
>>>>>Begin Spectral Data<<<<<
801.071	28173
801.214	28169
801.356	27960
801.499	27922
801.641	27880
801.783	27766
801.926	27835
802.068	27831
802.211	27854
802.353	27591
802.496	27603
802.638	27507
802.78	27530
802.923	27443
803.065	27454
803.208	27348
803.35	27724
803.492	27663
803.635	27732
803.777	27652
803.919	27671
804.061	28013
804.204	27842
804.346	27766
804.488	27732
804.63	27705
804.773	27618
804.915	27759
805.057	27793
805.199	27846
805.341	27819
805.483	27800
805.626	27880
805.768	27728
805.91	27899
806.052	27785
806.194	27876
806.336	28181
806.478	27975
806.62	27865
806.762	27998
806.904	28158
807.046	28447
807.188	28474
807.33	28405
807.472	28470
807.614	28318
807.756	28253
807.898	28215
808.04	28158
808.182	28101
808.324	28120
808.465	28234
808.607	28447
808.749	28630
808.891	28675
809.033	28634
809.174	28618
809.316	28451
809.458	28584
809.6	28538
809.741	28812
809.883	28694
810.025	28991
810.166	28733
810.308	28847
810.45	28774
810.591	28831
810.733	28569
810.875	28523
811.016	28481
811.158	28630
811.299	28694
811.441	28782
811.582	28733
811.724	28664
811.865	28626
812.007	28527
812.148	28546
812.29	28504
812.431	28748
812.573	28968
812.714	28965
812.855	29200
812.997	29242
813.138	29242
813.279	29181
813.421	29185
813.562	29151
813.703	29086
813.845	28687
813.986	28634
814.127	28516
814.268	28390
814.41	28367
814.551	28276
814.692	28223
814.833	28310
814.974	28230
815.115	28166
815.256	28131
815.397	28185
815.539	28272
815.68	28040
815.821	27991
815.962	28158
816.103	27983
816.244	27934
816.385	27888
816.526	27960
816.666	27880
816.807	27720
816.948	27675
817.089	27656
817.23	27736
817.371	27500
817.512	27682
817.653	27580
817.793	27610
817.934	27644
818.075	27701
818.216	27629
818.356	27568
818.497	27462
818.638	27321
818.778	27203
818.919	27329
819.06	27439
819.2	27538
819.341	27595
819.481	27633
819.622	27789
819.762	27994
819.903	27884
820.043	27861
820.184	27736
820.324	27686
820.465	27713
820.605	27705
820.746	27698
820.886	27618
821.026	27701
821.167	27698
821.307	27694
821.447	27637
821.588	27561
821.728	27367
821.868	27306
822.008	27074
822.149	27100
822.289	26982
822.429	26906
822.569	26731
822.709	26788
822.849	26625
822.99	26587
823.13	26648
823.27	26526
823.41	26393
823.55	26328
823.69	26332
823.83	26339
823.97	26465
824.11	26225
824.25	26111
824.389	26294
824.529	26214
824.669	26199
824.809	26415
824.949	26298
825.089	26358
825.228	26240
825.368	26103
825.508	26218
825.648	26168
825.787	26256
825.927	26161
826.067	26039
826.206	26107
826.346	26218
826.485	26180
826.625	26088
826.765	26313
826.904	26126
827.044	25947
827.183	25951
827.323	25818
827.462	25791
827.601	25803
827.741	25830
827.88	25928
828.02	25700
828.159	25788
828.298	25742
828.437	25875
828.577	25776
828.716	25921
828.855	25776
828.994	25681
829.134	25487
829.273	25479
829.412	25540
829.551	25502
829.69	25700
829.829	25460
829.968	25609
830.107	25616
830.246	25590
830.385	25479
830.524	25403
830.663	25331
830.802	25213
830.941	25190
831.08	25133
831.219	25259
831.357	25289
831.496	25362
831.635	25190
831.774	25110
831.913	25118
832.051	24844
832.19	24996
832.329	24916
832.467	24954
832.606	24776
832.744	24772
832.883	24890
833.022	24814
833.16	24848
833.299	24932
833.437	24806
833.576	24913
833.714	24840
833.852	24905
833.991	24863
834.129	25019
834.267	24875
834.406	24913
834.544	24890
834.682	24894
834.821	24817
834.959	25072
835.097	24867
835.235	24840
835.373	24886
835.511	24810
835.65	24707
835.788	24791
835.926	24578
836.064	24639
836.202	24620
836.34	24635
836.478	24696
836.615	24681
836.753	24681
836.891	24745
837.029	24749
837.167	24547
837.305	24513
837.443	24631
837.58	24536
837.718	24570
837.856	24631
837.993	24426
838.131	24388
838.269	24357
838.406	24445
838.544	24395
838.681	24209
838.819	24064
838.956	23942
839.094	24007
839.231	24060
839.369	23977
839.506	24407
839.643	24372
839.781	24007
839.918	24064
840.055	23965
840.193	24034
840.33	23870
840.467	23969
840.604	23832
840.742	24144
840.879	23726
841.016	24015
841.153	23699
841.29	23988
841.427	23889
841.564	23916
841.701	23878
841.838	23897
841.975	23805
842.112	23752
842.249	23790
842.385	23668
842.522	23897
842.659	23676
842.796	23714
842.933	23703
843.069	23551
843.206	23562
843.343	23672
843.479	23608
843.616	23764
843.752	23520
843.889	23592
844.025	23433
844.162	23444
844.298	23448
844.435	23376
844.571	23387
844.708	23509
844.844	23615
844.98	23558
845.117	23592
845.253	23318
845.389	23322
845.525	23334
845.661	23334
845.798	23193
845.934	23223
846.07	23227
846.206	23121
846.342	23147
846.478	23143
846.614	23014
846.75	22866
846.886	22927
847.022	22904
847.158	22999
847.294	22763
847.429	22980
847.565	22915
847.701	23014
847.837	22527
847.972	22664
848.108	22618
848.244	22713
848.379	22497
848.515	22455
848.65	22489
848.786	22573
848.921	22546
849.057	22599
849.192	22596
849.328	22424
849.463	22512
849.598	22398
849.734	22306
849.869	22318
850.004	22261
850.14	22219
850.275	22188
850.41	22238
850.545	22257
850.68	22162
850.815	22314
850.95	22188
851.085	22405
851.22	22310
851.355	22287
851.49	22284
851.625	22177
851.76	22295
851.895	22196
852.03	22162
852.165	22371
852.299	22303
852.434	22344
852.569	22272
852.703	22299
852.838	22352
852.973	22200
853.107	22257
853.242	22147
853.376	22169
853.511	21949
853.645	22017
853.78	22135
853.914	22101
854.048	22013
854.183	22044
854.317	22040
854.451	22253
854.585	21941
854.72	22086
854.854	22124
854.988	21972
855.122	22010
855.256	21915
855.39	22059
855.524	22109
855.658	22082
855.792	21979
855.926	22105
856.06	22173
856.194	22067
856.327	22185
856.461	21899
856.595	22044
856.729	22017
856.862	22181
856.996	22078
857.13	22150
857.263	22074
857.397	22226
857.53	22112
857.664	22109
857.797	22116
857.931	22185
858.064	22090
858.197	22090
858.331	22029
858.464	21953
858.597	21998
858.731	22055
858.864	21983
858.997	21892
859.13	22036
859.263	22078
859.396	22105
859.529	22055
859.662	22029
859.795	21956
859.928	21998
860.061	22188
860.194	22356
860.327	22074
860.46	22040
860.592	22150
860.725	22196
860.858	22284
860.99	22029
861.123	21968
861.256	21922
861.388	22025
861.521	22801
861.653	21972
861.786	21854
861.918	22002
862.05	22002
862.183	21918
862.315	21972
862.447	22120
862.58	21972
862.712	21698
862.844	21610
862.976	21759
863.108	21922
863.24	22181
863.372	21816
863.504	21694
863.636	21766
863.768	21835
863.9	21838
864.032	21660
864.164	21713
864.296	21686
864.428	21720
864.559	21876
864.691	21835
864.823	21861
864.954	21724
865.086	21747
865.217	21637
865.349	21545
865.48	21709
865.612	21656
865.743	21846
865.875	21557
866.006	21713
866.137	21587
866.269	21587
866.4	21511
866.531	21622
866.662	21545
866.793	21523
866.924	21587
867.055	21568
867.186	21496
867.317	21439
867.448	21515
867.579	21507
867.71	21431
867.841	21641
867.972	21606
868.103	21424
868.233	21545
868.364	21587
868.495	21641
868.625	21850
868.756	21838
868.886	21762
869.017	21770
869.147	21876
869.278	21960
869.408	21743
869.539	21717
869.669	21793
869.799	21888
869.929	21991
870.06	22044
870.19	22162
870.32	22032
870.45	22097
870.58	22093
870.71	22177
870.84	22181
870.97	22291
871.1	22219
871.23	22333
871.36	22371
871.489	22379
871.619	22310
871.749	22409
871.879	22409
872.008	22508
872.138	22455
872.267	22318
872.397	22242
872.526	22310
872.656	22234
872.785	22295
872.915	22527
873.044	22413
873.173	22447
873.303	22333
873.432	22481
873.561	22523
873.69	22409
873.819	22421
873.948	22542
874.077	22508
874.206	22375
874.335	22455
874.464	22413
874.593	22706
874.722	22504
874.851	22603
874.979	22675
875.108	22740
875.237	22622
875.365	22584
875.494	22531
875.623	22653
875.751	22512
875.88	22641
876.008	22831
876.136	22752
876.265	22850
876.393	23094
876.521	23212
876.65	23079
876.778	22987
876.906	22900
877.034	22911
877.162	22938
877.29	22949
877.418	23029
877.546	22858
877.674	22991
877.802	22999
877.93	22984
878.058	22927
878.185	22866
878.313	22972
878.441	22938
878.568	22729
878.696	22938
878.824	23090
878.951	23048
879.079	23231
879.206	23197
879.333	23033
879.461	23090
879.588	23044
879.715	23181
879.842	23277
879.97	23071
880.097	22942
880.224	22919
880.351	22713
880.478	22930
880.605	22675
880.732	22763
880.859	23014
880.986	22782
881.112	22752
881.239	22710
881.366	22580
881.493	22508
881.619	22398
881.746	22398
881.872	22329
881.999	22409
882.125	22242
882.252	22344
882.378	22314
882.505	22577
882.631	22109
882.757	22211
882.883	22158
883.01	22150
883.136	21956
883.262	21937
883.388	21865
883.514	21964
883.64	22131
883.766	22063
883.892	21770
884.018	21915
884.143	21956
884.269	22105
884.395	21838
884.52	21671
884.646	21682
884.772	21625
884.897	21648
885.023	21739
885.148	21633
885.274	21846
885.399	21850
885.524	21701
885.65	21774
885.775	21724
885.9	21747
886.025	21736
886.15	21724
886.275	21603
886.4	21599
886.525	21526
886.65	21736
886.775	21549
886.9	21778
887.025	21918
887.149	21599
887.274	21591
887.399	21473
887.523	21488
887.648	21336
887.773	21454
887.897	21519
888.021	21397
888.146	21405
888.27	21564
888.395	21511
888.519	21511
888.643	21450
888.767	21401
888.891	21245
889.015	21291
889.139	21412
889.263	21268
889.387	21450
889.511	21462
889.635	21481
889.759	21188
889.883	21085
890.006	21207
890.13	21325
890.254	21184
890.377	21150
890.501	20975
890.624	21005
890.748	21032
890.871	20906
890.995	20853
891.118	20735
891.241	20864
891.364	20887
891.488	20948
891.611	20937
891.734	20796
891.857	20800
891.98	20823
892.103	20842
892.226	20967
892.349	20648
892.471	20537
892.594	20670
892.717	20765
892.839	20663
892.962	20720
893.085	20765
893.207	20625
893.33	20556
893.452	20693
893.575	20697
893.697	20670
893.819	20800
893.941	20910
894.064	20838
894.186	20617
894.308	20617
894.43	20800
894.552	20834
894.674	20811
894.796	20549
894.918	20670
895.04	20655
895.161	20731
895.283	20769
895.405	20617
895.526	20644
895.648	20686
895.769	20659
895.891	20864
896.012	20750
896.134	20743
896.255	20682
896.376	20735
896.498	20636
896.619	20708
896.74	20640
896.861	20792
896.982	20998
897.103	21161
897.224	20986
897.345	20952
897.466	20902
897.587	20876
897.708	21112
897.828	20887
897.949	20918
898.07	20861
898.19	20762
898.311	21017
898.431	20918
898.552	20899
898.672	21017
898.792	20967
898.913	21051
899.033	20750
899.153	20785
899.273	20568
899.393	20769
899.513	20670
899.633	20594
899.753	20651
899.873	20667
899.993	20689
900.113	20617
900.232	20617
900.352	20640
900.472	20560
900.591	20362
900.711	20514
900.83	20370
900.95	20640
901.069	20495
901.189	20427
901.308	20103
901.427	20035
901.546	20024
901.665	19974
901.784	20103
901.904	19860
902.023	19795
902.141	19533
902.26	19639
902.379	19548
902.498	19460
902.617	19449
902.735	19651
902.854	19548
902.973	19426
903.091	19168
903.21	19190
903.328	19183
903.446	19114
903.565	18939
903.683	18848
903.801	18852
903.919	18913
904.038	18935
904.156	18764
904.274	18833
904.392	18772
904.51	18795
904.627	18738
904.745	18840
904.863	18817
904.981	18585
905.098	18395
905.216	18452
905.334	18429
905.451	18471
905.569	18490
905.686	18559
905.803	18437
905.921	18121
906.038	18319
906.155	18384
906.272	17996
906.389	18213
906.506	18022
906.623	17965
906.74	17954
906.857	17840
906.974	17908
907.091	17935
907.208	18057
907.324	17958
907.441	17912
907.557	17764
907.674	17646
907.79	17611
907.907	17657
908.023	17661
908.139	17691
908.256	17608
908.372	17509
908.488	17493
908.604	17345
908.72	17269
908.836	17421
908.952	17204
909.068	17303
909.184	17490
909.3	17288
909.415	17486
909.531	17353
909.647	17162
909.762	17231
909.878	17041
909.993	17064
910.108	17006
910.224	16995
910.339	17105
910.454	16919
910.57	16828
910.685	16733
910.8	17018
910.915	16938
911.03	16889
911.145	16660
911.259	16660
911.374	16691
911.489	16519
911.604	16516
911.718	16409
911.833	16436
911.947	16394
912.062	16249
912.176	16409
912.291	16489
912.405	16474
912.519	16550
912.633	16679
912.748	16428
912.862	16329
912.976	16230
913.09	16131
913.204	16226
913.318	16188
913.431	16287
913.545	16257
913.659	16196
913.772	16169
913.886	16090
914	15972
914.113	16112
914.226	16226
914.34	16078
914.453	15865
914.566	16055
914.68	15850
914.793	15827
914.906	15686
915.019	15542
915.132	15500
915.245	15633
915.358	15679
915.47	15717
915.583	15637
915.696	15511
915.809	15682
915.921	15728
916.034	15557
916.146	15553
916.259	15526
916.371	15515
916.483	15473
916.595	15405
916.708	15454
916.82	15488
916.932	15325
917.044	15313
917.156	15302
917.268	15313
917.38	15351
917.491	15169
917.603	15294
917.715	15287
917.826	15389
917.938	15294
918.049	15100
918.161	15237
918.272	15283
918.384	15268
918.495	15161
918.606	15017
918.717	14941
918.828	15077
918.939	14960
919.05	14887
919.161	15013
919.272	14701
919.383	14868
919.494	15032
919.604	15230
919.715	15001
919.826	14849
919.936	15032
920.047	14956
920.157	15074
920.267	15165
920.378	15055
920.488	14792
920.598	15119
920.708	15165
920.818	15036
920.928	15127
921.038	15176
921.148	15233
921.258	14857
921.368	14826
921.477	14743
921.587	14674
921.697	14533
921.806	14693
921.916	14541
922.025	14431
922.134	14339
922.244	14271
922.353	14358
922.462	14164
922.571	14111
922.68	14084
922.789	14005
922.898	13989
923.007	13811
923.116	13944
923.224	13932
923.333	13780
923.442	13864
923.55	13670
923.659	13776
923.767	13852
923.876	13715
923.984	13875
924.092	13624
924.201	13746
924.309	13658
924.417	13632
924.525	13628
924.633	13616
924.741	14598
924.849	13358
924.956	13506
925.064	13407
925.172	13274
925.279	13278
925.387	13441
925.494	13354
925.602	13506
925.709	13392
925.816	13232
925.924	13312
926.031	13369
926.138	13266
926.245	13388
926.352	13278
926.459	13304
926.566	13308
926.673	13141
926.779	13050
926.886	13114
926.993	12947
927.099	12924
927.206	12825
927.312	12825
927.419	12871
927.525	12867
927.631	12905
927.737	12734
927.843	12700
927.95	12616
928.056	12696
928.162	12829
928.267	12726
928.373	13285
928.479	12844
928.585	12544
928.69	12703
928.796	12745
928.901	12604
929.007	12407
929.112	12612
929.218	12502
929.323	12460
929.428	12433
929.533	12551
929.638	12380
929.743	12376
929.848	12471
929.953	12346
930.058	12190
930.163	12152
930.267	12060
930.372	12281
930.477	12121
930.581	12357
930.685	12121
930.79	11988
930.894	12038
930.998	11897
931.103	12091
931.207	11672
931.311	11604
931.415	11634
931.519	11387
931.623	11330
