Data from test_V78500241_3459.txt Node
Date: Fri Mar 25 16:05:45 CST 2022
User: usil
Spectrometer: V785-0024
Trigger mode: 0
Integration Time (sec): 4.000000E-1
Scans to average: 1
Nonlinearity correction enabled: false
Boxcar width: 0
Storing dark spectrum: false
XAxis mode: Wavelengths
Number of Pixels in Spectrum: 1024
>>>>>Begin Spectral Data<<<<<
801.071	28831
801.214	28706
801.356	28535
801.499	28478
801.641	28508
801.783	28314
801.926	28573
802.068	28333
802.211	28371
802.353	28356
802.496	28055
802.638	28177
802.78	28154
802.923	27960
803.065	27941
803.208	27789
803.35	27956
803.492	28192
803.635	28318
803.777	28265
803.919	28379
804.061	28443
804.204	28261
804.346	28188
804.488	28230
804.63	28318
804.773	28299
804.915	28474
805.057	28592
805.199	28280
805.341	28481
805.483	28348
805.626	28417
805.768	28382
805.91	28466
806.052	28500
806.194	28306
806.336	28554
806.478	28550
806.62	28527
806.762	28694
806.904	28881
807.046	29037
807.188	28877
807.33	28877
807.472	28896
807.614	28866
807.756	28873
807.898	28755
808.04	28660
808.182	28847
808.324	28816
808.465	28767
808.607	29052
808.749	29014
808.891	29265
809.033	29337
809.174	29174
809.316	29200
809.458	29174
809.6	29083
809.741	29261
809.883	29231
810.025	29406
810.166	29467
810.308	29455
810.45	29307
810.591	29261
810.733	29296
810.875	29212
811.016	29067
811.158	29086
811.299	29235
811.441	29307
811.582	29486
811.724	29292
811.865	29086
812.007	29113
812.148	29212
812.29	29223
812.431	29398
812.573	29581
812.714	29524
812.855	29824
812.997	29927
813.138	29840
813.279	29859
813.421	29661
813.562	29615
813.703	29638
813.845	29539
813.986	29212
814.127	28961
814.268	28801
814.41	28980
814.551	28786
814.692	29010
814.833	28877
814.974	28839
815.115	28805
815.256	28862
815.397	28839
815.539	28649
815.68	28797
815.821	28653
815.962	28660
816.103	28691
816.244	28702
816.385	28573
816.526	28405
816.666	28432
816.807	28109
816.948	28329
817.089	28238
817.23	28154
817.371	28238
817.512	28101
817.653	28272
817.793	28226
817.934	28223
818.075	28177
818.216	28166
818.356	28048
818.497	28101
818.638	28059
818.778	28055
818.919	27899
819.06	28013
819.2	28067
819.341	28318
819.481	28139
819.622	28451
819.762	28466
819.903	28455
820.043	28329
820.184	28234
820.324	28360
820.465	28401
820.605	28432
820.746	28367
820.886	28143
821.026	28287
821.167	28181
821.307	28352
821.447	28223
821.588	28166
821.728	27949
821.868	27949
822.008	27812
822.149	27781
822.289	27743
822.429	27485
822.569	27363
822.709	27237
822.849	27135
822.99	27116
823.13	27142
823.27	27188
823.41	27062
823.55	27001
823.69	27009
823.83	27039
823.97	27070
824.11	26853
824.25	26743
824.389	26826
824.529	26925
824.669	26891
824.809	26975
824.949	26906
825.089	26963
825.228	26933
825.368	26632
825.508	26667
825.648	26792
825.787	26769
825.927	26758
826.067	26708
826.206	26636
826.346	26823
826.485	26746
826.625	26758
826.765	26830
826.904	26686
827.044	26526
827.183	26511
827.323	26381
827.462	26552
827.601	26461
827.741	26419
827.88	26488
828.02	26476
828.159	26480
828.298	26469
828.437	26583
828.577	26381
828.716	26522
828.855	26408
828.994	26149
829.134	25993
829.273	26168
829.412	26122
829.551	26001
829.69	26161
829.829	26161
829.968	26206
830.107	26180
830.246	26100
830.385	26126
830.524	26088
830.663	25830
830.802	25856
830.941	25788
831.08	25814
831.219	25845
831.357	25841
831.496	26054
831.635	25917
831.774	25738
831.913	25635
832.051	25597
832.19	25624
832.329	25605
832.467	25381
832.606	25339
832.744	25369
832.883	25468
833.022	25403
833.16	25460
833.299	25506
833.437	25392
833.576	25514
833.714	25613
833.852	25506
833.991	25586
834.129	25468
834.267	25548
834.406	25499
834.544	25559
834.682	25396
834.821	25601
834.959	25708
835.097	25441
835.235	25483
835.373	25529
835.511	25419
835.65	25411
835.788	25369
835.926	25247
836.064	25110
836.202	25190
836.34	25422
836.478	25384
836.615	25259
836.753	25358
836.891	25411
837.029	25476
837.167	25293
837.305	25217
837.443	25228
837.58	25137
837.718	25266
837.856	25164
837.993	25168
838.131	25091
838.269	25114
838.406	25053
838.544	24844
838.681	24825
838.819	24749
838.956	24703
839.094	24635
839.231	24608
839.369	24886
839.506	25023
839.643	24901
839.781	24631
839.918	24547
840.055	24582
840.193	24544
840.33	24395
840.467	24574
840.604	24536
840.742	24757
840.879	24346
841.016	24471
841.153	24429
841.29	24646
841.427	24490
841.564	24490
841.701	24502
841.838	24547
841.975	24342
842.112	24224
842.249	24292
842.385	24372
842.522	24471
842.659	24460
842.796	24357
842.933	24205
843.069	24262
843.206	24315
843.343	24300
843.479	24300
843.616	24350
843.752	24076
843.889	24087
844.025	24270
844.162	24121
844.298	24011
844.435	23999
844.571	24117
844.708	24076
844.844	24178
844.98	24163
845.117	24251
845.253	23931
845.389	23866
845.525	23961
845.661	23916
845.798	23695
845.934	23901
846.07	23923
846.206	23889
846.342	23863
846.478	23741
846.614	23642
846.75	23364
846.886	23520
847.022	23676
847.158	23551
847.294	23512
847.429	23577
847.565	23429
847.701	23646
847.837	23341
847.972	23121
848.108	23269
848.244	23193
848.379	23303
848.515	23102
848.65	23006
848.786	23056
848.921	23162
849.057	23166
849.192	23181
849.328	23033
849.463	23029
849.598	23067
849.734	22980
849.869	22908
850.004	23003
850.14	22889
850.275	22873
850.41	22725
850.545	22835
850.68	22896
850.815	22782
850.95	22835
851.085	23094
851.22	22980
851.355	22942
851.49	22984
851.625	22847
851.76	22873
851.895	22782
852.03	22763
852.165	22911
852.299	22721
852.434	22831
852.569	22915
852.703	22843
852.838	22919
852.973	23006
853.107	22957
853.242	22759
853.376	22649
853.511	22592
853.645	22626
853.78	22801
853.914	22675
854.048	22710
854.183	22615
854.317	22782
854.451	22923
854.585	22683
854.72	22615
854.854	22733
854.988	22565
855.122	22679
855.256	22611
855.39	22630
855.524	22805
855.658	22664
855.792	22683
855.926	22679
856.06	22721
856.194	22725
856.327	22588
856.461	22542
856.595	22645
856.729	22736
856.862	22653
856.996	22809
857.13	22656
857.263	22744
857.397	22816
857.53	22641
857.664	22641
857.797	22854
857.931	22733
858.064	22672
858.197	22850
858.331	22763
858.464	22668
858.597	22535
858.731	22672
858.864	22691
858.997	22569
859.13	22592
859.263	22725
859.396	22778
859.529	22694
859.662	22717
859.795	22512
859.928	22626
860.061	22847
860.194	22885
860.327	22771
860.46	22771
860.592	22660
860.725	22786
860.858	22889
860.99	22653
861.123	22675
861.256	22603
861.388	22573
861.521	23258
861.653	22542
861.786	22474
861.918	22451
862.05	22622
862.183	22615
862.315	22538
862.447	22523
862.58	22569
862.712	22481
862.844	22314
862.976	22405
863.108	22447
863.24	22721
863.372	22310
863.504	22478
863.636	22386
863.768	22341
863.9	22443
864.032	22253
864.164	22398
864.296	22459
864.428	22459
864.559	22409
864.691	22516
864.823	22382
864.954	22421
865.086	22276
865.217	22382
865.349	22299
865.48	22341
865.612	22200
865.743	22390
865.875	22158
866.006	22322
866.137	22234
866.269	22337
866.4	22291
866.531	22295
866.662	22112
866.793	22181
866.924	22143
867.055	22204
867.186	22086
867.317	22143
867.448	21979
867.579	22101
867.71	21994
867.841	22086
867.972	22147
868.103	22196
868.233	22120
868.364	22177
868.495	22318
868.625	22333
868.756	22615
868.886	22276
869.017	22405
869.147	22508
869.278	22535
869.408	22398
869.539	22550
869.669	22474
869.799	22474
869.929	22546
870.06	22557
870.19	22968
870.32	22698
870.45	22736
870.58	22744
870.71	22995
870.84	22919
870.97	22717
871.1	22854
871.23	22965
871.36	23056
871.489	22866
871.619	23048
871.749	23090
871.879	23109
872.008	23147
872.138	22923
872.267	23018
872.397	22877
872.526	22801
872.656	22889
872.785	22976
872.915	22991
873.044	23216
873.173	23147
873.303	23010
873.432	23105
873.561	23109
873.69	23151
873.819	22984
873.948	23132
874.077	23044
874.206	22976
874.335	23029
874.464	23178
874.593	23368
874.722	23212
874.851	23223
874.979	23261
875.108	23277
875.237	23151
875.365	23162
875.494	23307
875.623	23227
875.751	23193
875.88	23299
876.008	23345
876.136	23440
876.265	23668
876.393	23714
876.521	23714
876.65	23699
876.778	23570
876.906	23604
877.034	23570
877.162	23539
877.29	23547
877.418	23604
877.546	23596
877.674	23547
877.802	23589
877.93	23627
878.058	23551
878.185	23478
878.313	23497
878.441	23547
878.568	23406
878.696	23630
878.824	23630
878.951	23676
879.079	23771
879.206	23836
879.333	23775
879.461	23642
879.588	23703
879.715	23665
879.842	23912
879.97	23798
880.097	23410
880.224	23387
880.351	23436
880.478	23524
880.605	23459
880.732	23311
880.859	23699
880.986	23417
881.112	23505
881.239	23292
881.366	23235
881.493	23033
881.619	22999
881.746	22995
881.872	22957
881.999	22968
882.125	22873
882.252	23056
882.378	22900
882.505	23003
882.631	22759
882.757	22645
882.883	22900
883.01	22736
883.136	22611
883.262	22402
883.388	22500
883.514	22554
883.64	22725
883.766	22599
883.892	22360
884.018	22440
884.143	22622
884.269	22710
884.395	22261
884.52	22238
884.646	22268
884.772	22284
884.897	22093
885.023	22284
885.148	22382
885.274	22497
885.399	22421
885.524	22261
885.65	22306
885.775	22246
885.9	22124
886.025	22295
886.15	22329
886.275	22272
886.4	22135
886.525	22204
886.65	22188
886.775	22230
886.9	22280
887.025	22390
887.149	22150
887.274	22124
887.399	22021
887.523	22013
887.648	21899
887.773	21895
887.897	22124
888.021	22040
888.146	21873
888.27	22048
888.395	22112
888.519	22154
888.643	22109
888.767	22135
888.891	21899
889.015	21648
889.139	21907
889.263	21774
889.387	21854
889.511	22006
889.635	21975
889.759	21808
889.883	21816
890.006	21835
890.13	21819
890.254	21751
890.377	21709
890.501	21568
890.624	21553
890.748	21618
890.871	21439
890.995	21351
891.118	21302
891.241	21416
891.364	21439
891.488	21416
891.611	21332
891.734	21397
891.857	21367
891.98	21332
892.103	21336
892.226	21450
892.349	21351
892.471	21112
892.594	21268
892.717	21382
892.839	21218
892.962	21180
893.085	21355
893.207	21218
893.33	21142
893.452	21192
893.575	21317
893.697	21272
893.819	21473
893.941	21507
894.064	21367
894.186	21142
894.308	21085
894.43	21435
894.552	21355
894.674	21298
894.796	21184
894.918	21218
895.04	21203
895.161	21359
895.283	21252
895.405	21203
895.526	21230
895.648	21199
895.769	21203
895.891	21256
896.012	21252
896.134	21310
896.255	21264
896.376	21165
896.498	21154
896.619	21195
896.74	21218
896.861	21237
896.982	21557
897.103	21675
897.224	21526
897.345	21405
897.466	21279
897.587	21447
897.708	21580
897.828	21538
897.949	21275
898.07	21283
898.19	21260
898.311	21450
898.431	21466
898.552	21500
898.672	21329
898.792	21595
898.913	21294
899.033	21310
899.153	21176
899.273	21180
899.393	21203
899.513	21093
899.633	21207
899.753	21112
899.873	21093
899.993	21165
900.113	21024
900.232	21161
900.352	21009
900.472	20921
900.591	20952
900.711	20880
900.83	20967
900.95	21032
901.069	20982
901.189	20765
901.308	20609
901.427	20533
901.546	20507
901.665	20549
901.784	20514
901.904	20305
902.023	20221
902.141	19989
902.26	19944
902.379	19982
902.498	19997
902.617	19936
902.735	20020
902.854	19845
902.973	19826
903.091	19670
903.21	19685
903.328	19700
903.446	19506
903.565	19445
903.683	19426
903.801	19403
903.919	19373
904.038	19369
904.156	19152
904.274	19293
904.392	19114
904.51	19080
904.627	19129
904.745	19228
904.863	19285
904.981	19023
905.098	18894
905.216	18833
905.334	18833
905.451	18856
905.569	18878
905.686	18840
905.803	18806
905.921	18700
906.038	18795
906.155	18639
906.272	18490
906.389	18536
906.506	18346
906.623	18498
906.74	18441
906.857	18247
906.974	18361
907.091	18582
907.208	18475
907.324	18422
907.441	18388
907.557	18182
907.674	18079
907.79	18117
907.907	18079
908.023	18068
908.139	18114
908.256	18076
908.372	17961
908.488	17904
908.604	17794
908.72	17745
908.836	17786
908.952	17809
909.068	17828
909.184	17851
909.3	17813
909.415	17703
909.531	17752
909.647	17551
909.762	17512
909.878	17490
909.993	17585
910.108	17535
910.224	17436
910.339	17448
910.454	17509
910.57	17296
910.685	17231
910.8	17592
910.915	17520
911.03	17277
911.145	17109
911.259	17048
911.374	17060
911.489	17014
911.604	16900
911.718	16847
911.833	16805
911.947	16752
912.062	16599
912.176	16869
912.291	16710
912.405	16774
912.519	16927
912.633	17006
912.748	16915
912.862	16801
912.976	16683
913.09	16615
913.204	16561
913.318	16577
913.431	16782
913.545	16733
913.659	16649
913.772	16596
913.886	16497
914	16333
914.113	16535
914.226	16580
914.34	16447
914.453	16314
914.566	16440
914.68	16306
914.793	16325
914.906	16071
915.019	16040
915.132	15869
915.245	15903
915.358	16086
915.47	15888
915.583	16017
915.696	15987
915.809	16025
915.921	16131
916.034	15972
916.146	15846
916.259	15865
916.371	15953
916.483	15937
916.595	15747
916.708	15778
916.82	15831
916.932	15861
917.044	15747
917.156	15770
917.268	15542
917.38	15686
917.491	15610
917.603	15595
917.715	15648
917.826	15633
917.938	15485
918.049	15458
918.161	15545
918.272	15637
918.384	15580
918.495	15545
918.606	15378
918.717	15287
918.828	15348
918.939	15386
919.05	15226
919.161	15291
919.272	15123
919.383	15188
919.494	15355
919.604	15500
919.715	15321
919.826	15294
919.936	15291
920.047	15363
920.157	15344
920.267	15477
920.378	15321
920.488	15249
920.598	15473
920.708	15572
920.818	15382
920.928	15454
921.038	15526
921.148	15534
921.258	15275
921.368	15188
921.477	15070
921.587	14956
921.697	14849
921.806	15089
921.916	14914
922.025	14670
922.134	14727
922.244	14568
922.353	14746
922.462	14594
922.571	14343
922.68	14366
922.789	14199
922.898	14282
923.007	14229
923.116	14332
923.224	14286
923.333	14199
923.442	14126
923.55	14043
923.659	14092
923.767	14195
923.876	14073
923.984	14100
924.092	13974
924.201	14069
924.309	13986
924.417	14016
924.525	13906
924.633	13875
924.741	14895
924.849	13647
924.956	13818
925.064	13750
925.172	13620
925.279	13601
925.387	13662
925.494	13578
925.602	13761
925.709	13677
925.816	13518
925.924	13605
926.031	13677
926.138	13662
926.245	13613
926.352	13468
926.459	13601
926.566	13624
926.673	13540
926.779	13453
926.886	13415
926.993	13171
927.099	13282
927.206	13251
927.312	13145
927.419	13244
927.525	13175
927.631	13228
927.737	13046
927.843	12989
927.95	12905
928.056	13061
928.162	12973
928.267	12989
928.373	13662
928.479	13080
928.585	12859
928.69	12943
928.796	12920
928.901	12760
929.007	12734
929.112	12783
929.218	12764
929.323	12760
929.428	12779
929.533	12848
929.638	12760
929.743	12608
929.848	12760
929.953	12684
930.058	12517
930.163	12323
930.267	12486
930.372	12494
930.477	12330
930.581	12521
930.685	12422
930.79	12277
930.894	12285
930.998	12235
931.103	12308
931.207	11988
931.311	11942
931.415	11828
931.519	11604
931.623	11581
