Data from test_V78500241_1304.txt Node
Date: Fri Mar 25 15:50:50 CST 2022
User: usil
Spectrometer: V785-0024
Trigger mode: 0
Integration Time (sec): 4.000000E-1
Scans to average: 1
Nonlinearity correction enabled: false
Boxcar width: 0
Storing dark spectrum: false
XAxis mode: Wavelengths
Number of Pixels in Spectrum: 1024
>>>>>Begin Spectral Data<<<<<
801.071	28637
801.214	28493
801.356	28344
801.499	28265
801.641	28177
801.783	27998
801.926	28124
802.068	28048
802.211	28150
802.353	27892
802.496	27793
802.638	27842
802.78	27743
802.923	27743
803.065	27808
803.208	27603
803.35	27747
803.492	27835
803.635	27926
803.777	27873
803.919	28177
804.061	28318
804.204	28063
804.346	27998
804.488	28147
804.63	28044
804.773	27892
804.915	28070
805.057	28063
805.199	28112
805.341	28074
805.483	28078
805.626	28112
805.768	28105
805.91	28105
806.052	28207
806.194	28116
806.336	28394
806.478	28257
806.62	28177
806.762	28128
806.904	28531
807.046	28664
807.188	28569
807.33	28557
807.472	28664
807.614	28504
807.756	28611
807.898	28440
808.04	28500
808.182	28523
808.324	28493
808.465	28538
808.607	28694
808.749	28793
808.891	29003
809.033	29102
809.174	28934
809.316	28797
809.458	28733
809.6	28786
809.741	29033
809.883	28888
810.025	29083
810.166	29121
810.308	29109
810.45	29044
810.591	29075
810.733	28869
810.875	28877
811.016	28786
811.158	28706
811.299	28961
811.441	28927
811.582	29018
811.724	28953
811.865	28752
812.007	28778
812.148	28862
812.29	28854
812.431	28968
812.573	29181
812.714	29307
812.855	29429
812.997	29459
813.138	29600
813.279	29516
813.421	29410
813.562	29402
813.703	29303
813.845	29250
813.986	28904
814.127	28561
814.268	28615
814.41	28512
814.551	28675
814.692	28675
814.833	28596
814.974	28523
815.115	28573
815.256	28462
815.397	28459
815.539	28512
815.68	28223
815.821	28257
815.962	28474
816.103	28371
816.244	28219
816.385	28185
816.526	28211
816.666	27907
816.807	27850
816.948	27876
817.089	27880
817.23	27857
817.371	27960
817.512	27949
817.653	27922
817.793	27873
817.934	27895
818.075	27739
818.216	27869
818.356	27804
818.497	27720
818.638	27622
818.778	27652
818.919	27724
819.06	27663
819.2	27755
819.341	27831
819.481	27953
819.622	28055
819.762	28337
819.903	28325
820.043	28082
820.184	28017
820.324	27975
820.465	27956
820.605	28013
820.746	27816
820.886	27960
821.026	27911
821.167	27926
821.307	28025
821.447	27842
821.588	27759
821.728	27743
821.868	27523
822.008	27408
822.149	27473
822.289	27416
822.429	27077
822.569	27028
822.709	26986
822.849	26880
822.99	26762
823.13	26727
823.27	26887
823.41	26678
823.55	26754
823.69	26727
823.83	26845
823.97	26571
824.11	26511
824.25	26518
824.389	26507
824.529	26632
824.669	26507
824.809	26579
824.949	26602
825.089	26484
825.228	26537
825.368	26385
825.508	26248
825.648	26389
825.787	26457
825.927	26400
826.067	26434
826.206	26294
826.346	26511
826.485	26518
826.625	26290
826.765	26575
826.904	26465
827.044	26237
827.183	26134
827.323	26043
827.462	26142
827.601	26092
827.741	26183
827.88	25959
828.02	26103
828.159	26153
828.298	26119
828.437	26088
828.577	25974
828.716	26134
828.855	26065
828.994	25894
829.134	25807
829.273	25807
829.412	25807
829.551	25746
829.69	25750
829.829	25837
829.968	25757
830.107	25875
830.246	25772
830.385	25738
830.524	25719
830.663	25643
830.802	25502
830.941	25403
831.08	25434
831.219	25548
831.357	25616
831.496	25662
831.635	25369
831.774	25426
831.913	25289
832.051	25308
832.19	25126
832.329	25126
832.467	25187
832.606	25118
832.744	25038
832.883	25038
833.022	24981
833.16	25038
833.299	25072
833.437	25061
833.576	25091
833.714	25099
833.852	25217
833.991	25168
834.129	25114
834.267	25133
834.406	25031
834.544	25209
834.682	25259
834.821	25175
834.959	25270
835.097	24989
835.235	25145
835.373	25031
835.511	25118
835.65	25050
835.788	24882
835.926	24791
836.064	24749
836.202	24859
836.34	24852
836.478	24977
836.615	24897
836.753	24932
836.891	25038
837.029	24992
837.167	24951
837.305	24734
837.443	24863
837.58	24837
837.718	24810
837.856	24798
837.993	24669
838.131	24719
838.269	24620
838.406	24795
838.544	24483
838.681	24441
838.819	24342
838.956	24281
839.094	24262
839.231	24330
839.369	24471
839.506	24612
839.643	24369
839.781	24323
839.918	24186
840.055	24243
840.193	24239
840.33	24125
840.467	24266
840.604	24327
840.742	24509
840.879	23958
841.016	24129
841.153	24083
841.29	24258
841.427	24053
841.564	24136
841.701	24057
841.838	24114
841.975	24076
842.112	24068
842.249	23958
842.385	23878
842.522	24155
842.659	24117
842.796	23859
842.933	23927
843.069	23836
843.206	23699
843.343	23923
843.479	23958
843.616	24030
843.752	23737
843.889	23737
844.025	23752
844.162	23516
844.298	23729
844.435	23581
844.571	23718
844.708	23726
844.844	23817
844.98	23809
845.117	23783
845.253	23695
845.389	23471
845.525	23570
845.661	23547
845.798	23315
845.934	23459
846.07	23235
846.206	23421
846.342	23505
846.478	23368
846.614	23181
846.75	23033
846.886	23189
847.022	23261
847.158	23178
847.294	23235
847.429	23136
847.565	23117
847.701	23379
847.837	22801
847.972	22850
848.108	22896
848.244	22896
848.379	22790
848.515	22744
848.65	22603
848.786	22740
848.921	22736
849.057	22877
849.192	22904
849.328	22763
849.463	22801
849.598	22687
849.734	22744
849.869	22459
850.004	22538
850.14	22580
850.275	22367
850.41	22295
850.545	22394
850.68	22470
850.815	22565
850.95	22489
851.085	22615
851.22	22702
851.355	22550
851.49	22493
851.625	22561
851.76	22474
851.895	22398
852.03	22371
852.165	22645
852.299	22508
852.434	22607
852.569	22531
852.703	22405
852.838	22569
852.973	22615
853.107	22584
853.242	22440
853.376	22261
853.511	22207
853.645	22265
853.78	22261
853.914	22268
854.048	22185
854.183	22226
854.317	22405
854.451	22493
854.585	22371
854.72	22303
854.854	22455
854.988	22223
855.122	22352
855.256	22219
855.39	22253
855.524	22341
855.658	22405
855.792	22295
855.926	22215
856.06	22291
856.194	22291
856.327	22257
856.461	22272
856.595	22139
856.729	22261
856.862	22443
856.996	22344
857.13	22310
857.263	22470
857.397	22348
857.53	22363
857.664	22379
857.797	22344
857.931	22379
858.064	22314
858.197	22398
858.331	22306
858.464	22219
858.597	22173
858.731	22276
858.864	22249
858.997	22272
859.13	22272
859.263	22268
859.396	22352
859.529	22287
859.662	22188
859.795	22261
859.928	22299
860.061	22390
860.194	22580
860.327	22329
860.46	22246
860.592	22379
860.725	22459
860.858	22451
860.99	22371
861.123	22284
861.256	22215
861.388	22371
861.521	22858
861.653	22234
861.786	22025
861.918	22116
862.05	22226
862.183	22242
862.315	22082
862.447	22257
862.58	22284
862.712	22021
862.844	22029
862.976	22166
863.108	22055
863.24	22363
863.372	22002
863.504	22036
863.636	21956
863.768	22055
863.9	21998
864.032	21956
864.164	21937
864.296	22078
864.428	22059
864.559	22131
864.691	21991
864.823	21880
864.954	22055
865.086	21804
865.217	21895
865.349	21755
865.48	21835
865.612	21854
865.743	22002
865.875	21873
866.006	21922
866.137	21968
866.269	21876
866.4	21819
866.531	21857
866.662	21857
866.793	21762
866.924	21778
867.055	21759
867.186	21861
867.317	21671
867.448	21667
867.579	21739
867.71	21717
867.841	21743
867.972	21827
868.103	21797
868.233	21808
868.364	21690
868.495	21907
868.625	22078
868.756	22131
868.886	21899
869.017	22086
869.147	22166
869.278	22150
869.408	22044
869.539	22002
869.669	22055
869.799	22032
869.929	22154
870.06	22116
870.19	22390
870.32	22306
870.45	22394
870.58	22474
870.71	22554
870.84	22599
870.97	22455
871.1	22432
871.23	22660
871.36	22622
871.489	22607
871.619	22596
871.749	22740
871.879	22713
872.008	22786
872.138	22793
872.267	22653
872.397	22504
872.526	22440
872.656	22577
872.785	22382
872.915	22683
873.044	22717
873.173	22672
873.303	22733
873.432	22812
873.561	22858
873.69	22615
873.819	22577
873.948	22797
874.077	22736
874.206	22531
874.335	22569
874.464	22672
874.593	23113
874.722	22915
874.851	22889
874.979	22927
875.108	22877
875.237	22809
875.365	22847
875.494	22900
875.623	22889
875.751	22995
875.88	23048
876.008	22976
876.136	23140
876.265	23246
876.393	23471
876.521	23315
876.65	23402
876.778	23204
876.906	23155
877.034	23143
877.162	23212
877.29	23140
877.418	23299
877.546	23113
877.674	23280
877.802	23318
877.93	23239
878.058	23193
878.185	23113
878.313	23258
878.441	23204
878.568	23060
878.696	23189
878.824	23193
878.951	23334
879.079	23478
879.206	23528
879.333	23452
879.461	23208
879.588	23303
879.715	23303
879.842	23383
879.97	23235
880.097	23052
880.224	23037
880.351	23151
880.478	22965
880.605	23105
880.732	23193
880.859	23136
880.986	23048
881.112	23067
881.239	22885
881.366	22767
881.493	22717
881.619	22656
881.746	22793
881.872	22634
881.999	22557
882.125	22440
882.252	22683
882.378	22527
882.505	22634
882.631	22489
882.757	22352
882.883	22398
883.01	22253
883.136	22188
883.262	22223
883.388	22215
883.514	22394
883.64	22249
883.766	22166
883.892	22051
884.018	22010
884.143	22112
884.269	22325
884.395	22006
884.52	21861
884.646	21930
884.772	21895
884.897	21827
885.023	21930
885.148	21975
885.274	22002
885.399	21975
885.524	21865
885.65	21937
885.775	22021
885.9	21816
886.025	22044
886.15	22055
886.275	21857
886.4	21781
886.525	21755
886.65	21895
886.775	21835
886.9	22055
887.025	22188
887.149	21823
887.274	21770
887.399	21660
887.523	21633
887.648	21583
887.773	21549
887.897	21781
888.021	21762
888.146	21648
888.27	21755
888.395	21736
888.519	21648
888.643	21583
888.767	21720
888.891	21622
889.015	21614
889.139	21595
889.263	21393
889.387	21561
889.511	21713
889.635	21549
889.759	21416
889.883	21370
890.006	21492
890.13	21629
890.254	21515
890.377	21412
890.501	21283
890.624	21226
890.748	21218
890.871	21138
890.995	20941
891.118	20990
891.241	21039
891.364	21024
891.488	21081
891.611	20975
891.734	20994
891.857	21058
891.98	21024
892.103	21028
892.226	21081
892.349	20906
892.471	20724
892.594	20914
892.717	20921
892.839	20864
892.962	20880
893.085	20899
893.207	20868
893.33	20659
893.452	20800
893.575	21051
893.697	20929
893.819	21024
893.941	21096
894.064	21047
894.186	20899
894.308	20769
894.43	20921
894.552	21032
894.674	20918
894.796	20861
894.918	20845
895.04	20876
895.161	20979
895.283	21066
895.405	20872
895.526	20918
895.648	20781
895.769	20872
895.891	20872
896.012	21009
896.134	20876
896.255	20933
896.376	20925
896.498	20887
896.619	20967
896.74	20929
896.861	20899
896.982	21211
897.103	21378
897.224	21169
897.345	21085
897.466	21036
897.587	21039
897.708	21203
897.828	21017
897.949	21047
898.07	20979
898.19	20967
898.311	21260
898.431	21096
898.552	20998
898.672	21112
898.792	21142
898.913	21043
899.033	21032
899.153	21009
899.273	20758
899.393	20872
899.513	20921
899.633	20910
899.753	20899
899.873	20811
899.993	20853
900.113	20819
900.232	20769
900.352	20708
900.472	20644
900.591	20571
900.711	20621
900.83	20571
900.95	20682
901.069	20701
901.189	20473
901.308	20286
901.427	20122
901.546	20180
901.665	20218
901.784	20180
901.904	19970
902.023	19982
902.141	19734
902.26	19803
902.379	19651
902.498	19616
902.617	19586
902.735	19811
902.854	19635
902.973	19556
903.091	19369
903.21	19343
903.328	19183
903.446	19331
903.565	19107
903.683	19209
903.801	19038
903.919	19076
904.038	19148
904.156	18871
904.274	18935
904.392	18993
904.51	18958
904.627	18722
904.745	18981
904.863	18859
904.981	18810
905.098	18506
905.216	18601
905.334	18582
905.451	18498
905.569	18604
905.686	18631
905.803	18597
905.921	18376
906.038	18441
906.155	18350
906.272	18247
906.389	18330
906.506	18152
906.623	18133
906.74	18167
906.857	17927
906.974	17939
907.091	18190
907.208	18167
907.324	18038
907.441	18091
907.557	17870
907.674	17874
907.79	17756
907.907	17691
908.023	17802
908.139	17821
908.256	17665
908.372	17577
908.488	17642
908.604	17528
908.72	17474
908.836	17589
908.952	17467
909.068	17558
909.184	17577
909.3	17497
909.415	17528
909.531	17493
909.647	17220
909.762	17265
909.878	17220
909.993	17227
910.108	17105
910.224	17261
910.339	17292
910.454	17003
910.57	17052
910.685	17052
910.8	17227
910.915	17246
911.03	17143
911.145	16934
911.259	16816
911.374	16797
911.489	16596
911.604	16664
911.718	16497
911.833	16573
911.947	16413
912.062	16421
912.176	16527
912.291	16546
912.405	16519
912.519	16850
912.633	16771
912.748	16660
912.862	16508
912.976	16474
913.09	16188
913.204	16268
913.318	16249
913.431	16440
913.545	16481
913.659	16489
913.772	16291
913.886	16090
914	16124
914.113	16246
914.226	16154
914.34	16204
914.453	15956
914.566	16234
914.68	15979
914.793	15968
914.906	15854
915.019	15637
915.132	15698
915.245	15694
915.358	15686
915.47	15652
915.583	15789
915.696	15739
915.809	15880
915.921	15873
916.034	15679
916.146	15652
916.259	15675
916.371	15690
916.483	15713
916.595	15595
916.708	15625
916.82	15625
916.932	15424
917.044	15439
917.156	15523
917.268	15298
917.38	15310
917.491	15340
917.603	15332
917.715	15374
917.826	15519
917.938	15249
918.049	15203
918.161	15336
918.272	15389
918.384	15367
918.495	15310
918.606	15192
918.717	15066
918.828	15154
918.939	15180
919.05	15039
919.161	15020
919.272	14960
919.383	14967
919.494	15142
919.604	15310
919.715	15157
919.826	15020
919.936	15013
920.047	15184
920.157	15039
920.267	15245
920.378	15005
920.488	15058
920.598	15157
920.708	15355
920.818	15279
920.928	15188
921.038	15291
921.148	15405
921.258	15039
921.368	14804
921.477	14830
921.587	14834
921.697	14667
921.806	14826
921.916	14663
922.025	14545
922.134	14377
922.244	14339
922.353	14507
922.462	14221
922.571	14294
922.68	14046
922.789	14077
922.898	14081
923.007	13906
923.116	14084
923.224	14084
923.333	13978
923.442	13860
923.55	13902
923.659	13814
923.767	13932
923.876	13814
923.984	13982
924.092	13830
924.201	13811
924.309	13784
924.417	13742
924.525	13727
924.633	13696
924.741	14644
924.849	13571
924.956	13647
925.064	13487
925.172	13381
925.279	13434
925.387	13559
925.494	13445
925.602	13540
925.709	13441
925.816	13377
925.924	13339
926.031	13392
926.138	13308
926.245	13407
926.352	13285
926.459	13384
926.566	13346
926.673	13282
926.779	13171
926.886	13126
926.993	12977
927.099	13034
927.206	12958
927.312	12875
927.419	12993
927.525	12985
927.631	13065
927.737	12901
927.843	12871
927.95	12745
928.056	12844
928.162	12802
928.267	12863
928.373	13331
928.479	12897
928.585	12582
928.69	12692
928.796	12707
928.901	12604
929.007	12532
929.112	12673
929.218	12692
929.323	12506
929.428	12521
929.533	12658
929.638	12369
929.743	12456
929.848	12536
929.953	12585
930.058	12422
930.163	12281
930.267	12213
930.372	12346
930.477	12155
930.581	12403
930.685	12239
930.79	12152
930.894	12102
930.998	12003
931.103	12171
931.207	11851
931.311	11684
931.415	11634
931.519	11414
931.623	11421
