Data from test_V78500241_1092.txt Node
Date: Fri Mar 25 15:49:21 CST 2022
User: usil
Spectrometer: V785-0024
Trigger mode: 0
Integration Time (sec): 4.000000E-1
Scans to average: 1
Nonlinearity correction enabled: false
Boxcar width: 0
Storing dark spectrum: false
XAxis mode: Wavelengths
Number of Pixels in Spectrum: 1024
>>>>>Begin Spectral Data<<<<<
801.071	28557
801.214	28428
801.356	28173
801.499	28158
801.641	28025
801.783	27987
801.926	28139
802.068	28116
802.211	27953
802.353	27895
802.496	27823
802.638	27724
802.78	27629
802.923	27709
803.065	27458
803.208	27694
803.35	27755
803.492	27800
803.635	27922
803.777	27854
803.919	27930
804.061	28181
804.204	27983
804.346	27918
804.488	27793
804.63	27781
804.773	27888
804.915	27930
805.057	28112
805.199	27861
805.341	28063
805.483	28044
805.626	28051
805.768	27991
805.91	28074
806.052	28055
806.194	28105
806.336	28409
806.478	28116
806.62	28139
806.762	28188
806.904	28409
807.046	28717
807.188	28645
807.33	28653
807.472	28527
807.614	28607
807.756	28470
807.898	28421
808.04	28371
808.182	28318
808.324	28382
808.465	28478
808.607	28653
808.749	28759
808.891	28915
809.033	28881
809.174	28786
809.316	28801
809.458	28805
809.6	28759
809.741	28908
809.883	29071
810.025	29136
810.166	29010
810.308	29258
810.45	29098
810.591	29018
810.733	28888
810.875	28854
811.016	28771
811.158	28630
811.299	28946
811.441	28911
811.582	28980
811.724	28831
811.865	28835
812.007	28748
812.148	28820
812.29	28892
812.431	29006
812.573	29216
812.714	29235
812.855	29459
812.997	29539
813.138	29554
813.279	29547
813.421	29356
813.562	29307
813.703	29143
813.845	29014
813.986	28771
814.127	28637
814.268	28546
814.41	28550
814.551	28618
814.692	28577
814.833	28424
814.974	28421
815.115	28531
815.256	28344
815.397	28375
815.539	28413
815.68	28413
815.821	28246
815.962	28280
816.103	28329
816.244	28078
816.385	28093
816.526	28078
816.666	28131
816.807	27732
816.948	27876
817.089	28059
817.23	27937
817.371	27804
817.512	27854
817.653	27762
817.793	27793
817.934	27739
818.075	27720
818.216	27728
818.356	27694
818.497	27793
818.638	27580
818.778	27641
818.919	27481
819.06	27713
819.2	27713
819.341	27895
819.481	27846
819.622	27968
819.762	28257
819.903	28112
820.043	27994
820.184	27914
820.324	28021
820.465	27991
820.605	28044
820.746	27945
820.886	27762
821.026	27930
821.167	27812
821.307	28029
821.447	27930
821.588	27785
821.728	27675
821.868	27412
822.008	27405
822.149	27302
822.289	27367
822.429	27119
822.569	26994
822.709	26918
822.849	26826
822.99	26792
823.13	26883
823.27	26815
823.41	26537
823.55	26476
823.69	26682
823.83	26663
823.97	26560
824.11	26476
824.25	26537
824.389	26434
824.529	26602
824.669	26560
824.809	26651
824.949	26518
825.089	26602
825.228	26450
825.368	26320
825.508	26381
825.648	26404
825.787	26309
825.927	26495
826.067	26393
826.206	26370
826.346	26298
826.485	26473
826.625	26225
826.765	26408
826.904	26446
827.044	26191
827.183	26180
827.323	26054
827.462	26100
827.601	26187
827.741	26050
827.88	26103
828.02	25963
828.159	25966
828.298	26001
828.437	26164
828.577	26012
828.716	26081
828.855	25909
828.994	25791
829.134	25822
829.273	25753
829.412	25719
829.551	25685
829.69	25681
829.829	25811
829.968	25887
830.107	25822
830.246	25715
830.385	25734
830.524	25525
830.663	25571
830.802	25460
830.941	25331
831.08	25362
831.219	25274
831.357	25514
831.496	25571
831.635	25369
831.774	25392
831.913	25160
832.051	25236
832.19	25228
832.329	25297
832.467	25004
832.606	24962
832.744	25095
832.883	25107
833.022	25145
833.16	25065
833.299	25133
833.437	25012
833.576	25160
833.714	25031
833.852	25110
833.991	25023
834.129	25217
834.267	25095
834.406	25129
834.544	25206
834.682	25145
834.821	25152
834.959	25251
835.097	25034
835.235	25118
835.373	25069
835.511	25031
835.65	24757
835.788	24909
835.926	24852
836.064	24776
836.202	24650
836.34	24894
836.478	24977
836.615	24863
836.753	24894
836.891	25042
837.029	24951
837.167	24913
837.305	24757
837.443	24779
837.58	24840
837.718	24814
837.856	24814
837.993	24661
838.131	24722
838.269	24677
838.406	24604
838.544	24525
838.681	24414
838.819	24350
838.956	24262
839.094	24239
839.231	24285
839.369	24422
839.506	24563
839.643	24498
839.781	24266
839.918	24273
840.055	24060
840.193	24258
840.33	24140
840.467	24171
840.604	24194
840.742	24399
840.879	24121
841.016	24190
841.153	24213
841.29	24232
841.427	24079
841.564	24110
841.701	24125
841.838	24079
841.975	23935
842.112	24041
842.249	23954
842.385	23950
842.522	24140
842.659	23901
842.796	23882
842.933	23893
843.069	23965
843.206	23771
843.343	23923
843.479	23859
843.616	23863
843.752	23646
843.889	23695
844.025	23779
844.162	23798
844.298	23824
844.435	23608
844.571	23539
844.708	23805
844.844	23813
844.98	23885
845.117	23843
845.253	23760
845.389	23577
845.525	23596
845.661	23562
845.798	23455
845.934	23558
846.07	23334
846.206	23581
846.342	23592
846.478	23334
846.614	23277
846.75	23121
846.886	23162
847.022	23220
847.158	23360
847.294	23159
847.429	23143
847.565	23048
847.701	23315
847.837	22965
847.972	22778
848.108	23075
848.244	22919
848.379	22733
848.515	22774
848.65	22778
848.786	22755
848.921	22702
849.057	22862
849.192	22843
849.328	22733
849.463	22862
849.598	22691
849.734	22653
849.869	22577
850.004	22394
850.14	22497
850.275	22462
850.41	22295
850.545	22634
850.68	22519
850.815	22535
850.95	22443
851.085	22622
851.22	22569
851.355	22443
851.49	22531
851.625	22443
851.76	22538
851.895	22466
852.03	22405
852.165	22333
852.299	22466
852.434	22561
852.569	22516
852.703	22504
852.838	22459
852.973	22580
853.107	22580
853.242	22390
853.376	22261
853.511	22322
853.645	22303
853.78	22409
853.914	22371
854.048	22284
854.183	22249
854.317	22325
854.451	22443
854.585	22356
854.72	22291
854.854	22226
854.988	22390
855.122	22242
855.256	22181
855.39	22219
855.524	22402
855.658	22215
855.792	22261
855.926	22291
856.06	22325
856.194	22428
856.327	22234
856.461	22310
856.595	22128
856.729	22398
856.862	22421
856.996	22280
857.13	22481
857.263	22432
857.397	22428
857.53	22196
857.664	22287
857.797	22493
857.931	22291
858.064	22428
858.197	22489
858.331	22337
858.464	22303
858.597	22204
858.731	22291
858.864	22242
858.997	22128
859.13	22261
859.263	22375
859.396	22443
859.529	22322
859.662	22166
859.795	22242
859.928	22242
860.061	22360
860.194	22421
860.327	22356
860.46	22325
860.592	22440
860.725	22382
860.858	22481
860.99	22238
861.123	22192
861.256	22226
861.388	22276
861.521	23071
861.653	22109
861.786	22158
861.918	22238
862.05	22154
862.183	22268
862.315	22093
862.447	22196
862.58	22226
862.712	21979
862.844	22067
862.976	22169
863.108	22169
863.24	22603
863.372	21876
863.504	22010
863.636	22150
863.768	22013
863.9	21964
864.032	21903
864.164	21918
864.296	22029
864.428	22139
864.559	22078
864.691	22128
864.823	22036
864.954	21899
865.086	21934
865.217	21850
865.349	21686
865.48	21903
865.612	21937
865.743	22059
865.875	21865
866.006	21873
866.137	21812
866.269	21979
866.4	21835
866.531	21876
866.662	21865
866.793	21823
866.924	21819
867.055	21797
867.186	21861
867.317	21816
867.448	21804
867.579	21797
867.71	21656
867.841	21724
867.972	21724
868.103	21747
868.233	21873
868.364	21876
868.495	21857
868.625	22048
868.756	22135
868.886	21960
869.017	22090
869.147	22173
869.278	22147
869.408	22002
869.539	22082
869.669	22116
869.799	22154
869.929	22139
870.06	22188
870.19	22474
870.32	22344
870.45	22489
870.58	22375
870.71	22630
870.84	22565
870.97	22478
871.1	22333
871.23	22641
871.36	22630
871.489	22535
871.619	22645
871.749	22679
871.879	22729
872.008	22706
872.138	22656
872.267	22481
872.397	22470
872.526	22569
872.656	22481
872.785	22531
872.915	22733
873.044	22713
873.173	22759
873.303	22618
873.432	22755
873.561	22763
873.69	22801
873.819	22698
873.948	22713
874.077	22683
874.206	22603
874.335	22774
874.464	22812
874.593	22820
874.722	22896
874.851	22930
874.979	22885
875.108	22946
875.237	22759
875.365	22637
875.494	22858
875.623	22953
875.751	22790
875.88	22946
876.008	23018
876.136	23086
876.265	23303
876.393	23398
876.521	23406
876.65	23440
876.778	23200
876.906	23105
877.034	23128
877.162	23216
877.29	23136
877.418	23269
877.546	23273
877.674	23170
877.802	23193
877.93	23292
878.058	23132
878.185	23044
878.313	23178
878.441	23033
878.568	23018
878.696	23143
878.824	23151
878.951	23280
879.079	23436
879.206	23455
879.333	23307
879.461	23223
879.588	23162
879.715	23402
879.842	23421
879.97	23292
880.097	23079
880.224	23159
880.351	23052
880.478	23090
880.605	22946
880.732	22991
880.859	23330
880.986	23056
881.112	22911
881.239	22957
881.366	22717
881.493	22740
881.619	22596
881.746	22531
881.872	22626
881.999	22577
882.125	22504
882.252	22634
882.378	22561
882.505	22656
882.631	22481
882.757	22253
882.883	22337
883.01	22356
883.136	22192
883.262	22181
883.388	21991
883.514	22329
883.64	22379
883.766	22257
883.892	22276
884.018	22093
884.143	22200
884.269	22360
884.395	21994
884.52	22017
884.646	21956
884.772	21903
884.897	21876
885.023	21926
885.148	21991
885.274	22036
885.399	22013
885.524	21972
885.65	21949
885.775	21873
885.9	21808
886.025	22120
886.15	22055
886.275	21907
886.4	21732
886.525	21922
886.65	21854
886.775	21800
886.9	21960
887.025	22196
887.149	21789
887.274	21671
887.399	21709
887.523	21629
887.648	21663
887.773	21538
887.897	21743
888.021	21831
888.146	21637
888.27	21827
888.395	21736
888.519	21618
888.643	21633
888.767	21622
888.891	21663
889.015	21450
889.139	21481
889.263	21443
889.387	21606
889.511	21625
889.635	21564
889.759	21424
889.883	21534
890.006	21583
890.13	21610
890.254	21504
890.377	21378
890.501	21302
890.624	21157
890.748	21367
890.871	21188
890.995	21077
891.118	20979
891.241	21032
891.364	21074
891.488	21116
891.611	21085
891.734	21043
891.857	21062
891.98	21058
892.103	21055
892.226	21028
892.349	20963
892.471	20731
892.594	20899
892.717	20933
892.839	20960
892.962	21001
893.085	20994
893.207	20902
893.33	20861
893.452	20887
893.575	20948
893.697	20849
893.819	21093
893.941	21154
894.064	21001
894.186	20929
894.308	20815
894.43	20933
894.552	20967
894.674	20868
894.796	20804
894.918	20830
895.04	20967
895.161	20960
895.283	20899
895.405	20853
895.526	20925
895.648	20944
895.769	20914
895.891	20849
896.012	20971
896.134	20998
896.255	20944
896.376	20921
896.498	20811
896.619	20941
896.74	20807
896.861	20933
896.982	21237
897.103	21264
897.224	21119
897.345	21032
897.466	21146
897.587	21066
897.708	21230
897.828	21161
897.949	20971
898.07	20937
898.19	21017
898.311	21340
898.431	20998
898.552	21074
898.672	21176
898.792	21127
898.913	21036
899.033	21036
899.153	20880
899.273	20880
899.393	20861
899.513	20845
899.633	20800
899.753	20735
899.873	20781
899.993	20963
900.113	20823
900.232	20746
900.352	20625
900.472	20648
900.591	20571
900.711	20617
900.83	20503
900.95	20667
901.069	20609
901.189	20450
901.308	20187
901.427	20199
901.546	20221
901.665	20191
901.784	20191
901.904	19909
902.023	19845
902.141	19765
902.26	19727
902.379	19742
902.498	19525
902.617	19685
902.735	19791
902.854	19658
902.973	19495
903.091	19327
903.21	19392
903.328	19407
903.446	19289
903.565	19080
903.683	19046
903.801	19065
903.919	19129
904.038	19061
904.156	18909
904.274	18939
904.392	18833
904.51	18901
904.627	19012
904.745	18958
904.863	18958
904.981	18692
905.098	18513
905.216	18650
905.334	18715
905.451	18585
905.569	18540
905.686	18642
905.803	18642
905.921	18289
906.038	18448
906.155	18399
906.272	18247
906.389	18235
906.506	18117
906.623	18060
906.74	18076
906.857	17878
906.974	18079
907.091	18064
907.208	18209
907.324	18106
907.441	17961
907.557	17794
907.674	17771
907.79	17680
907.907	17863
908.023	17885
908.139	17745
908.256	17786
908.372	17684
908.488	17783
908.604	17562
908.72	17570
908.836	17608
908.952	17402
909.068	17619
909.184	17649
909.3	17509
909.415	17573
909.531	17410
909.647	17242
909.762	17258
909.878	17056
909.993	17254
910.108	17166
910.224	17181
910.339	17216
910.454	17121
910.57	17025
910.685	16862
910.8	17242
910.915	17098
911.03	17037
911.145	16862
911.259	16755
911.374	16828
911.489	16713
911.604	16656
911.718	16542
911.833	16561
911.947	16440
912.062	16409
912.176	16622
912.291	16538
912.405	16565
912.519	16694
912.633	16717
912.748	16672
912.862	16603
912.976	16417
913.09	16226
913.204	16333
913.318	16413
913.431	16443
913.545	16466
913.659	16375
913.772	16299
913.886	16207
914	16249
914.113	16246
914.226	16211
914.34	16131
914.453	16013
914.566	16226
914.68	15998
914.793	15953
914.906	15816
915.019	15800
915.132	15671
915.245	15637
915.358	15778
915.47	15671
915.583	15755
915.696	15755
915.809	15831
915.921	15884
916.034	15652
916.146	15622
916.259	15618
916.371	15709
916.483	15709
916.595	15637
916.708	15564
916.82	15511
916.932	15469
917.044	15458
917.156	15523
917.268	15378
917.38	15447
917.491	15363
917.603	15397
917.715	15481
917.826	15450
917.938	15264
918.049	15268
918.161	15329
918.272	15382
918.384	15462
918.495	15370
918.606	15104
918.717	15024
918.828	15127
918.939	15123
919.05	15013
919.161	15051
919.272	14876
919.383	14921
919.494	15142
919.604	15279
919.715	15093
919.826	15024
919.936	15024
920.047	15047
920.157	15081
920.267	15317
920.378	15070
920.488	14979
920.598	15291
920.708	15344
920.818	15142
920.928	15165
921.038	15336
921.148	15275
921.258	14960
921.368	14963
921.477	14857
921.587	14857
921.697	14670
921.806	14754
921.916	14640
922.025	14480
922.134	14393
922.244	14393
922.353	14415
922.462	14244
922.571	14138
922.68	14183
922.789	14046
922.898	14126
923.007	13959
923.116	14111
923.224	14005
923.333	14012
923.442	13879
923.55	13890
923.659	13849
923.767	13925
923.876	13841
923.984	13883
924.092	13677
924.201	13791
924.309	13811
924.417	13814
924.525	13727
924.633	13693
924.741	14522
924.849	13533
924.956	13647
925.064	13537
925.172	13316
925.279	13411
925.387	13449
925.494	13445
925.602	13502
925.709	13419
925.816	13362
925.924	13369
926.031	13438
926.138	13384
926.245	13480
926.352	13304
926.459	13377
926.566	13457
926.673	13327
926.779	13137
926.886	13133
926.993	13031
927.099	13046
927.206	13012
927.312	12882
927.419	13019
927.525	12947
927.631	12966
927.737	12814
927.843	12715
927.95	12650
928.056	12829
928.162	12768
928.267	12897
928.373	13312
928.479	12829
928.585	12620
928.69	12817
928.796	12783
928.901	12726
929.007	12506
929.112	12597
929.218	12578
929.323	12544
929.428	12555
929.533	12608
929.638	12479
929.743	12448
929.848	12475
929.953	12509
930.058	12388
930.163	12228
930.267	12285
930.372	12311
930.477	12121
930.581	12448
930.685	12220
930.79	12144
930.894	12182
930.998	12049
931.103	12175
931.207	11889
931.311	11699
931.415	11611
931.519	11398
931.623	11463
