Data from test_V78500241_1672.txt Node
Date: Fri Mar 25 15:53:23 CST 2022
User: usil
Spectrometer: V785-0024
Trigger mode: 0
Integration Time (sec): 4.000000E-1
Scans to average: 1
Nonlinearity correction enabled: false
Boxcar width: 0
Storing dark spectrum: false
XAxis mode: Wavelengths
Number of Pixels in Spectrum: 1024
>>>>>Begin Spectral Data<<<<<
801.071	28401
801.214	28284
801.356	28013
801.499	27979
801.641	27751
801.783	28051
801.926	27911
802.068	27793
802.211	27895
802.353	27789
802.496	27629
802.638	27637
802.78	27614
802.923	27466
803.065	27542
803.208	27473
803.35	27610
803.492	27686
803.635	27736
803.777	27637
803.919	27766
804.061	28070
804.204	27892
804.346	27789
804.488	27637
804.63	27831
804.773	27633
804.915	27759
805.057	27876
805.199	27819
805.341	27865
805.483	27831
805.626	27880
805.768	27797
805.91	27949
806.052	27819
806.194	27808
806.336	28177
806.478	27956
806.62	28013
806.762	28204
806.904	28249
807.046	28466
807.188	28398
807.33	28314
807.472	28382
807.614	28299
807.756	28405
807.898	28200
808.04	28124
808.182	28093
808.324	28207
808.465	28424
808.607	28557
808.749	28691
808.891	28645
809.033	28771
809.174	28649
809.316	28622
809.458	28588
809.6	28527
809.741	28771
809.883	28771
810.025	28885
810.166	28934
810.308	28957
810.45	28915
810.591	28774
810.733	28740
810.875	28611
811.016	28508
811.158	28573
811.299	28622
811.441	28733
811.582	28713
811.724	28713
811.865	28535
812.007	28523
812.148	28740
812.29	28713
812.431	28763
812.573	28866
812.714	29018
812.855	29033
812.997	29231
813.138	29429
813.279	29296
813.421	29269
813.562	29102
813.703	28911
813.845	28816
813.986	28447
814.127	28401
814.268	28337
814.41	28280
814.551	28322
814.692	28401
814.833	28238
814.974	28474
815.115	28192
815.256	28131
815.397	28223
815.539	28105
815.68	28200
815.821	28059
815.962	28090
816.103	28048
816.244	28006
816.385	27918
816.526	27823
816.666	27622
816.807	27538
816.948	27713
817.089	27671
817.23	27739
817.371	27583
817.512	27656
817.653	27488
817.793	27557
817.934	27591
818.075	27591
818.216	27644
818.356	27523
818.497	27549
818.638	27329
818.778	27237
818.919	27332
819.06	27462
819.2	27542
819.341	27599
819.481	27599
819.622	27861
819.762	27895
819.903	27888
820.043	27823
820.184	27633
820.324	27812
820.465	27705
820.605	27743
820.746	27671
820.886	27629
821.026	27698
821.167	27538
821.307	27861
821.447	27561
821.588	27622
821.728	27408
821.868	27260
822.008	27203
822.149	27169
822.289	27138
822.429	26815
822.569	26686
822.709	26636
822.849	26693
822.99	26564
823.13	26644
823.27	26488
823.41	26351
823.55	26328
823.69	26351
823.83	26415
823.97	26320
824.11	26187
824.25	26176
824.389	26282
824.529	26244
824.669	26259
824.809	26336
824.949	26267
825.089	26419
825.228	26305
825.368	26119
825.508	26115
825.648	26191
825.787	26168
825.927	26126
826.067	26115
826.206	26138
826.346	26168
826.485	26126
826.625	26100
826.765	26183
826.904	26206
827.044	25837
827.183	25795
827.323	25852
827.462	25883
827.601	25784
827.741	25738
827.88	25769
828.02	25685
828.159	25776
828.298	25830
828.437	25974
828.577	25753
828.716	25917
828.855	25712
828.994	25689
829.134	25537
829.273	25575
829.412	25453
829.551	25544
829.69	25544
829.829	25559
829.968	25567
830.107	25635
830.246	25529
830.385	25601
830.524	25453
830.663	25293
830.802	25148
830.941	25114
831.08	25114
831.219	25304
831.357	25225
831.496	25282
831.635	25065
831.774	25046
831.913	24996
832.051	24977
832.19	24837
832.329	24817
832.467	24806
832.606	24726
832.744	24810
832.883	24734
833.022	24783
833.16	24844
833.299	24814
833.437	24932
833.576	24878
833.714	24935
833.852	24951
833.991	24810
834.129	24962
834.267	24867
834.406	24829
834.544	24875
834.682	24924
834.821	24943
834.959	25099
835.097	24753
835.235	24989
835.373	24825
835.511	24875
835.65	24707
835.788	24787
835.926	24669
836.064	24464
836.202	24604
836.34	24859
836.478	24772
836.615	24654
836.753	24620
836.891	24749
837.029	24696
837.167	24642
837.305	24582
837.443	24559
837.58	24403
837.718	24532
837.856	24509
837.993	24410
838.131	24460
838.269	24399
838.406	24399
838.544	24308
838.681	24072
838.819	24159
838.956	23901
839.094	23923
839.231	24003
839.369	24045
839.506	24308
839.643	24262
839.781	24003
839.918	23901
840.055	24049
840.193	23912
840.33	23870
840.467	23897
840.604	24041
840.742	24174
840.879	23733
841.016	23828
841.153	23870
841.29	24038
841.427	23878
841.564	23942
841.701	23809
841.838	23783
841.975	23661
842.112	23939
842.249	23710
842.385	23687
842.522	23828
842.659	23703
842.796	23703
842.933	23699
843.069	23581
843.206	23558
843.343	23680
843.479	23703
843.616	23695
843.752	23387
843.889	23501
844.025	23528
844.162	23398
844.298	23531
844.435	23493
844.571	23353
844.708	23421
844.844	23570
844.98	23459
845.117	23459
845.253	23440
845.389	23193
845.525	23410
845.661	23269
845.798	23056
845.934	23246
846.07	23212
846.206	23181
846.342	23216
846.478	23033
846.614	22976
846.75	22824
846.886	22915
847.022	22923
847.158	22915
847.294	22949
847.429	22873
847.565	22904
847.701	23128
847.837	22656
847.972	22440
848.108	22717
848.244	22786
848.379	22618
848.515	22348
848.65	22409
848.786	22470
848.921	22421
849.057	22554
849.192	22516
849.328	22481
849.463	22516
849.598	22424
849.734	22428
849.869	22253
850.004	22306
850.14	22162
850.275	22181
850.41	22169
850.545	22116
850.68	22276
850.815	22143
850.95	22249
851.085	22337
851.22	22211
851.355	22295
851.49	22265
851.625	22280
851.76	22242
851.895	22181
852.03	22173
852.165	22295
852.299	22242
852.434	22367
852.569	22211
852.703	22188
852.838	22314
852.973	22322
853.107	22257
853.242	22158
853.376	22055
853.511	21934
853.645	21945
853.78	22154
853.914	22116
854.048	21975
854.183	21960
854.317	22051
854.451	22185
854.585	22025
854.72	21964
854.854	22105
854.988	22086
855.122	21945
855.256	21964
855.39	22048
855.524	22109
855.658	22051
855.792	22051
855.926	22105
856.06	22044
856.194	22063
856.327	22086
856.461	22029
856.595	22128
856.729	22010
856.862	22154
856.996	22040
857.13	22173
857.263	22109
857.397	22101
857.53	22101
857.664	22185
857.797	22097
857.931	22139
858.064	22010
858.197	22234
858.331	22074
858.464	21972
858.597	22013
858.731	22040
858.864	21930
858.997	22055
859.13	22082
859.263	22032
859.396	22150
859.529	22112
859.662	21953
859.795	22021
859.928	22105
860.061	22257
860.194	22280
860.327	22006
860.46	22173
860.592	22196
860.725	22318
860.858	22196
860.99	21956
861.123	21983
861.256	21994
861.388	22090
861.521	22713
861.653	22025
861.786	21759
861.918	21953
862.05	21835
862.183	21930
862.315	21987
862.447	22185
862.58	21720
862.712	21808
862.844	21797
862.976	21876
863.108	21804
863.24	22238
863.372	21705
863.504	21907
863.636	21751
863.768	21705
863.9	21800
864.032	21679
864.164	21720
864.296	21812
864.428	21823
864.559	21743
864.691	21774
864.823	21800
864.954	21876
865.086	21705
865.217	21698
865.349	21663
865.48	21614
865.612	21637
865.743	21709
865.875	21641
866.006	21629
866.137	21625
866.269	21549
866.4	21599
866.531	21553
866.662	21424
866.793	21561
866.924	21553
867.055	21606
867.186	21671
867.317	21568
867.448	21557
867.579	21538
867.71	21526
867.841	21462
867.972	21568
868.103	21511
868.233	21599
868.364	21504
868.495	21523
868.625	21846
868.756	21922
868.886	21675
869.017	21781
869.147	21800
869.278	21850
869.408	21739
869.539	21819
869.669	21846
869.799	21884
869.929	21865
870.06	21907
870.19	22131
870.32	22090
870.45	22158
870.58	22181
870.71	22337
870.84	22268
870.97	22249
871.1	22173
871.23	22318
871.36	22322
871.489	22329
871.619	22447
871.749	22352
871.879	22455
872.008	22561
872.138	22402
872.267	22382
872.397	22234
872.526	22280
872.656	22200
872.785	22291
872.915	22367
873.044	22592
873.173	22485
873.303	22527
873.432	22447
873.561	22443
873.69	22390
873.819	22512
873.948	22478
874.077	22538
874.206	22329
874.335	22348
874.464	22500
874.593	22592
874.722	22508
874.851	22527
874.979	22664
875.108	22645
875.237	22622
875.365	22611
875.494	22691
875.623	22603
875.751	22611
875.88	22660
876.008	22622
876.136	22816
876.265	23185
876.393	23056
876.521	23147
876.65	22999
876.778	23056
876.906	23018
877.034	22957
877.162	23071
877.29	22889
877.418	23052
877.546	22980
877.674	23079
877.802	22949
877.93	23014
878.058	22908
878.185	22908
878.313	22999
878.441	22972
878.568	22778
878.696	22839
878.824	23090
878.951	23052
879.079	23121
879.206	23315
879.333	23258
879.461	22991
879.588	23162
879.715	23105
879.842	23273
879.97	23086
880.097	22904
880.224	22786
880.351	22927
880.478	22828
880.605	22759
880.732	22824
880.859	22866
880.986	22816
881.112	22809
881.239	22740
881.366	22565
881.493	22379
881.619	22462
881.746	22344
881.872	22348
881.999	22299
882.125	22341
882.252	22478
882.378	22306
882.505	22432
882.631	22287
882.757	22219
882.883	22188
883.01	22162
883.136	21979
883.262	21861
883.388	21873
883.514	22067
883.64	22051
883.766	21975
883.892	21899
884.018	21823
884.143	22036
884.269	22086
884.395	21823
884.52	21641
884.646	21774
884.772	21644
884.897	21679
885.023	21694
885.148	21759
885.274	21899
885.399	21660
885.524	21701
885.65	21728
885.775	21709
885.9	21759
886.025	21827
886.15	21747
886.275	21641
886.4	21732
886.525	21717
886.65	21686
886.775	21656
886.9	21762
887.025	21926
887.149	21785
887.274	21595
887.399	21378
887.523	21428
887.648	21431
887.773	21279
887.897	21496
888.021	21629
888.146	21374
888.27	21625
888.395	21553
888.519	21576
888.643	21450
888.767	21568
888.891	21378
889.015	21317
889.139	21332
889.263	21119
889.387	21363
889.511	21485
889.635	21367
889.759	21249
889.883	21176
890.006	21302
890.13	21386
890.254	21237
890.377	21233
890.501	21058
890.624	20975
890.748	20971
890.871	20937
890.995	20815
891.118	20815
891.241	20769
891.364	20834
891.488	20910
891.611	20724
891.734	20765
891.857	20815
891.98	20769
892.103	20792
892.226	20910
892.349	20800
892.471	20590
892.594	20773
892.717	20781
892.839	20765
892.962	20693
893.085	20720
893.207	20804
893.33	20568
893.452	20568
893.575	20743
893.697	20701
893.819	20826
893.941	20933
894.064	20785
894.186	20697
894.308	20651
894.43	20807
894.552	20982
894.674	20727
894.796	20499
894.918	20697
895.04	20655
895.161	20689
895.283	20731
895.405	20716
895.526	20712
895.648	20708
895.769	20838
895.891	20724
896.012	20807
896.134	20617
896.255	20659
896.376	20765
896.498	20568
896.619	20701
896.74	20693
896.861	20758
896.982	20982
897.103	21184
897.224	21009
897.345	20933
897.466	20887
897.587	20891
897.708	20914
897.828	21024
897.949	20853
898.07	20701
898.19	20785
898.311	21024
898.431	20925
898.552	20948
898.672	20918
898.792	21028
898.913	20944
899.033	20804
899.153	20731
899.273	20670
899.393	20629
899.513	20655
899.633	20609
899.753	20724
899.873	20644
899.993	20621
900.113	20537
900.232	20693
900.352	20606
900.472	20461
900.591	20400
900.711	20370
900.83	20507
900.95	20530
901.069	20648
901.189	20396
901.308	20145
901.427	20035
901.546	20081
901.665	20005
901.784	20043
901.904	19841
902.023	19791
902.141	19639
902.26	19597
902.379	19597
902.498	19567
902.617	19578
902.735	19506
902.854	19384
902.973	19518
903.091	19232
903.21	19228
903.328	19065
903.446	19194
903.565	18932
903.683	18928
903.801	18916
903.919	18916
904.038	18833
904.156	18833
904.274	18863
904.392	18722
904.51	18753
904.627	18658
904.745	18783
904.863	18814
904.981	18544
905.098	18414
905.216	18494
905.334	18380
905.451	18429
905.569	18330
905.686	18399
905.803	18448
905.921	18243
906.038	18353
906.155	18182
906.272	18049
906.389	18045
906.506	17996
906.623	17965
906.74	18019
906.857	17764
906.974	17824
907.091	18003
907.208	18129
907.324	17916
907.441	17855
907.557	17729
907.674	17653
907.79	17630
907.907	17661
908.023	17676
908.139	17573
908.256	17573
908.372	17532
908.488	17566
908.604	17421
908.72	17311
908.836	17414
908.952	17292
909.068	17391
909.184	17334
909.3	17284
909.415	17341
909.531	17383
909.647	17079
909.762	17143
909.878	17037
909.993	17060
910.108	17025
910.224	16946
910.339	16987
910.454	16923
910.57	16824
910.685	16828
910.8	17014
910.915	16915
911.03	16820
911.145	16694
911.259	16645
911.374	16527
911.489	16588
911.604	16546
911.718	16402
911.833	16500
911.947	16295
912.062	16280
912.176	16409
912.291	16375
912.405	16318
912.519	16618
912.633	16565
912.748	16417
912.862	16402
912.976	16135
913.09	16139
913.204	16192
913.318	16230
913.431	16299
913.545	16280
913.659	16306
913.772	16131
913.886	16025
914	16044
914.113	16071
914.226	16010
914.34	16082
914.453	15915
914.566	15998
914.68	15850
914.793	15865
914.906	15713
915.019	15584
915.132	15488
915.245	15477
915.358	15587
915.47	15622
915.583	15648
915.696	15545
915.809	15656
915.921	15701
916.034	15545
916.146	15488
916.259	15500
916.371	15496
916.483	15481
916.595	15401
916.708	15458
916.82	15428
916.932	15382
917.044	15450
917.156	15340
917.268	15199
917.38	15241
917.491	15169
917.603	15161
917.715	15241
917.826	15386
917.938	15116
918.049	15104
918.161	15142
918.272	15272
918.384	15260
918.495	15192
918.606	14952
918.717	14941
918.828	15051
918.939	14975
919.05	14826
919.161	14971
919.272	14697
919.383	14769
919.494	15009
919.604	15119
919.715	14914
919.826	14792
919.936	14937
920.047	15020
920.157	15020
920.267	15066
920.378	14948
920.488	14815
920.598	15176
920.708	15241
920.818	15032
920.928	15104
921.038	15184
921.148	15230
921.258	14918
921.368	14716
921.477	14708
921.587	14632
921.697	14564
921.806	14667
921.916	14530
922.025	14415
922.134	14278
922.244	14149
922.353	14393
922.462	14176
922.571	14115
922.68	13940
922.789	13906
922.898	13963
923.007	13818
923.116	13944
923.224	13921
923.333	13974
923.442	13723
923.55	13750
923.659	13868
923.767	13822
923.876	13647
923.984	13776
924.092	13738
924.201	13643
924.309	13597
924.417	13719
924.525	13563
924.633	13556
924.741	14298
924.849	13373
924.956	13491
925.064	13392
925.172	13331
925.279	13293
925.387	13320
925.494	13358
925.602	13400
925.709	13343
925.816	13198
925.924	13312
926.031	13304
926.138	13247
926.245	13324
926.352	13278
926.459	13274
926.566	13301
926.673	13274
926.779	13050
926.886	13145
926.993	12970
927.099	12935
927.206	12852
927.312	12783
927.419	12951
927.525	12867
927.631	12776
927.737	12677
927.843	12741
927.95	12601
928.056	12669
928.162	12741
928.267	12707
928.373	13381
928.479	12757
928.585	12456
928.69	12582
928.796	12677
928.901	12528
929.007	12426
929.112	12547
929.218	12498
929.323	12323
929.428	12357
929.533	12486
929.638	12319
929.743	12422
929.848	12426
929.953	12391
930.058	12281
930.163	12019
930.267	12129
930.372	12258
930.477	11942
930.581	12330
930.685	12072
930.79	11866
930.894	11996
930.998	11874
931.103	12110
931.207	11688
931.311	11657
931.415	11577
931.519	11398
931.623	11322
