Data from test_V78500241_2108.txt Node
Date: Fri Mar 25 15:56:24 CST 2022
User: usil
Spectrometer: V785-0024
Trigger mode: 0
Integration Time (sec): 4.000000E-1
Scans to average: 1
Nonlinearity correction enabled: false
Boxcar width: 0
Storing dark spectrum: false
XAxis mode: Wavelengths
Number of Pixels in Spectrum: 1024
>>>>>Begin Spectral Data<<<<<
801.071	28991
801.214	28873
801.356	28542
801.499	28694
801.641	28504
801.783	28542
801.926	28710
802.068	28470
802.211	28466
802.353	28409
802.496	28268
802.638	28158
802.78	28261
802.923	28135
803.065	28116
803.208	28177
803.35	28105
803.492	28204
803.635	28466
803.777	28322
803.919	28398
804.061	28736
804.204	28432
804.346	28291
804.488	28398
804.63	28523
804.773	28405
804.915	28386
805.057	28645
805.199	28516
805.341	28360
805.483	28569
805.626	28656
805.768	28542
805.91	28603
806.052	28649
806.194	28497
806.336	28767
806.478	28698
806.62	28596
806.762	28858
806.904	28877
807.046	29212
807.188	29052
807.33	29151
807.472	29071
807.614	28999
807.756	28949
807.898	28866
808.04	28896
808.182	28942
808.324	29010
808.465	28866
808.607	29124
808.749	29235
808.891	29334
809.033	29505
809.174	29463
809.316	29246
809.458	29379
809.6	29398
809.741	29452
809.883	29345
810.025	29741
810.166	29722
810.308	29668
810.45	29562
810.591	29520
810.733	29471
810.875	29277
811.016	29235
811.158	29197
811.299	29478
811.441	29406
811.582	29395
811.724	29391
811.865	29349
812.007	29383
812.148	29337
812.29	29452
812.431	29375
812.573	29509
812.714	29722
812.855	29855
812.997	29939
813.138	30087
813.279	30087
813.421	29931
813.562	29866
813.703	29726
813.845	29623
813.986	29250
814.127	29216
814.268	29083
814.41	29098
814.551	28961
814.692	29147
814.833	28949
814.974	29018
815.115	29018
815.256	28972
815.397	28923
815.539	29056
815.68	28915
815.821	28725
815.962	28831
816.103	28816
816.244	28725
816.385	28653
816.526	28664
816.666	28424
816.807	28299
816.948	28516
817.089	28645
817.23	28344
817.371	28432
817.512	28344
817.653	28314
817.793	28329
817.934	28295
818.075	28390
818.216	28295
818.356	28360
818.497	28253
818.638	28082
818.778	28109
818.919	28135
819.06	28139
819.2	28268
819.341	28428
819.481	28421
819.622	28580
819.762	28561
819.903	28710
820.043	28474
820.184	28538
820.324	28447
820.465	28580
820.605	28573
820.746	28459
820.886	28341
821.026	28466
821.167	28443
821.307	28573
821.447	28421
821.588	28226
821.728	28139
821.868	27983
822.008	27888
822.149	27888
822.289	27922
822.429	27614
822.569	27690
822.709	27481
822.849	27348
822.99	27416
823.13	27283
823.27	27252
823.41	27127
823.55	26998
823.69	27180
823.83	27100
823.97	27157
824.11	27036
824.25	27001
824.389	26925
824.529	27066
824.669	27005
824.809	27195
824.949	27142
825.089	27161
825.228	26971
825.368	26876
825.508	26777
825.648	26804
825.787	27005
825.927	27058
826.067	26880
826.206	26899
826.346	27077
826.485	26910
826.625	26857
826.765	27024
826.904	26853
827.044	26583
827.183	26682
827.323	26648
827.462	26583
827.601	26689
827.741	26587
827.88	26663
828.02	26480
828.159	26613
828.298	26583
828.437	26629
828.577	26712
828.716	26739
828.855	26511
828.994	26206
829.134	26229
829.273	26324
829.412	26225
829.551	26275
829.69	26298
829.829	26278
829.968	26415
830.107	26377
830.246	26309
830.385	26176
830.524	26256
830.663	26172
830.802	25986
830.941	25868
831.08	25837
831.219	26050
831.357	26001
831.496	26062
831.635	25925
831.774	25837
831.913	25765
832.051	25685
832.19	25662
832.329	25597
832.467	25681
832.606	25605
832.744	25510
832.883	25601
833.022	25556
833.16	25422
833.299	25609
833.437	25582
833.576	25597
833.714	25685
833.852	25700
833.991	25670
834.129	25643
834.267	25696
834.406	25521
834.544	25643
834.682	25693
834.821	25677
834.959	25639
835.097	25639
835.235	25742
835.373	25674
835.511	25495
835.65	25525
835.788	25487
835.926	25278
836.064	25107
836.202	25324
836.34	25365
836.478	25518
836.615	25586
836.753	25381
836.891	25499
837.029	25407
837.167	25331
837.305	25354
837.443	25331
837.58	25320
837.718	25434
837.856	25403
837.993	25278
838.131	25289
838.269	25202
838.406	25129
838.544	25122
838.681	24943
838.819	24935
838.956	24783
839.094	24741
839.231	24734
839.369	24943
839.506	25168
839.643	25008
839.781	24825
839.918	24719
840.055	24753
840.193	24734
840.33	24684
840.467	24829
840.604	24654
840.742	24863
840.879	24551
841.016	24608
841.153	24433
841.29	24863
841.427	24547
841.564	24570
841.701	24563
841.838	24601
841.975	24429
842.112	24547
842.249	24395
842.385	24376
842.522	24384
842.659	24498
842.796	24502
842.933	24369
843.069	24213
843.206	24342
843.343	24513
843.479	24380
843.616	24311
843.752	24144
843.889	24247
844.025	24490
844.162	24144
844.298	24270
844.435	24159
844.571	24171
844.708	24133
844.844	24357
844.98	24281
845.117	24205
845.253	24003
845.389	23973
845.525	23923
845.661	24026
845.798	23870
845.934	23923
846.07	23863
846.206	23901
846.342	24041
846.478	23843
846.614	23634
846.75	23531
846.886	23634
847.022	23630
847.158	23482
847.294	23638
847.429	23562
847.565	23558
847.701	23813
847.837	23269
847.972	23349
848.108	23444
848.244	23383
848.379	23239
848.515	23117
848.65	23159
848.786	23109
848.921	23181
849.057	23242
849.192	23330
849.328	23265
849.463	23303
849.598	23098
849.734	23018
849.869	23155
850.004	23006
850.14	23033
850.275	23075
850.41	22911
850.545	22972
850.68	22900
850.815	23094
850.95	22965
851.085	23159
851.22	23086
851.355	23010
851.49	22809
851.625	22965
851.76	22942
851.895	22740
852.03	22854
852.165	22835
852.299	22980
852.434	23041
852.569	22972
852.703	23018
852.838	22946
852.973	23143
853.107	23060
853.242	22930
853.376	22820
853.511	22687
853.645	22820
853.78	22843
853.914	22675
854.048	22691
854.183	22900
854.317	22740
854.451	23022
854.585	22866
854.72	22729
854.854	22820
854.988	22812
855.122	22805
855.256	22592
855.39	22885
855.524	22771
855.658	22873
855.792	22828
855.926	22839
856.06	22805
856.194	22790
856.327	22812
856.461	22702
856.595	22805
856.729	22790
856.862	22858
856.996	22869
857.13	22915
857.263	22755
857.397	22915
857.53	22630
857.664	22755
857.797	22816
857.931	22839
858.064	22740
858.197	22816
858.331	22805
858.464	22649
858.597	22653
858.731	22687
858.864	22668
858.997	22767
859.13	22771
859.263	22752
859.396	22908
859.529	22664
859.662	22721
859.795	22744
859.928	22763
860.061	22847
860.194	23033
860.327	22801
860.46	22892
860.592	22892
860.725	22980
860.858	23025
860.99	22816
861.123	22759
861.256	22691
861.388	22790
861.521	23577
861.653	22763
861.786	22519
861.918	22565
862.05	22584
862.183	22687
862.315	22672
862.447	22588
862.58	22729
862.712	22516
862.844	22382
862.976	22523
863.108	22698
863.24	22866
863.372	22443
863.504	22459
863.636	22402
863.768	22493
863.9	22596
864.032	22436
864.164	22341
864.296	22512
864.428	22557
864.559	22470
864.691	22436
864.823	22535
864.954	22478
865.086	22398
865.217	22348
865.349	22287
865.48	22421
865.612	22417
865.743	22561
865.875	22367
866.006	22386
866.137	22409
866.269	22295
866.4	22207
866.531	22424
866.662	22291
866.793	22322
866.924	22253
867.055	22306
867.186	22363
867.317	22261
867.448	22310
867.579	22291
867.71	22215
867.841	22059
867.972	22188
868.103	22265
868.233	22367
868.364	22306
868.495	22314
868.625	22409
868.756	22554
868.886	22341
869.017	22409
869.147	22584
869.278	22713
869.408	22660
869.539	22405
869.669	22618
869.799	22478
869.929	22706
870.06	22679
870.19	22873
870.32	22752
870.45	22911
870.58	22858
870.71	23075
870.84	22862
870.97	22930
871.1	22919
871.23	22984
871.36	22968
871.489	23048
871.619	23132
871.749	23086
871.879	23128
872.008	23334
872.138	23147
872.267	23136
872.397	23052
872.526	23041
872.656	22908
872.785	23014
872.915	23098
873.044	23166
873.173	23090
873.303	23223
873.432	23223
873.561	23280
873.69	23216
873.819	23079
873.948	23254
874.077	23025
874.206	23189
874.335	23071
874.464	23227
874.593	23414
874.722	23391
874.851	23318
874.979	23273
875.108	23326
875.237	23330
875.365	23315
875.494	23242
875.623	23284
875.751	23162
875.88	23280
876.008	23353
876.136	23501
876.265	23752
876.393	23859
876.521	23790
876.65	23828
876.778	23684
876.906	23611
877.034	23691
877.162	23623
877.29	23611
877.418	23714
877.546	23703
877.674	23729
877.802	23714
877.93	23672
878.058	23661
878.185	23554
878.313	23745
878.441	23665
878.568	23531
878.696	23512
878.824	23745
878.951	23802
879.079	23927
879.206	23927
879.333	23775
879.461	23805
879.588	23828
879.715	23767
879.842	23882
879.97	23847
880.097	23463
880.224	23455
880.351	23528
880.478	23429
880.605	23501
880.732	23467
880.859	23684
880.986	23436
881.112	23585
881.239	23455
881.366	23307
881.493	23151
881.619	23075
881.746	23018
881.872	22999
881.999	23140
882.125	22911
882.252	23071
882.378	22987
882.505	23159
882.631	22892
882.757	22797
882.883	22839
883.01	22702
883.136	22717
883.262	22713
883.388	22611
883.514	22645
883.64	22740
883.766	22725
883.892	22402
884.018	22519
884.143	22755
884.269	22729
884.395	22344
884.52	22303
884.646	22348
884.772	22329
884.897	22333
885.023	22360
885.148	22470
885.274	22405
885.399	22363
885.524	22348
885.65	22341
885.775	22440
885.9	22299
886.025	22481
886.15	22489
886.275	22382
886.4	22177
886.525	22150
886.65	22249
886.775	22257
886.9	22466
887.025	22500
887.149	22276
887.274	22150
887.399	22063
887.523	22154
887.648	22063
887.773	21994
887.897	22082
888.021	22116
888.146	22078
888.27	22234
888.395	22284
888.519	22097
888.643	22109
888.767	22188
888.891	21876
889.015	21857
889.139	21835
889.263	21888
889.387	22013
889.511	21968
889.635	21972
889.759	21804
889.883	21892
890.006	21880
890.13	21991
890.254	21831
890.377	21842
890.501	21660
890.624	21656
890.748	21808
890.871	21526
890.995	21416
891.118	21412
891.241	21523
891.364	21511
891.488	21496
891.611	21428
891.734	21428
891.857	21523
891.98	21519
892.103	21561
892.226	21401
892.349	21431
892.471	21332
892.594	21340
892.717	21272
892.839	21306
892.962	21378
893.085	21351
893.207	21283
893.33	21226
893.452	21222
893.575	21401
893.697	21268
893.819	21405
893.941	21500
894.064	21420
894.186	21211
894.308	21184
894.43	21458
894.552	21386
894.674	21340
894.796	21150
894.918	21237
895.04	21283
895.161	21340
895.283	21336
895.405	21195
895.526	21370
895.648	21408
895.769	21294
895.891	21507
896.012	21329
896.134	21249
896.255	21218
896.376	21199
896.498	21222
896.619	21420
896.74	21157
896.861	21310
896.982	21622
897.103	21739
897.224	21515
897.345	21576
897.466	21454
897.587	21519
897.708	21610
897.828	21599
897.949	21386
898.07	21241
898.19	21420
898.311	21378
898.431	21416
898.552	21428
898.672	21424
898.792	21511
898.913	21564
899.033	21462
899.153	21256
899.273	21214
899.393	21241
899.513	21268
899.633	21199
899.753	21222
899.873	21081
899.993	21161
900.113	21089
900.232	21165
900.352	21131
900.472	20990
900.591	21024
900.711	20925
900.83	21017
900.95	21112
901.069	21066
901.189	20880
901.308	20731
901.427	20564
901.546	20575
901.665	20560
901.784	20575
901.904	20339
902.023	20332
902.141	20153
902.26	20058
902.379	20065
902.498	20050
902.617	20027
902.735	20039
902.854	19970
902.973	19940
903.091	19852
903.21	19670
903.328	19826
903.446	19674
903.565	19521
903.683	19525
903.801	19377
903.919	19502
904.038	19407
904.156	19327
904.274	19331
904.392	19293
904.51	19240
904.627	19259
904.745	19255
904.863	19263
904.981	19065
905.098	18947
905.216	18886
905.334	18916
905.451	18901
905.569	18875
905.686	18901
905.803	18882
905.921	18715
906.038	18821
906.155	18772
906.272	18616
906.389	18703
906.506	18418
906.623	18532
906.74	18486
906.857	18407
906.974	18452
907.091	18448
907.208	18578
907.324	18521
907.441	18308
907.557	18174
907.674	18159
907.79	18136
907.907	18152
908.023	18178
908.139	18190
908.256	18114
908.372	18076
908.488	18091
908.604	17870
908.72	17821
908.836	17920
908.952	17863
909.068	17828
909.184	17912
909.3	17775
909.415	17851
909.531	17901
909.647	17608
909.762	17520
909.878	17570
909.993	17608
910.108	17589
910.224	17539
910.339	17444
910.454	17474
910.57	17398
910.685	17379
910.8	17543
910.915	17497
911.03	17337
911.145	17197
911.259	17193
911.374	17121
911.489	17090
911.604	16919
911.718	16866
911.833	16889
911.947	16854
912.062	16733
912.176	16934
912.291	16869
912.405	16877
912.519	17071
912.633	16923
912.748	16881
912.862	16767
912.976	16694
913.09	16584
913.204	16710
913.318	16706
913.431	16790
913.545	16729
913.659	16816
913.772	16527
913.886	16550
914	16405
914.113	16538
914.226	16702
914.34	16493
914.453	16295
914.566	16535
914.68	16417
914.793	16261
914.906	16147
915.019	16025
915.132	16048
915.245	15983
915.358	16082
915.47	16071
915.583	16048
915.696	16143
915.809	16162
915.921	16166
916.034	16086
916.146	15865
916.259	15937
916.371	15979
916.483	15926
916.595	15956
916.708	15968
916.82	15823
916.932	15736
917.044	15827
917.156	15762
917.268	15614
917.38	15774
917.491	15599
917.603	15690
917.715	15614
917.826	15778
917.938	15603
918.049	15561
918.161	15591
918.272	15770
918.384	15660
918.495	15549
918.606	15488
918.717	15370
918.828	15435
918.939	15443
919.05	15321
919.161	15424
919.272	15169
919.383	15260
919.494	15378
919.604	15549
919.715	15351
919.826	15214
919.936	15340
920.047	15439
920.157	15310
920.267	15553
920.378	15317
920.488	15351
920.598	15542
920.708	15637
920.818	15507
920.928	15454
921.038	15584
921.148	15656
921.258	15256
921.368	15192
921.477	15112
921.587	15077
921.697	14952
921.806	15047
921.916	14990
922.025	14785
922.134	14739
922.244	14590
922.353	14705
922.462	14632
922.571	14446
922.68	14366
922.789	14415
922.898	14313
923.007	14237
923.116	14313
923.224	14282
923.333	14290
923.442	14187
923.55	14138
923.659	14172
923.767	14298
923.876	14096
923.984	14149
924.092	14073
924.201	14054
924.309	13989
924.417	14005
924.525	13986
924.633	14012
924.741	14648
924.849	13788
924.956	13936
925.064	13757
925.172	13685
925.279	13670
925.387	13723
925.494	13689
925.602	13811
925.709	13772
925.816	13529
925.924	13677
926.031	13696
926.138	13594
926.245	13689
926.352	13514
926.459	13666
926.566	13742
926.673	13559
926.779	13483
926.886	13343
926.993	13312
927.099	13213
927.206	13209
927.312	13183
927.419	13247
927.525	13198
927.631	13327
927.737	13156
927.843	13114
927.95	12897
928.056	13107
928.162	13103
928.267	13114
928.373	13723
928.479	13137
928.585	12894
928.69	12970
928.796	13053
928.901	12897
929.007	12703
929.112	12932
929.218	12875
929.323	12738
929.428	12703
929.533	12894
929.638	12859
929.743	12738
929.848	12772
929.953	12692
930.058	12620
930.163	12422
930.267	12391
930.372	12604
930.477	12296
930.581	12601
930.685	12471
930.79	12350
930.894	12388
930.998	12243
931.103	12418
931.207	11977
931.311	12007
931.415	11927
931.519	11661
931.623	11516
