Data from test_V78500241_1746.txt Node
Date: Fri Mar 25 15:53:53 CST 2022
User: usil
Spectrometer: V785-0024
Trigger mode: 0
Integration Time (sec): 4.000000E-1
Scans to average: 1
Nonlinearity correction enabled: false
Boxcar width: 0
Storing dark spectrum: false
XAxis mode: Wavelengths
Number of Pixels in Spectrum: 1024
>>>>>Begin Spectral Data<<<<<
801.071	28618
801.214	28603
801.356	28440
801.499	28348
801.641	28078
801.783	28169
801.926	28226
802.068	28280
802.211	27983
802.353	27994
802.496	27949
802.638	28021
802.78	27876
802.923	27797
803.065	27698
803.208	27736
803.35	27888
803.492	27994
803.635	28124
803.777	27903
803.919	28055
804.061	28436
804.204	28131
804.346	28021
804.488	27998
804.63	28166
804.773	28070
804.915	28246
805.057	28143
805.199	28059
805.341	28196
805.483	28318
805.626	28284
805.768	28261
805.91	28246
806.052	28325
806.194	28272
806.336	28462
806.478	28379
806.62	28272
806.762	28398
806.904	28531
807.046	28812
807.188	28679
807.33	28790
807.472	28881
807.614	28721
807.756	28618
807.898	28641
808.04	28504
808.182	28493
808.324	28729
808.465	28599
808.607	28805
808.749	28892
808.891	29052
809.033	29208
809.174	29041
809.316	28835
809.458	29041
809.6	28995
809.741	29022
809.883	29041
810.025	29155
810.166	29121
810.308	29292
810.45	29155
810.591	29315
810.733	28987
810.875	28949
811.016	28995
811.158	28934
811.299	29151
811.441	29124
811.582	29185
811.724	28778
811.865	28927
812.007	29052
812.148	28927
812.29	28892
812.431	29117
812.573	29246
812.714	29417
812.855	29505
812.997	29512
813.138	29638
813.279	29775
813.421	29600
813.562	29455
813.703	29433
813.845	29216
813.986	29109
814.127	28759
814.268	28717
814.41	28653
814.551	28687
814.692	28694
814.833	28645
814.974	28592
815.115	28630
815.256	28546
815.397	28554
815.539	28588
815.68	28493
815.821	28356
815.962	28504
816.103	28401
816.244	28272
816.385	28234
816.526	28333
816.666	28177
816.807	28006
816.948	28109
817.089	28105
817.23	28055
817.371	27911
817.512	28017
817.653	27979
817.793	27937
817.934	28002
818.075	27972
818.216	27937
818.356	28059
818.497	27816
818.638	27720
818.778	27835
818.919	27774
819.06	27751
819.2	27781
819.341	27884
819.481	27926
819.622	28150
819.762	28249
819.903	28253
820.043	28112
820.184	28181
820.324	28162
820.465	28124
820.605	28101
820.746	28097
820.886	28013
821.026	28143
821.167	28154
821.307	28093
821.447	28128
821.588	27876
821.728	27755
821.868	27652
822.008	27507
822.149	27412
822.289	27462
822.429	27028
822.569	27047
822.709	27184
822.849	27062
822.99	27077
823.13	26842
823.27	26948
823.41	26807
823.55	26556
823.69	26800
823.83	26868
823.97	26948
824.11	26583
824.25	26640
824.389	26720
824.529	26724
824.669	26651
824.809	26864
824.949	26651
825.089	26667
825.228	26590
825.368	26503
825.508	26347
825.648	26484
825.787	26533
825.927	26526
826.067	26355
826.206	26465
826.346	26484
826.485	26667
826.625	26442
826.765	26629
826.904	26598
827.044	26324
827.183	26408
827.323	26088
827.462	26187
827.601	26240
827.741	26298
827.88	26210
828.02	26164
828.159	26267
828.298	26271
828.437	26282
828.577	26172
828.716	26233
828.855	26202
828.994	25932
829.134	25955
829.273	25833
829.412	25879
829.551	25799
829.69	26016
829.829	25955
829.968	25928
830.107	26012
830.246	25959
830.385	25803
830.524	25818
830.663	25689
830.802	25514
830.941	25506
831.08	25331
831.219	25571
831.357	25567
831.496	25746
831.635	25514
831.774	25324
831.913	25422
832.051	25377
832.19	25415
832.329	25247
832.467	25236
832.606	25080
832.744	25110
832.883	25244
833.022	25141
833.16	25145
833.299	25251
833.437	25137
833.576	25183
833.714	25141
833.852	25381
833.991	25339
834.129	25304
834.267	25331
834.406	25221
834.544	25320
834.682	25324
834.821	25240
834.959	25422
835.097	25255
835.235	25365
835.373	25289
835.511	25255
835.65	25091
835.788	25050
835.926	24992
836.064	24958
836.202	24996
836.34	25057
836.478	25053
836.615	24932
836.753	25251
836.891	25168
837.029	25034
837.167	24920
837.305	25088
837.443	24970
837.58	24753
837.718	25012
837.856	24943
837.993	24772
838.131	24954
838.269	24856
838.406	24700
838.544	24730
838.681	24608
838.819	24475
838.956	24327
839.094	24380
839.231	24418
839.369	24456
839.506	24688
839.643	24521
839.781	24304
839.918	24258
840.055	24338
840.193	24369
840.33	24308
840.467	24296
840.604	24300
840.742	24486
840.879	24159
841.016	24148
841.153	24194
841.29	24216
841.427	24209
841.564	24178
841.701	24342
841.838	24148
841.975	24182
842.112	24258
842.249	24034
842.385	24053
842.522	24232
842.659	23988
842.796	24034
842.933	23950
843.069	24003
843.206	23931
843.343	24064
843.479	23980
843.616	24049
843.752	23741
843.889	23882
844.025	23817
844.162	23786
844.298	23790
844.435	23634
844.571	23756
844.708	23737
844.844	23893
844.98	23870
845.117	23961
845.253	23821
845.389	23554
845.525	23589
845.661	23608
845.798	23520
845.934	23581
846.07	23474
846.206	23505
846.342	23585
846.478	23478
846.614	23227
846.75	23197
846.886	23239
847.022	23242
847.158	23322
847.294	23303
847.429	23398
847.565	23124
847.701	23402
847.837	22972
847.972	22900
848.108	23033
848.244	23003
848.379	22923
848.515	22782
848.65	22847
848.786	22744
848.921	22721
849.057	22927
849.192	22927
849.328	22805
849.463	22752
849.598	22763
849.734	22672
849.869	22672
850.004	22626
850.14	22664
850.275	22550
850.41	22424
850.545	22550
850.68	22573
850.815	22588
850.95	22698
851.085	22805
851.22	22626
851.355	22557
851.49	22580
851.625	22504
851.76	22668
851.895	22466
852.03	22455
852.165	22531
852.299	22603
852.434	22607
852.569	22618
852.703	22535
852.838	22717
852.973	22706
853.107	22706
853.242	22436
853.376	22481
853.511	22322
853.645	22394
853.78	22641
853.914	22325
854.048	22375
854.183	22474
854.317	22440
854.451	22417
854.585	22398
854.72	22322
854.854	22421
854.988	22268
855.122	22478
855.256	22230
855.39	22344
855.524	22462
855.658	22481
855.792	22402
855.926	22489
856.06	22356
856.194	22500
856.327	22432
856.461	22382
856.595	22375
856.729	22268
856.862	22470
856.996	22550
857.13	22447
857.263	22455
857.397	22493
857.53	22386
857.664	22417
857.797	22474
857.931	22375
858.064	22459
858.197	22443
858.331	22356
858.464	22238
858.597	22280
858.731	22299
858.864	22249
858.997	22390
859.13	22375
859.263	22390
859.396	22451
859.529	22306
859.662	22329
859.795	22405
859.928	22474
860.061	22523
860.194	22656
860.327	22386
860.46	22443
860.592	22607
860.725	22455
860.858	22596
860.99	22341
861.123	22382
861.256	22284
861.388	22466
861.521	23216
861.653	22261
861.786	22177
861.918	22272
862.05	22268
862.183	22333
862.315	22405
862.447	22428
862.58	22379
862.712	22173
862.844	22090
862.976	22169
863.108	22162
863.24	22443
863.372	22036
863.504	22147
863.636	22040
863.768	22063
863.9	22147
864.032	21953
864.164	21968
864.296	22090
864.428	22314
864.559	22147
864.691	22147
864.823	22048
864.954	22101
865.086	21983
865.217	22093
865.349	22029
865.48	21979
865.612	21983
865.743	22147
865.875	22223
866.006	21918
866.137	21945
866.269	21968
866.4	21899
866.531	21918
866.662	21861
866.793	21895
866.924	21884
867.055	21835
867.186	21861
867.317	21842
867.448	21770
867.579	21831
867.71	21857
867.841	21759
867.972	21941
868.103	21865
868.233	21922
868.364	21968
868.495	21937
868.625	22177
868.756	22226
868.886	22017
869.017	22128
869.147	22162
869.278	22166
869.408	22211
869.539	22124
869.669	22249
869.799	22318
869.929	22299
870.06	22325
870.19	22538
870.32	22443
870.45	22440
870.58	22500
870.71	22668
870.84	22675
870.97	22641
871.1	22580
871.23	22763
871.36	22774
871.489	22653
871.619	22622
871.749	22717
871.879	22805
872.008	22839
872.138	22733
872.267	22729
872.397	22733
872.526	22542
872.656	22531
872.785	22466
872.915	22835
873.044	22824
873.173	22713
873.303	22774
873.432	22824
873.561	22843
873.69	22858
873.819	22797
873.948	22858
874.077	22767
874.206	22691
874.335	22634
874.464	22866
874.593	22934
874.722	23025
874.851	22965
874.979	22961
875.108	22991
875.237	22934
875.365	22892
875.494	22927
875.623	22984
875.751	22831
875.88	23079
876.008	23193
876.136	23117
876.265	23463
876.393	23433
876.521	23463
876.65	23448
876.778	23284
876.906	23368
877.034	23341
877.162	23204
877.29	23227
877.418	23322
877.546	23296
877.674	23280
877.802	23307
877.93	23425
878.058	23326
878.185	23189
878.313	23387
878.441	23280
878.568	23140
878.696	23280
878.824	23265
878.951	23486
879.079	23364
879.206	23684
879.333	23493
879.461	23345
879.588	23383
879.715	23448
879.842	23630
879.97	23220
880.097	23155
880.224	23006
880.351	23231
880.478	23197
880.605	23060
880.732	23083
880.859	23322
880.986	23113
881.112	23296
881.239	22991
881.366	22946
881.493	22790
881.619	22729
881.746	22774
881.872	22634
881.999	22713
882.125	22645
882.252	22599
882.378	22611
882.505	22767
882.631	22603
882.757	22478
882.883	22481
883.01	22287
883.136	22291
883.262	22417
883.388	22230
883.514	22451
883.64	22485
883.766	22363
883.892	22029
884.018	22234
884.143	22265
884.269	22428
884.395	22128
884.52	21934
884.646	21987
884.772	21899
884.897	21861
885.023	21941
885.148	21994
885.274	22219
885.399	22124
885.524	22032
885.65	21987
885.775	22055
885.9	22040
886.025	22139
886.15	22131
886.275	21994
886.4	21903
886.525	21987
886.65	21899
886.775	21907
886.9	22082
887.025	22215
887.149	22006
887.274	21869
887.399	21732
887.523	21785
887.648	21747
887.773	21686
887.897	21812
888.021	21781
888.146	21698
888.27	21842
888.395	21922
888.519	21857
888.643	21808
888.767	21770
888.891	21743
889.015	21526
889.139	21599
889.263	21545
889.387	21698
889.511	21675
889.635	21682
889.759	21523
889.883	21568
890.006	21412
890.13	21523
890.254	21401
890.377	21507
890.501	21359
890.624	21249
890.748	21332
890.871	21138
890.995	21112
891.118	20963
891.241	21081
891.364	21207
891.488	21249
891.611	21047
891.734	21100
891.857	21226
891.98	21195
892.103	21108
892.226	21112
892.349	21020
892.471	20842
892.594	21055
892.717	21024
892.839	21001
892.962	21093
893.085	21051
893.207	20880
893.33	20815
893.452	20941
893.575	21001
893.697	20944
893.819	21116
893.941	21131
894.064	21184
894.186	20895
894.308	20891
894.43	21066
894.552	21028
894.674	21058
894.796	20857
894.918	21017
895.04	20956
895.161	20963
895.283	20994
895.405	20948
895.526	20933
895.648	20948
895.769	20952
895.891	21020
896.012	20990
896.134	21055
896.255	21066
896.376	20929
896.498	20982
896.619	21036
896.74	20963
896.861	20952
896.982	21310
897.103	21355
897.224	21157
897.345	21066
897.466	21104
897.587	21165
897.708	21157
897.828	21184
897.949	21211
898.07	20998
898.19	21104
898.311	21230
898.431	21051
898.552	21169
898.672	21291
898.792	21142
898.913	21230
899.033	21062
899.153	20967
899.273	20895
899.393	20929
899.513	20986
899.633	20929
899.753	20842
899.873	20918
899.993	20826
900.113	20979
900.232	20883
900.352	20792
900.472	20743
900.591	20648
900.711	20701
900.83	20667
900.95	20788
901.069	20746
901.189	20697
901.308	20351
901.427	20229
901.546	20259
901.665	20248
901.784	20145
901.904	20092
902.023	20073
902.141	19830
902.26	19807
902.379	19826
902.498	19791
902.617	19635
902.735	19788
902.854	19681
902.973	19704
903.091	19434
903.21	19441
903.328	19426
903.446	19202
903.565	19145
903.683	19228
903.801	19110
903.919	19179
904.038	19129
904.156	18875
904.274	19110
904.392	19008
904.51	19046
904.627	18894
904.745	18943
904.863	19046
904.981	18791
905.098	18601
905.216	18681
905.334	18707
905.451	18627
905.569	18642
905.686	18623
905.803	18627
905.921	18498
906.038	18521
906.155	18429
906.272	18407
906.389	18448
906.506	18262
906.623	18205
906.74	18205
906.857	18011
906.974	18117
907.091	18224
907.208	18232
907.324	18167
907.441	18011
907.557	17961
907.674	17817
907.79	17802
907.907	17954
908.023	17912
908.139	17889
908.256	17809
908.372	17733
908.488	17790
908.604	17604
908.72	17615
908.836	17535
908.952	17509
909.068	17600
909.184	17592
909.3	17653
909.415	17653
909.531	17592
909.647	17223
909.762	17200
909.878	17273
909.993	17299
910.108	17265
910.224	17204
910.339	17284
910.454	17155
910.57	17094
910.685	17003
910.8	17254
910.915	17113
911.03	17003
911.145	16949
911.259	16805
911.374	16927
911.489	16828
911.604	16736
911.718	16554
911.833	16607
911.947	16538
912.062	16455
912.176	16569
912.291	16615
912.405	16550
912.519	16740
912.633	16733
912.748	16778
912.862	16561
912.976	16459
913.09	16310
913.204	16443
913.318	16493
913.431	16577
913.545	16440
913.659	16481
913.772	16478
913.886	16204
914	16169
914.113	16166
914.226	16337
914.34	16215
914.453	16063
914.566	16204
914.68	16181
914.793	15972
914.906	15884
915.019	15698
915.132	15705
915.245	15755
915.358	15869
915.47	15816
915.583	15785
915.696	15888
915.809	15838
915.921	15987
916.034	15838
916.146	15698
916.259	15633
916.371	15698
916.483	15759
916.595	15633
916.708	15599
916.82	15587
916.932	15488
917.044	15511
917.156	15504
917.268	15393
917.38	15386
917.491	15294
917.603	15454
917.715	15424
917.826	15557
917.938	15340
918.049	15249
918.161	15340
918.272	15450
918.384	15382
918.495	15233
918.606	15192
918.717	15154
918.828	15359
918.939	15157
919.05	15066
919.161	15066
919.272	15001
919.383	14967
919.494	15157
919.604	15389
919.715	15119
919.826	14990
919.936	15123
920.047	15180
920.157	15211
920.267	15264
920.378	15104
920.488	15104
920.598	15325
920.708	15397
920.818	15294
920.928	15256
921.038	15401
921.148	15306
921.258	14937
921.368	14990
921.477	14929
921.587	14773
921.697	14746
921.806	14800
921.916	14667
922.025	14503
922.134	14518
922.244	14530
922.353	14434
922.462	14343
922.571	14267
922.68	14176
922.789	14168
922.898	14123
923.007	14005
923.116	14149
923.224	14187
923.333	14024
923.442	13986
923.55	13970
923.659	13944
923.767	13978
923.876	13894
923.984	13974
924.092	13811
924.201	13807
924.309	13928
924.417	13765
924.525	13784
924.633	13753
924.741	14549
924.849	13506
924.956	13643
925.064	13578
925.172	13449
925.279	13552
925.387	13586
925.494	13537
925.602	13613
925.709	13472
925.816	13392
925.924	13502
926.031	13518
926.138	13438
926.245	13521
926.352	13407
926.459	13400
926.566	13567
926.673	13343
926.779	13198
926.886	13149
926.993	13107
927.099	12989
927.206	13053
927.312	12970
927.419	13027
927.525	13031
927.631	12966
927.737	12996
927.843	12856
927.95	12863
928.056	12787
928.162	12764
928.267	12829
928.373	13578
928.479	12913
928.585	12631
928.69	12779
928.796	12760
928.901	12688
929.007	12582
929.112	12642
929.218	12555
929.323	12502
929.428	12597
929.533	12677
929.638	12490
929.743	12445
929.848	12570
929.953	12528
930.058	12361
930.163	12235
930.267	12239
930.372	12380
930.477	12194
930.581	12460
930.685	12300
930.79	12053
930.894	12197
930.998	12098
931.103	12213
931.207	11809
931.311	11741
931.415	11653
931.519	11486
931.623	11581
