Data from test_V78500241_2849.txt Node
Date: Fri Mar 25 16:01:32 CST 2022
User: usil
Spectrometer: V785-0024
Trigger mode: 0
Integration Time (sec): 4.000000E-1
Scans to average: 1
Nonlinearity correction enabled: false
Boxcar width: 0
Storing dark spectrum: false
XAxis mode: Wavelengths
Number of Pixels in Spectrum: 1024
>>>>>Begin Spectral Data<<<<<
801.071	29102
801.214	28911
801.356	28752
801.499	28763
801.641	28554
801.783	28557
801.926	28656
802.068	28538
802.211	28497
802.353	28531
802.496	28207
802.638	28211
802.78	28341
802.923	28322
803.065	28200
803.208	28173
803.35	28272
803.492	28421
803.635	28485
803.777	28352
803.919	28394
804.061	28767
804.204	28607
804.346	28561
804.488	28447
804.63	28561
804.773	28348
804.915	28611
805.057	28550
805.199	28500
805.341	28641
805.483	28675
805.626	28668
805.768	28573
805.91	28679
806.052	28687
806.194	28596
806.336	28915
806.478	28649
806.62	28717
806.762	28835
806.904	29060
807.046	29117
807.188	29204
807.33	29178
807.472	29132
807.614	29159
807.756	29239
807.898	29018
808.04	28919
808.182	29090
808.324	29086
808.465	29083
808.607	29273
808.749	29368
808.891	29459
809.033	29608
809.174	29334
809.316	29261
809.458	29372
809.6	29425
809.741	29360
809.883	29547
810.025	29680
810.166	29764
810.308	29634
810.45	29657
810.591	29573
810.733	29368
810.875	29425
811.016	29330
811.158	29242
811.299	29604
811.441	29509
811.582	29539
811.724	29524
811.865	29307
812.007	29364
812.148	29299
812.29	29379
812.431	29646
812.573	29775
812.714	29802
812.855	29980
812.997	29977
813.138	30197
813.279	30083
813.421	29954
813.562	29973
813.703	29672
813.845	29608
813.986	29242
814.127	29200
814.268	29151
814.41	29140
814.551	29079
814.692	29189
814.833	29067
814.974	29105
815.115	29136
815.256	28987
815.397	28961
815.539	29105
815.68	29018
815.821	28942
815.962	28930
816.103	28949
816.244	28915
816.385	28786
816.526	28725
816.666	28474
816.807	28405
816.948	28523
817.089	28462
817.23	28360
817.371	28459
817.512	28398
817.653	28382
817.793	28443
817.934	28382
818.075	28508
818.216	28314
818.356	28329
818.497	28291
818.638	28265
818.778	28112
818.919	28196
819.06	28207
819.2	28226
819.341	28485
819.481	28360
819.622	28550
819.762	28740
819.903	28759
820.043	28565
820.184	28508
820.324	28546
820.465	28634
820.605	28546
820.746	28615
820.886	28519
821.026	28577
821.167	28474
821.307	28554
821.447	28390
821.588	28322
821.728	28272
821.868	28086
822.008	27873
822.149	27899
822.289	27739
822.429	27732
822.569	27599
822.709	27580
822.849	27542
822.99	27367
823.13	27466
823.27	27435
823.41	27241
823.55	27013
823.69	27230
823.83	27093
823.97	27142
824.11	27096
824.25	26902
824.389	27108
824.529	27028
824.669	26998
824.809	27135
824.949	27154
825.089	27161
825.228	27131
825.368	26940
825.508	26906
825.648	26963
825.787	27043
825.927	27085
826.067	26880
826.206	27074
826.346	27081
826.485	27066
826.625	27013
826.765	27058
826.904	27020
827.044	26861
827.183	26842
827.323	26727
827.462	26655
827.601	26762
827.741	26663
827.88	26708
828.02	26617
828.159	26621
828.298	26606
828.437	26750
828.577	26743
828.716	26705
828.855	26530
828.994	26461
829.134	26347
829.273	26427
829.412	26457
829.551	26381
829.69	26358
829.829	26317
829.968	26381
830.107	26526
830.246	26309
830.385	26237
830.524	26187
830.663	26058
830.802	26172
830.941	25913
831.08	25963
831.219	26054
831.357	25947
831.496	26046
831.635	25997
831.774	25887
831.913	25795
832.051	25811
832.19	25780
832.329	25807
832.467	25624
832.606	25624
832.744	25552
832.883	25662
833.022	25601
833.16	25693
833.299	25677
833.437	25582
833.576	25734
833.714	25723
833.852	25795
833.991	25826
834.129	25807
834.267	25746
834.406	25689
834.544	25708
834.682	25708
834.821	25632
834.959	25666
835.097	25674
835.235	25784
835.373	25685
835.511	25719
835.65	25559
835.788	25582
835.926	25521
836.064	25343
836.202	25419
836.34	25567
836.478	25704
836.615	25613
836.753	25510
836.891	25613
837.029	25616
837.167	25533
837.305	25388
837.443	25384
837.58	25411
837.718	25346
837.856	25324
837.993	25255
838.131	25202
838.269	25213
838.406	25270
838.544	25122
838.681	24894
838.819	24992
838.956	24867
839.094	24753
839.231	24852
839.369	25057
839.506	25145
839.643	25145
839.781	24848
839.918	24722
840.055	24825
840.193	24768
840.33	24604
840.467	24658
840.604	24814
840.742	24966
840.879	24525
841.016	24688
841.153	24483
841.29	24722
841.427	24635
841.564	24551
841.701	24692
841.838	24536
841.975	24665
842.112	24578
842.249	24563
842.385	24483
842.522	24654
842.659	24456
842.796	24369
842.933	24471
843.069	24395
843.206	24361
843.343	24593
843.479	24467
843.616	24433
843.752	24296
843.889	24243
844.025	24380
844.162	24182
844.298	24213
844.435	24098
844.571	24174
844.708	24262
844.844	24414
844.98	24353
845.117	24380
845.253	24190
845.389	24125
845.525	24201
845.661	24125
845.798	23916
845.934	23988
846.07	24068
846.206	23843
846.342	23961
846.478	23874
846.614	23786
846.75	23680
846.886	23566
847.022	23817
847.158	23729
847.294	23630
847.429	23733
847.565	23718
847.701	23908
847.837	23562
847.972	23395
848.108	23478
848.244	23577
848.379	23315
848.515	23254
848.65	23132
848.786	23334
848.921	23318
849.057	23474
849.192	23273
849.328	23337
849.463	23277
849.598	23147
849.734	23044
849.869	23162
850.004	22957
850.14	22938
850.275	23178
850.41	22999
850.545	22919
850.68	22957
850.815	23022
850.95	22953
851.085	23075
851.22	23121
851.355	23155
851.49	23025
851.625	23064
851.76	23090
851.895	22976
852.03	22854
852.165	22968
852.299	23117
852.434	23041
852.569	23071
852.703	22911
852.838	23029
852.973	23136
853.107	23155
853.242	22881
853.376	22831
853.511	22744
853.645	22816
853.78	22938
853.914	22976
854.048	22828
854.183	22866
854.317	22968
854.451	22923
854.585	22778
854.72	22759
854.854	22900
854.988	22820
855.122	22923
855.256	22653
855.39	22774
855.524	22816
855.658	22847
855.792	22763
855.926	22869
856.06	22717
856.194	22980
856.327	22892
856.461	22938
856.595	22801
856.729	22839
856.862	22923
856.996	22850
857.13	22923
857.263	22854
857.397	22938
857.53	22831
857.664	22843
857.797	22923
857.931	22839
858.064	22763
858.197	23010
858.331	22858
858.464	22759
858.597	22615
858.731	22771
858.864	22683
858.997	22721
859.13	22725
859.263	22820
859.396	22908
859.529	22835
859.662	22786
859.795	22717
859.928	22889
860.061	22953
860.194	23044
860.327	22919
860.46	22881
860.592	22889
860.725	22949
860.858	23022
860.99	22668
861.123	22809
861.256	22889
861.388	22698
861.521	23535
861.653	22725
861.786	22694
861.918	22603
862.05	22660
862.183	22767
862.315	22892
862.447	22759
862.58	22740
862.712	22531
862.844	22417
862.976	22641
863.108	22615
863.24	22934
863.372	22417
863.504	22485
863.636	22634
863.768	22679
863.9	22550
864.032	22485
864.164	22634
864.296	22596
864.428	22615
864.559	22637
864.691	22687
864.823	22512
864.954	22512
865.086	22474
865.217	22390
865.349	22386
865.48	22337
865.612	22367
865.743	22493
865.875	22356
866.006	22325
866.137	22371
866.269	22398
866.4	22390
866.531	22375
866.662	22325
866.793	22409
866.924	22333
867.055	22405
867.186	22360
867.317	22356
867.448	22310
867.579	22356
867.71	22211
867.841	22177
867.972	22428
868.103	22291
868.233	22268
868.364	22322
868.495	22424
868.625	22550
868.756	22542
868.886	22618
869.017	22618
869.147	22554
869.278	22847
869.408	22577
869.539	22462
869.669	22668
869.799	22569
869.929	22637
870.06	22626
870.19	22934
870.32	22778
870.45	22854
870.58	22904
870.71	23041
870.84	23159
870.97	23006
871.1	22991
871.23	23098
871.36	23398
871.489	23075
871.619	23151
871.749	23083
871.879	23337
872.008	23239
872.138	23277
872.267	23132
872.397	22942
872.526	22934
872.656	23056
872.785	23060
872.915	23132
873.044	23269
873.173	23265
873.303	23273
873.432	23223
873.561	23341
873.69	23193
873.819	23258
873.948	23200
874.077	23170
874.206	23083
874.335	23174
874.464	23254
874.593	23505
874.722	23387
874.851	23410
874.979	23334
875.108	23288
875.237	23368
875.365	23322
875.494	23277
875.623	23467
875.751	23284
875.88	23368
876.008	23463
876.136	23573
876.265	23828
876.393	23737
876.521	23866
876.65	23745
876.778	23874
876.906	23695
877.034	23573
877.162	23661
877.29	23577
877.418	23824
877.546	23733
877.674	23672
877.802	23665
877.93	23786
878.058	23608
878.185	23649
878.313	23665
878.441	23775
878.568	23577
878.696	23710
878.824	23646
878.951	23771
879.079	23847
879.206	24079
879.333	23790
879.461	23691
879.588	23885
879.715	23931
879.842	23996
879.97	23828
880.097	23531
880.224	23566
880.351	23657
880.478	23589
880.605	23528
880.732	23505
880.859	23809
880.986	23528
881.112	23539
881.239	23501
881.366	23307
881.493	23189
881.619	23025
881.746	23197
881.872	23105
881.999	23159
882.125	23083
882.252	23132
882.378	23155
882.505	23254
882.631	22889
882.757	22866
882.883	22919
883.01	22862
883.136	22733
883.262	22660
883.388	22622
883.514	22771
883.64	22759
883.766	22744
883.892	22599
884.018	22478
884.143	22592
884.269	22691
884.395	22531
884.52	22394
884.646	22432
884.772	22436
884.897	22211
885.023	22394
885.148	22599
885.274	22580
885.399	22462
885.524	22363
885.65	22390
885.775	22447
885.9	22409
886.025	22386
886.15	22546
886.275	22344
886.4	22306
886.525	22287
886.65	22226
886.775	22257
886.9	22447
887.025	22519
887.149	22402
887.274	22124
887.399	22181
887.523	22177
887.648	22055
887.773	21991
887.897	22211
888.021	22166
888.146	21895
888.27	22234
888.395	22200
888.519	22101
888.643	22181
888.767	22120
888.891	21991
889.015	22036
889.139	21930
889.263	21953
889.387	22204
889.511	22181
889.635	22101
889.759	21846
889.883	21953
890.006	21926
890.13	21991
890.254	21804
890.377	21842
890.501	21720
890.624	21545
890.748	21819
890.871	21583
890.995	21526
891.118	21416
891.241	21485
891.364	21542
891.488	21545
891.611	21496
891.734	21504
891.857	21454
891.98	21515
892.103	21370
892.226	21511
892.349	21367
892.471	21306
892.594	21367
892.717	21469
892.839	21382
892.962	21386
893.085	21534
893.207	21420
893.33	21382
893.452	21317
893.575	21306
893.697	21416
893.819	21428
893.941	21519
894.064	21515
894.186	21279
894.308	21180
894.43	21374
894.552	21382
894.674	21443
894.796	21256
894.918	21420
895.04	21306
895.161	21500
895.283	21443
895.405	21340
895.526	21340
895.648	21340
895.769	21420
895.891	21310
896.012	21397
896.134	21389
896.255	21428
896.376	21340
896.498	21298
896.619	21412
896.74	21408
896.861	21412
896.982	21709
897.103	21797
897.224	21625
897.345	21462
897.466	21435
897.587	21606
897.708	21694
897.828	21481
897.949	21507
898.07	21313
898.19	21466
898.311	21652
898.431	21424
898.552	21561
898.672	21701
898.792	21519
898.913	21561
899.033	21496
899.153	21344
899.273	21306
899.393	21260
899.513	21252
899.633	21298
899.753	21241
899.873	21176
899.993	21317
900.113	21192
900.232	21241
900.352	21214
900.472	21207
900.591	21020
900.711	21146
900.83	20994
900.95	21032
901.069	21161
901.189	20929
901.308	20746
901.427	20617
901.546	20636
901.665	20651
901.784	20560
901.904	20423
902.023	20396
902.141	20282
902.26	20119
902.379	20218
902.498	20039
902.617	20031
902.735	20180
902.854	20081
902.973	19997
903.091	19875
903.21	19799
903.328	19651
903.446	19742
903.565	19632
903.683	19605
903.801	19434
903.919	19510
904.038	19537
904.156	19438
904.274	19316
904.392	19240
904.51	19335
904.627	19312
904.745	19362
904.863	19304
904.981	19088
905.098	18943
905.216	19053
905.334	19019
905.451	19084
905.569	18890
905.686	18977
905.803	18924
905.921	18840
906.038	18829
906.155	18787
906.272	18703
906.389	18646
906.506	18506
906.623	18589
906.74	18498
906.857	18410
906.974	18566
907.091	18479
907.208	18582
907.324	18566
907.441	18376
907.557	18296
907.674	18315
907.79	18076
907.907	18182
908.023	18190
908.139	18289
908.256	18102
908.372	18072
908.488	18049
908.604	17965
908.72	17794
908.836	17931
908.952	17897
909.068	17813
909.184	18049
909.3	17961
909.415	17874
909.531	17961
909.647	17589
909.762	17512
909.878	17516
909.993	17615
910.108	17627
910.224	17596
910.339	17600
910.454	17478
910.57	17368
910.685	17311
910.8	17577
910.915	17623
911.03	17398
911.145	17288
911.259	17185
911.374	17189
911.489	17045
911.604	17121
911.718	16869
911.833	17056
911.947	16828
912.062	16748
912.176	16987
912.291	16930
912.405	16862
912.519	17033
912.633	17136
912.748	16942
912.862	16862
912.976	16645
913.09	16702
913.204	16641
913.318	16797
913.431	16816
913.545	16755
913.659	16793
913.772	16725
913.886	16523
914	16508
914.113	16512
914.226	16664
914.34	16573
914.453	16344
914.566	16459
914.68	16474
914.793	16360
914.906	16177
915.019	16169
915.132	16063
915.245	16063
915.358	16112
915.47	16124
915.583	16074
915.696	16097
915.809	16185
915.921	16192
916.034	16067
916.146	16025
916.259	16048
916.371	16120
916.483	16055
916.595	15846
916.708	15880
916.82	15903
916.932	15873
917.044	15778
917.156	15937
917.268	15686
917.38	15648
917.491	15724
917.603	15682
917.715	15759
917.826	15747
917.938	15701
918.049	15469
918.161	15622
918.272	15759
918.384	15785
918.495	15663
918.606	15412
918.717	15340
918.828	15500
918.939	15420
919.05	15408
919.161	15416
919.272	15245
919.383	15260
919.494	15428
919.604	15618
919.715	15378
919.826	15279
919.936	15332
920.047	15447
920.157	15450
920.267	15538
920.378	15431
920.488	15336
920.598	15557
920.708	15545
920.818	15420
920.928	15488
921.038	15724
921.148	15538
921.258	15408
921.368	15192
921.477	15150
921.587	15161
921.697	14910
921.806	15104
921.916	14941
922.025	14880
922.134	14788
922.244	14602
922.353	14765
922.462	14705
922.571	14454
922.68	14381
922.789	14328
922.898	14434
923.007	14259
923.116	14393
923.224	14461
923.333	14404
923.442	14282
923.55	14172
923.659	14180
923.767	14256
923.876	14191
923.984	14233
924.092	14115
924.201	14119
924.309	14088
924.417	14084
924.525	14008
924.633	13967
924.741	14918
924.849	13807
924.956	14039
925.064	13841
925.172	13715
925.279	13772
925.387	13803
925.494	13658
925.602	13871
925.709	13772
925.816	13636
925.924	13601
926.031	13746
926.138	13670
926.245	13693
926.352	13609
926.459	13685
926.566	13582
926.673	13514
926.779	13483
926.886	13552
926.993	13354
927.099	13270
927.206	13263
927.312	13263
927.419	13343
927.525	13145
927.631	13358
927.737	13110
927.843	13069
927.95	13027
928.056	13076
928.162	13080
928.267	13072
928.373	13750
928.479	13160
928.585	13023
928.69	12962
928.796	13118
928.901	12943
929.007	12711
929.112	12973
929.218	12814
929.323	12886
929.428	12764
929.533	12894
929.638	12825
929.743	12715
929.848	12662
929.953	12722
930.058	12627
930.163	12585
930.267	12437
930.372	12612
930.477	12407
930.581	12585
930.685	12475
930.79	12342
930.894	12327
930.998	12289
931.103	12460
931.207	12060
931.311	12026
931.415	11939
931.519	11741
931.623	11661
