Data from test_V78500241_1290.txt Node
Date: Fri Mar 25 15:50:44 CST 2022
User: usil
Spectrometer: V785-0024
Trigger mode: 0
Integration Time (sec): 4.000000E-1
Scans to average: 1
Nonlinearity correction enabled: false
Boxcar width: 0
Storing dark spectrum: false
XAxis mode: Wavelengths
Number of Pixels in Spectrum: 1024
>>>>>Begin Spectral Data<<<<<
801.071	28485
801.214	28341
801.356	28097
801.499	28021
801.641	27968
801.783	27945
801.926	27922
802.068	27903
802.211	27861
802.353	27766
802.496	27625
802.638	27561
802.78	27637
802.923	27485
803.065	27462
803.208	27610
803.35	27580
803.492	27603
803.635	27812
803.777	27603
803.919	27861
804.061	28128
804.204	27808
804.346	27663
804.488	27720
804.63	27736
804.773	27781
804.915	27816
805.057	27857
805.199	27778
805.341	27861
805.483	27918
805.626	27979
805.768	27895
805.91	27922
806.052	27987
806.194	27888
806.336	28242
806.478	27911
806.62	28097
806.762	28010
806.904	28177
807.046	28405
807.188	28523
807.33	28417
807.472	28474
807.614	28268
807.756	28390
807.898	28287
808.04	28333
808.182	28348
808.324	28276
808.465	28508
808.607	28504
808.749	28702
808.891	28725
809.033	28835
809.174	28717
809.316	28679
809.458	28752
809.6	28577
809.741	28782
809.883	28767
810.025	28980
810.166	28953
810.308	29037
810.45	29010
810.591	28771
810.733	28618
810.875	28599
811.016	28630
811.158	28470
811.299	28706
811.441	28767
811.582	28793
811.724	28546
811.865	28656
812.007	28615
812.148	28607
812.29	28736
812.431	28809
812.573	29044
812.714	29064
812.855	29284
812.997	29311
813.138	29364
813.279	29433
813.421	29128
813.562	29159
813.703	29159
813.845	28854
813.986	28599
814.127	28550
814.268	28409
814.41	28356
814.551	28398
814.692	28588
814.833	28314
814.974	28394
815.115	28417
815.256	28299
815.397	28371
815.539	28188
815.68	28211
815.821	28196
815.962	28265
816.103	28128
816.244	28006
816.385	28185
816.526	27892
816.666	27759
816.807	27610
816.948	27660
817.089	27819
817.23	27701
817.371	27759
817.512	27561
817.653	27709
817.793	27557
817.934	27720
818.075	27614
818.216	27694
818.356	27724
818.497	27587
818.638	27408
818.778	27462
818.919	27317
819.06	27625
819.2	27545
819.341	27625
819.481	27667
819.622	27812
819.762	28093
819.903	27895
820.043	27838
820.184	27880
820.324	27770
820.465	27884
820.605	27797
820.746	27800
820.886	27618
821.026	27728
821.167	27759
821.307	27747
821.447	27644
821.588	27736
821.728	27469
821.868	27427
822.008	27150
822.149	27192
822.289	27017
822.429	26994
822.569	26861
822.709	26845
822.849	26697
822.99	26689
823.13	26613
823.27	26556
823.41	26514
823.55	26317
823.69	26511
823.83	26609
823.97	26320
824.11	26412
824.25	26324
824.389	26275
824.529	26533
824.669	26237
824.809	26396
824.949	26450
825.089	26465
825.228	26347
825.368	26149
825.508	26172
825.648	26191
825.787	26244
825.927	26358
826.067	26240
826.206	26320
826.346	26229
826.485	26210
826.625	26214
826.765	26275
826.904	26149
827.044	26024
827.183	25936
827.323	25830
827.462	25963
827.601	26035
827.741	25868
827.88	25986
828.02	25864
828.159	25757
828.298	25978
828.437	26020
828.577	25723
828.716	26020
828.855	25734
828.994	25571
829.134	25620
829.273	25616
829.412	25578
829.551	25502
829.69	25594
829.829	25639
829.968	25643
830.107	25643
830.246	25677
830.385	25495
830.524	25438
830.663	25335
830.802	25301
830.941	25171
831.08	25228
831.219	25343
831.357	25350
831.496	25365
831.635	25091
831.774	25012
831.913	25141
832.051	25114
832.19	24981
832.329	24905
832.467	24890
832.606	24890
832.744	24825
832.883	24852
833.022	24992
833.16	24825
833.299	24878
833.437	24741
833.576	24916
833.714	24958
833.852	24833
833.991	25080
834.129	24901
834.267	24920
834.406	24928
834.544	24875
834.682	24901
834.821	24814
834.959	25110
835.097	24798
835.235	25031
835.373	24833
835.511	24970
835.65	24798
835.788	24707
835.926	24688
836.064	24688
836.202	24574
836.34	24692
836.478	24901
836.615	24669
836.753	24768
836.891	24760
837.029	24673
837.167	24741
837.305	24764
837.443	24658
837.58	24521
837.718	24661
837.856	24658
837.993	24422
838.131	24517
838.269	24490
838.406	24578
838.544	24277
838.681	24254
838.819	24281
838.956	24015
839.094	24003
839.231	24289
839.369	24281
839.506	24391
839.643	24197
839.781	24026
839.918	24026
840.055	23992
840.193	23897
840.33	23939
840.467	23988
840.604	23999
840.742	24159
840.879	23745
841.016	24041
841.153	23897
841.29	23950
841.427	23954
841.564	24007
841.701	23939
841.838	23817
841.975	23878
842.112	23904
842.249	23969
842.385	23843
842.522	23855
842.659	23695
842.796	23630
842.933	23642
843.069	23638
843.206	23646
843.343	23592
843.479	23668
843.616	23608
843.752	23535
843.889	23611
844.025	23615
844.162	23501
844.298	23554
844.435	23528
844.571	23425
844.708	23570
844.844	23672
844.98	23566
845.117	23509
845.253	23444
845.389	23322
845.525	23429
845.661	23387
845.798	23193
845.934	23223
846.07	23220
846.206	23265
846.342	23421
846.478	23204
846.614	23079
846.75	22889
846.886	22934
847.022	22934
847.158	23060
847.294	23003
847.429	22965
847.565	22858
847.701	23117
847.837	22538
847.972	22535
848.108	22782
848.244	22713
848.379	22607
848.515	22588
848.65	22451
848.786	22630
848.921	22630
849.057	22622
849.192	22554
849.328	22592
849.463	22615
849.598	22493
849.734	22443
849.869	22371
850.004	22310
850.14	22348
850.275	22249
850.41	22200
850.545	22219
850.68	22257
850.815	22287
850.95	22272
851.085	22421
851.22	22333
851.355	22382
851.49	22325
851.625	22162
851.76	22310
851.895	22162
852.03	22097
852.165	22188
852.299	22356
852.434	22375
852.569	22139
852.703	22238
852.838	22344
852.973	22314
853.107	22234
853.242	22196
853.376	22097
853.511	22143
853.645	22078
853.78	22230
853.914	22044
854.048	22029
854.183	22097
854.317	22021
854.451	22276
854.585	22238
854.72	22177
854.854	22234
854.988	22128
855.122	22048
855.256	22112
855.39	22048
855.524	22150
855.658	22124
855.792	22173
855.926	22131
856.06	22223
856.194	22196
856.327	22173
856.461	22051
856.595	21964
856.729	22032
856.862	22204
856.996	22124
857.13	22200
857.263	22207
857.397	22261
857.53	22006
857.664	22169
857.797	22192
857.931	22120
858.064	22082
858.197	22363
858.331	21922
858.464	22135
858.597	22029
858.731	22013
858.864	22097
858.997	22040
859.13	22139
859.263	22135
859.396	22078
859.529	22093
859.662	22025
859.795	21972
859.928	22109
860.061	22215
860.194	22367
860.327	22112
860.46	22112
860.592	22295
860.725	22280
860.858	22204
860.99	22105
861.123	21972
861.256	21998
861.388	22105
861.521	22736
861.653	22067
861.786	21827
861.918	21956
862.05	21892
862.183	21899
862.315	22093
862.447	22082
862.58	21972
862.712	21785
862.844	21869
862.976	21922
863.108	21949
863.24	22112
863.372	21835
863.504	21675
863.636	21846
863.768	21884
863.9	21778
864.032	21774
864.164	21724
864.296	21728
864.428	21854
864.559	21770
864.691	21823
864.823	21838
864.954	21831
865.086	21819
865.217	21644
865.349	21633
865.48	21694
865.612	21656
865.743	21755
865.875	21736
866.006	21656
866.137	21603
866.269	21743
866.4	21759
866.531	21633
866.662	21515
866.793	21637
866.924	21667
867.055	21663
867.186	21618
867.317	21629
867.448	21515
867.579	21534
867.71	21519
867.841	21561
867.972	21762
868.103	21538
868.233	21538
868.364	21667
868.495	21766
868.625	21774
868.756	21922
868.886	21781
869.017	21759
869.147	22082
869.278	21979
869.408	21926
869.539	21926
869.669	22006
869.799	21956
869.929	21895
870.06	21918
870.19	22128
870.32	22128
870.45	22192
870.58	22379
870.71	22344
870.84	22337
870.97	22363
871.1	22234
871.23	22451
871.36	22462
871.489	22360
871.619	22432
871.749	22466
871.879	22352
872.008	22569
872.138	22424
872.267	22489
872.397	22348
872.526	22230
872.656	22234
872.785	22386
872.915	22580
873.044	22710
873.173	22462
873.303	22508
873.432	22561
873.561	22481
873.69	22557
873.819	22474
873.948	22550
874.077	22577
874.206	22329
874.335	22421
874.464	22611
874.593	22778
874.722	22649
874.851	22660
874.979	22713
875.108	22713
875.237	22592
875.365	22523
875.494	22634
875.623	22717
875.751	22687
875.88	22713
876.008	22763
876.136	22896
876.265	23041
876.393	23307
876.521	23170
876.65	23143
876.778	23140
876.906	22999
877.034	22957
877.162	22999
877.29	23048
877.418	23064
877.546	23067
877.674	22999
877.802	22927
877.93	23056
878.058	23060
878.185	22949
878.313	22965
878.441	23041
878.568	22847
878.696	23071
878.824	23025
878.951	23121
879.079	23284
879.206	23296
879.333	23280
879.461	23090
879.588	23216
879.715	23170
879.842	23376
879.97	23056
880.097	22828
880.224	22824
880.351	22854
880.478	22999
880.605	22797
880.732	22790
880.859	23109
880.986	22790
881.112	22866
881.239	22687
881.366	22481
881.493	22531
881.619	22493
881.746	22535
881.872	22398
881.999	22394
882.125	22310
882.252	22382
882.378	22516
882.505	22508
882.631	22398
882.757	22086
882.883	22143
883.01	22128
883.136	22135
883.262	21926
883.388	21949
883.514	22059
883.64	22276
883.766	22090
883.892	21857
884.018	21911
884.143	21979
884.269	22158
884.395	21762
884.52	21682
884.646	21884
884.772	21614
884.897	21720
885.023	21781
885.148	21819
885.274	21903
885.399	21804
885.524	21781
885.65	21808
885.775	21701
885.9	21713
886.025	21789
886.15	21835
886.275	21762
886.4	21637
886.525	21728
886.65	21747
886.775	21580
886.9	21759
887.025	21846
887.149	21819
887.274	21523
887.399	21587
887.523	21416
887.648	21458
887.773	21450
887.897	21545
888.021	21591
888.146	21348
888.27	21549
888.395	21545
888.519	21504
888.643	21435
888.767	21644
888.891	21443
889.015	21310
889.139	21306
889.263	21279
889.387	21428
889.511	21549
889.635	21454
889.759	21302
889.883	21279
890.006	21367
890.13	21401
890.254	21184
890.377	21211
890.501	21066
890.624	20975
890.748	21017
890.871	21081
890.995	20804
891.118	20724
891.241	20849
891.364	20895
891.488	20925
891.611	20899
891.734	20849
891.857	20792
891.98	20925
892.103	20941
892.226	20857
892.349	20773
892.471	20659
892.594	20712
892.717	20800
892.839	20644
892.962	20762
893.085	20823
893.207	20788
893.33	20697
893.452	20651
893.575	20785
893.697	20629
893.819	20960
893.941	20910
894.064	20857
894.186	20796
894.308	20495
894.43	20769
894.552	20868
894.674	20872
894.796	20556
894.918	20750
895.04	20670
895.161	20895
895.283	20708
895.405	20686
895.526	20682
895.648	20788
895.769	20781
895.891	20819
896.012	20830
896.134	20830
896.255	20708
896.376	20667
896.498	20773
896.619	20838
896.74	20686
896.861	20796
896.982	21119
897.103	21104
897.224	21039
897.345	20891
897.466	20853
897.587	20902
897.708	21108
897.828	21017
897.949	20842
898.07	20686
898.19	20921
898.311	20941
898.431	20933
898.552	20891
898.672	21032
898.792	20994
898.913	20914
899.033	20781
899.153	20727
899.273	20689
899.393	20617
899.513	20788
899.633	20864
899.753	20648
899.873	20583
899.993	20724
900.113	20613
900.232	20590
900.352	20705
900.472	20415
900.591	20465
900.711	20450
900.83	20545
900.95	20556
901.069	20419
901.189	20332
901.308	20107
901.427	19993
901.546	19970
901.665	20168
901.784	19928
901.904	19932
902.023	19849
902.141	19632
902.26	19628
902.379	19734
902.498	19502
902.617	19472
902.735	19495
902.854	19499
902.973	19491
903.091	19297
903.21	19148
903.328	19221
903.446	19023
903.565	18989
903.683	19118
903.801	18928
903.919	19046
904.038	19072
904.156	18829
904.274	18897
904.392	18650
904.51	18711
904.627	18783
904.745	18825
904.863	18802
904.981	18536
905.098	18391
905.216	18361
905.334	18490
905.451	18399
905.569	18308
905.686	18445
905.803	18338
905.921	18163
906.038	18334
906.155	18209
906.272	18197
906.389	18171
906.506	17999
906.623	17969
906.74	17946
906.857	17817
906.974	17866
907.091	18053
907.208	18140
907.324	18049
907.441	17817
907.557	17752
907.674	17699
907.79	17642
907.907	17657
908.023	17657
908.139	17745
908.256	17573
908.372	17596
908.488	17482
908.604	17463
908.72	17292
908.836	17425
908.952	17330
909.068	17406
909.184	17417
909.3	17311
909.415	17429
909.531	17383
909.647	17086
909.762	17124
909.878	17086
909.993	17143
910.108	17090
910.224	17045
910.339	16980
910.454	16923
910.57	16900
910.685	16831
910.8	17105
910.915	17025
911.03	16915
911.145	16611
911.259	16649
911.374	16645
911.489	16455
911.604	16577
911.718	16295
911.833	16310
911.947	16352
912.062	16246
912.176	16303
912.291	16413
912.405	16314
912.519	16546
912.633	16550
912.748	16371
912.862	16333
912.976	16363
913.09	16093
913.204	16166
913.318	16128
913.431	16226
913.545	16226
913.659	16287
913.772	16215
913.886	16017
914	15934
914.113	16109
914.226	16071
914.34	16044
914.453	15759
914.566	15930
914.68	15701
914.793	15937
914.906	15701
915.019	15599
915.132	15496
915.245	15603
915.358	15633
915.47	15614
915.583	15519
915.696	15667
915.809	15633
915.921	15762
916.034	15572
916.146	15428
916.259	15473
916.371	15610
916.483	15606
916.595	15378
916.708	15462
916.82	15416
916.932	15363
917.044	15336
917.156	15272
917.268	15310
917.38	15214
917.491	15207
917.603	15154
917.715	15294
917.826	15272
917.938	15138
918.049	15093
918.161	15169
918.272	15283
918.384	15321
918.495	15150
918.606	14975
918.717	15039
918.828	15020
918.939	15032
919.05	14986
919.161	15001
919.272	14765
919.383	14857
919.494	15032
919.604	15173
919.715	14933
919.826	14861
919.936	14857
920.047	15062
920.157	14990
920.267	15188
920.378	14990
920.488	14876
920.598	15043
920.708	15275
920.818	14925
920.928	15028
921.038	15199
921.148	15093
921.258	14895
921.368	14765
921.477	14651
921.587	14583
921.697	14484
921.806	14739
921.916	14484
922.025	14396
922.134	14336
922.244	14195
922.353	14267
922.462	14240
922.571	14130
922.68	13982
922.789	14024
922.898	14005
923.007	13917
923.116	13871
923.224	13940
923.333	13826
923.442	13822
923.55	13818
923.659	13742
923.767	13807
923.876	13662
923.984	13776
924.092	13693
924.201	13651
924.309	13620
924.417	13639
924.525	13636
924.633	13636
924.741	14530
924.849	13350
924.956	13491
925.064	13384
925.172	13149
925.279	13350
925.387	13400
925.494	13400
925.602	13460
925.709	13362
925.816	13289
925.924	13244
926.031	13362
926.138	13232
926.245	13343
926.352	13152
926.459	13259
926.566	13274
926.673	13152
926.779	12993
926.886	13038
926.993	12924
927.099	12935
927.206	12829
927.312	12795
927.419	12947
927.525	12795
927.631	12886
927.737	12776
927.843	12696
927.95	12623
928.056	12662
928.162	12726
928.267	12688
928.373	13263
928.479	12753
928.585	12563
928.69	12631
928.796	12707
928.901	12593
929.007	12414
929.112	12578
929.218	12540
929.323	12365
929.428	12338
929.533	12585
929.638	12350
929.743	12372
929.848	12464
929.953	12327
930.058	12330
930.163	12030
930.267	12125
930.372	12254
930.477	12102
930.581	12270
930.685	12190
930.79	12057
930.894	12015
930.998	11935
931.103	12072
931.207	11764
931.311	11592
931.415	11512
931.519	11376
931.623	11372
