Data from test_V78500241_3428.txt Node
Date: Fri Mar 25 16:05:32 CST 2022
User: usil
Spectrometer: V785-0024
Trigger mode: 0
Integration Time (sec): 4.000000E-1
Scans to average: 1
Nonlinearity correction enabled: false
Boxcar width: 0
Storing dark spectrum: false
XAxis mode: Wavelengths
Number of Pixels in Spectrum: 1024
>>>>>Begin Spectral Data<<<<<
801.071	28965
801.214	28824
801.356	28554
801.499	28588
801.641	28470
801.783	28538
801.926	28474
802.068	28428
802.211	28386
802.353	28394
802.496	27972
802.638	28246
802.78	28162
802.923	27972
803.065	27994
803.208	27949
803.35	28143
803.492	28318
803.635	28341
803.777	28295
803.919	28401
804.061	28679
804.204	28436
804.346	28421
804.488	28329
804.63	28516
804.773	28295
804.915	28352
805.057	28550
805.199	28500
805.341	28493
805.483	28634
805.626	28577
805.768	28481
805.91	28588
806.052	28531
806.194	28538
806.336	28790
806.478	28603
806.62	28546
806.762	28672
806.904	28930
807.046	28961
807.188	29022
807.33	28972
807.472	29048
807.614	29109
807.756	29006
807.898	28961
808.04	28824
808.182	28786
808.324	28873
808.465	28938
808.607	29132
808.749	29417
808.891	29402
809.033	29299
809.174	29311
809.316	29124
809.458	29231
809.6	29022
809.741	29337
809.883	29375
810.025	29581
810.166	29490
810.308	29528
810.45	29566
810.591	29463
810.733	29372
810.875	29250
811.016	29090
811.158	29132
811.299	29360
811.441	29235
811.582	29478
811.724	29375
811.865	29368
812.007	29254
812.148	29326
812.29	29406
812.431	29577
812.573	29558
812.714	29707
812.855	29942
812.997	29851
813.138	29836
813.279	29931
813.421	29695
813.562	29687
813.703	29558
813.845	29653
813.986	29299
814.127	29200
814.268	29010
814.41	29048
814.551	28949
814.692	28896
814.833	28900
814.974	28915
815.115	28968
815.256	28938
815.397	28793
815.539	28812
815.68	28790
815.821	28774
815.962	28885
816.103	28812
816.244	28710
816.385	28702
816.526	28527
816.666	28409
816.807	28226
816.948	28375
817.089	28322
817.23	28390
817.371	28337
817.512	28394
817.653	28226
817.793	28284
817.934	28398
818.075	28284
818.216	28455
818.356	28196
818.497	28234
818.638	28021
818.778	27983
818.919	28112
819.06	28120
819.2	28287
819.341	28325
819.481	28379
819.622	28375
819.762	28580
819.903	28550
820.043	28516
820.184	28386
820.324	28428
820.465	28531
820.605	28516
820.746	28451
820.886	28428
821.026	28421
821.167	28409
821.307	28485
821.447	28474
821.588	28367
821.728	28051
821.868	28048
822.008	27911
822.149	27770
822.289	27770
822.429	27641
822.569	27515
822.709	27538
822.849	27534
822.99	27439
823.13	27340
823.27	27313
823.41	27116
823.55	26998
823.69	27131
823.83	27233
823.97	27020
824.11	26883
824.25	26925
824.389	26960
824.529	27123
824.669	26990
824.809	27127
824.949	27085
825.089	27081
825.228	26948
825.368	26853
825.508	26925
825.648	26826
825.787	26861
825.927	26929
826.067	26937
826.206	26864
826.346	26830
826.485	26834
826.625	26785
826.765	27131
826.904	26880
827.044	26701
827.183	26686
827.323	26469
827.462	26537
827.601	26629
827.741	26503
827.88	26552
828.02	26511
828.159	26598
828.298	26571
828.437	26575
828.577	26541
828.716	26575
828.855	26480
828.994	26324
829.134	26103
829.273	26267
829.412	26248
829.551	26134
829.69	26157
829.829	26195
829.968	26130
830.107	26275
830.246	26263
830.385	26115
830.524	26221
830.663	26046
830.802	26058
830.941	25731
831.08	25890
831.219	26058
831.357	25970
831.496	25989
831.635	25963
831.774	25708
831.913	25605
832.051	25643
832.19	25693
832.329	25708
832.467	25567
832.606	25590
832.744	25578
832.883	25556
833.022	25426
833.16	25544
833.299	25544
833.437	25620
833.576	25632
833.714	25563
833.852	25651
833.991	25609
834.129	25639
834.267	25613
834.406	25563
834.544	25495
834.682	25655
834.821	25578
834.959	25807
835.097	25445
835.235	25685
835.373	25662
835.511	25510
835.65	25396
835.788	25479
835.926	25270
836.064	25148
836.202	25324
836.34	25304
836.478	25658
836.615	25377
836.753	25407
836.891	25552
837.029	25365
837.167	25312
837.305	25206
837.443	25358
837.58	25377
837.718	25335
837.856	25266
837.993	25190
838.131	25247
838.269	25076
838.406	25187
838.544	25095
838.681	24973
838.819	24905
838.956	24703
839.094	24817
839.231	24890
839.369	24924
839.506	25008
839.643	25046
839.781	24665
839.918	24620
840.055	24924
840.193	24612
840.33	24608
840.467	24555
840.604	24684
840.742	24890
840.879	24418
841.016	24574
841.153	24426
841.29	24658
841.427	24646
841.564	24646
841.701	24726
841.838	24525
841.975	24452
842.112	24608
842.249	24365
842.385	24410
842.522	24612
842.659	24426
842.796	24441
842.933	24369
843.069	24300
843.206	24148
843.343	24467
843.479	24384
843.616	24262
843.752	24125
843.889	24018
844.025	24327
844.162	24117
844.298	24186
844.435	24213
844.571	24083
844.708	24224
844.844	24380
844.98	24369
845.117	24338
845.253	24030
845.389	24038
845.525	23942
845.661	23874
845.798	23813
845.934	23912
846.07	23783
846.206	23942
846.342	24076
846.478	23847
846.614	23737
846.75	23467
846.886	23543
847.022	23630
847.158	23566
847.294	23474
847.429	23707
847.565	23638
847.701	23840
847.837	23341
847.972	23341
848.108	23455
848.244	23360
848.379	23273
848.515	23185
848.65	23105
848.786	23159
848.921	23064
849.057	23261
849.192	23113
849.328	23189
849.463	23189
849.598	23075
849.734	23124
849.869	23071
850.004	22923
850.14	22957
850.275	22915
850.41	22877
850.545	23025
850.68	22854
850.815	22904
850.95	23014
851.085	23128
851.22	23109
851.355	22797
851.49	22946
851.625	22782
851.76	22908
851.895	23010
852.03	22820
852.165	22892
852.299	23018
852.434	22953
852.569	23003
852.703	22972
852.838	23098
852.973	23033
853.107	23029
853.242	22949
853.376	22816
853.511	22637
853.645	22706
853.78	22877
853.914	22793
854.048	22759
854.183	22816
854.317	22854
854.451	22911
854.585	22786
854.72	22843
854.854	22889
854.988	22729
855.122	22809
855.256	22592
855.39	22881
855.524	22710
855.658	22881
855.792	22607
855.926	22812
856.06	22828
856.194	22908
856.327	22782
856.461	22694
856.595	22713
856.729	22801
856.862	22869
856.996	22866
857.13	22786
857.263	22778
857.397	22771
857.53	22763
857.664	22793
857.797	22713
857.931	22801
858.064	22831
858.197	22854
858.331	22702
858.464	22748
858.597	22653
858.731	22805
858.864	22778
858.997	22710
859.13	22752
859.263	22755
859.396	22892
859.529	22744
859.662	22664
859.795	22786
859.928	22744
860.061	22968
860.194	23010
860.327	22774
860.46	22790
860.592	22949
860.725	22896
860.858	22904
860.99	22782
861.123	22733
861.256	22615
861.388	22710
861.521	23440
861.653	22618
861.786	22554
861.918	22554
862.05	22733
862.183	22649
862.315	22637
862.447	22744
862.58	22805
862.712	22569
862.844	22504
862.976	22580
863.108	22531
863.24	22805
863.372	22481
863.504	22443
863.636	22596
863.768	22432
863.9	22512
864.032	22432
864.164	22398
864.296	22592
864.428	22538
864.559	22455
864.691	22577
864.823	22443
864.954	22569
865.086	22508
865.217	22360
865.349	22169
865.48	22329
865.612	22360
865.743	22497
865.875	22367
866.006	22363
866.137	22417
866.269	22329
866.4	22268
866.531	22291
866.662	22238
866.793	22265
866.924	22413
867.055	22215
867.186	22287
867.317	22284
867.448	22074
867.579	22287
867.71	22204
867.841	22287
867.972	22337
868.103	22246
868.233	22287
868.364	22276
868.495	22535
868.625	22645
868.756	22694
868.886	22367
869.017	22508
869.147	22683
869.278	22698
869.408	22577
869.539	22474
869.669	22561
869.799	22660
869.929	22752
870.06	22710
870.19	22733
870.32	22812
870.45	22930
870.58	22976
870.71	22949
870.84	22999
870.97	22892
871.1	22885
871.23	23064
871.36	23162
871.489	23075
871.619	22961
871.749	23102
871.879	23109
872.008	23227
872.138	23155
872.267	23041
872.397	23018
872.526	22892
872.656	22946
872.785	22965
872.915	23052
873.044	23170
873.173	23109
873.303	23132
873.432	23159
873.561	23197
873.69	23121
873.819	23185
873.948	23242
874.077	23132
874.206	23155
874.335	23094
874.464	23193
874.593	23379
874.722	23292
874.851	23448
874.979	23391
875.108	23414
875.237	23299
875.365	23258
875.494	23330
875.623	23334
875.751	23349
875.88	23292
876.008	23490
876.136	23551
876.265	23779
876.393	23726
876.521	23699
876.65	23748
876.778	23718
876.906	23680
877.034	23676
877.162	23684
877.29	23535
877.418	23680
877.546	23767
877.674	23767
877.802	23687
877.93	23676
878.058	23684
878.185	23619
878.313	23699
878.441	23707
878.568	23452
878.696	23520
878.824	23764
878.951	23794
879.079	23786
879.206	24011
879.333	23821
879.461	23779
879.588	23707
879.715	23798
879.842	23920
879.97	23859
880.097	23539
880.224	23623
880.351	23623
880.478	23474
880.605	23467
880.732	23509
880.859	23687
880.986	23490
881.112	23512
881.239	23395
881.366	23265
881.493	23189
881.619	22961
881.746	23212
881.872	23102
881.999	23037
882.125	23010
882.252	23022
882.378	23052
882.505	23090
882.631	22927
882.757	22668
882.883	22736
883.01	22748
883.136	22675
883.262	22561
883.388	22588
883.514	22634
883.64	22816
883.766	22546
883.892	22493
884.018	22497
884.143	22592
884.269	22748
884.395	22478
884.52	22356
884.646	22470
884.772	22322
884.897	22196
885.023	22268
885.148	22546
885.274	22512
885.399	22428
885.524	22375
885.65	22344
885.775	22428
885.9	22268
886.025	22500
886.15	22451
886.275	22333
886.4	22306
886.525	22402
886.65	22215
886.775	22287
886.9	22474
887.025	22489
887.149	22276
887.274	22200
887.399	22139
887.523	22128
887.648	22029
887.773	22021
887.897	22051
888.021	22196
888.146	22013
888.27	22147
888.395	22253
888.519	22158
888.643	22120
888.767	22200
888.891	21915
889.015	21998
889.139	21934
889.263	21972
889.387	22051
889.511	22109
889.635	22013
889.759	21949
889.883	21812
890.006	21850
890.13	22105
890.254	21774
890.377	21793
890.501	21519
890.624	21644
890.748	21644
890.871	21507
890.995	21511
891.118	21317
891.241	21401
891.364	21355
891.488	21572
891.611	21488
891.734	21488
891.857	21473
891.98	21416
892.103	21515
892.226	21519
892.349	21408
892.471	21279
892.594	21230
892.717	21397
892.839	21321
892.962	21439
893.085	21344
893.207	21203
893.33	21374
893.452	21317
893.575	21363
893.697	21325
893.819	21496
893.941	21564
894.064	21488
894.186	21169
894.308	21188
894.43	21542
894.552	21561
894.674	21405
894.796	21180
894.918	21298
895.04	21268
895.161	21355
895.283	21344
895.405	21329
895.526	21264
895.648	21329
895.769	21412
895.891	21283
896.012	21462
896.134	21306
896.255	21355
896.376	21287
896.498	21344
896.619	21424
896.74	21393
896.861	21355
896.982	21705
897.103	21755
897.224	21530
897.345	21481
897.466	21564
897.587	21583
897.708	21694
897.828	21469
897.949	21439
898.07	21553
898.19	21424
898.311	21580
898.431	21431
898.552	21469
898.672	21572
898.792	21629
898.913	21488
899.033	21466
899.153	21359
899.273	21154
899.393	21355
899.513	21180
899.633	21184
899.753	21203
899.873	21165
899.993	21260
900.113	21142
900.232	21203
900.352	21119
900.472	21020
900.591	20963
900.711	21093
900.83	20906
900.95	21074
901.069	21001
901.189	20838
901.308	20667
901.427	20545
901.546	20613
901.665	20632
901.784	20549
901.904	20385
902.023	20286
902.141	20115
902.26	20024
902.379	20103
902.498	20016
902.617	19989
902.735	20149
902.854	20008
902.973	20065
903.091	19807
903.21	19769
903.328	19742
903.446	19601
903.565	19594
903.683	19495
903.801	19411
903.919	19392
904.038	19403
904.156	19285
904.274	19304
904.392	19308
904.51	19202
904.627	19247
904.745	19289
904.863	19232
904.981	19015
905.098	18886
905.216	18932
905.334	18932
905.451	18909
905.569	18939
905.686	18833
905.803	18859
905.921	18791
906.038	18878
906.155	18669
906.272	18635
906.389	18734
906.506	18528
906.623	18536
906.74	18483
906.857	18323
906.974	18273
907.091	18506
907.208	18521
907.324	18456
907.441	18262
907.557	18266
907.674	18148
907.79	18083
907.907	18117
908.023	18270
908.139	18205
908.256	18136
908.372	18049
908.488	18102
908.604	17969
908.72	17733
908.836	17863
908.952	17977
909.068	17843
909.184	17996
909.3	17904
909.415	17950
909.531	17901
909.647	17638
909.762	17718
909.878	17581
909.993	17718
910.108	17482
910.224	17532
910.339	17528
910.454	17349
910.57	17429
910.685	17379
910.8	17619
910.915	17547
911.03	17360
911.145	17178
911.259	17098
911.374	17060
911.489	17102
911.604	17022
911.718	16987
911.833	16946
911.947	16744
912.062	16748
912.176	16889
912.291	16919
912.405	16866
912.519	17010
912.633	17071
912.748	16953
912.862	16942
912.976	16755
913.09	16630
913.204	16748
913.318	16637
913.431	16839
913.545	16835
913.659	16702
913.772	16592
913.886	16523
914	16459
914.113	16588
914.226	16713
914.34	16561
914.453	16303
914.566	16489
914.68	16451
914.793	16265
914.906	16124
915.019	16044
915.132	16082
915.245	15972
915.358	16059
915.47	16101
915.583	16002
915.696	16112
915.809	16120
915.921	16242
916.034	15987
916.146	15831
916.259	15934
916.371	16044
916.483	15964
916.595	15903
916.708	15922
916.82	15842
916.932	15804
917.044	15865
917.156	15804
917.268	15629
917.38	15629
917.491	15633
917.603	15755
917.715	15736
917.826	15759
917.938	15660
918.049	15511
918.161	15553
918.272	15751
918.384	15800
918.495	15610
918.606	15462
918.717	15428
918.828	15393
918.939	15424
919.05	15230
919.161	15439
919.272	15279
919.383	15218
919.494	15477
919.604	15534
919.715	15359
919.826	15272
919.936	15401
920.047	15435
920.157	15359
920.267	15603
920.378	15325
920.488	15351
920.598	15526
920.708	15606
920.818	15496
920.928	15416
921.038	15660
921.148	15564
921.258	15336
921.368	15157
921.477	15062
921.587	15077
921.697	14994
921.806	15199
921.916	14937
922.025	14788
922.134	14712
922.244	14651
922.353	14758
922.462	14632
922.571	14518
922.68	14404
922.789	14377
922.898	14347
923.007	14324
923.116	14332
923.224	14290
923.333	14313
923.442	14172
923.55	14206
923.659	14187
923.767	14278
923.876	14103
923.984	14145
924.092	14005
924.201	14069
924.309	14008
924.417	13997
924.525	13993
924.633	14046
924.741	14872
924.849	13803
924.956	13750
925.064	13811
925.172	13677
925.279	13651
925.387	13738
925.494	13772
925.602	13852
925.709	13750
925.816	13586
925.924	13609
926.031	13799
926.138	13681
926.245	13700
926.352	13575
926.459	13719
926.566	13769
926.673	13647
926.779	13430
926.886	13343
926.993	13278
927.099	13297
927.206	13198
927.312	13221
927.419	13354
927.525	13217
927.631	13293
927.737	13072
927.843	13118
927.95	12966
928.056	13091
928.162	13046
928.267	13183
928.373	13738
928.479	13137
928.585	12821
928.69	12966
928.796	13031
928.901	12981
929.007	12821
929.112	12863
929.218	12859
929.323	12738
929.428	12711
929.533	12859
929.638	12768
929.743	12734
929.848	12700
929.953	12715
930.058	12620
930.163	12475
930.267	12399
930.372	12559
930.477	12395
930.581	12677
930.685	12407
930.79	12224
930.894	12327
930.998	12304
931.103	12456
931.207	11965
931.311	12041
931.415	11950
931.519	11779
931.623	11577
