Data from test_V78500241_1724.txt Node
Date: Fri Mar 25 15:53:44 CST 2022
User: usil
Spectrometer: V785-0024
Trigger mode: 0
Integration Time (sec): 4.000000E-1
Scans to average: 1
Nonlinearity correction enabled: false
Boxcar width: 0
Storing dark spectrum: false
XAxis mode: Wavelengths
Number of Pixels in Spectrum: 1024
>>>>>Begin Spectral Data<<<<<
801.071	28322
801.214	28322
801.356	28029
801.499	28013
801.641	27842
801.783	27831
801.926	27941
802.068	27857
802.211	27880
802.353	27751
802.496	27728
802.638	27580
802.78	27500
802.923	27412
803.065	27431
803.208	27538
803.35	27519
803.492	27743
803.635	27850
803.777	27656
803.919	27747
804.061	27998
804.204	27861
804.346	27564
804.488	27644
804.63	27709
804.773	27641
804.915	27876
805.057	27926
805.199	27873
805.341	27926
805.483	27983
805.626	27979
805.768	27857
805.91	27994
806.052	28029
806.194	27888
806.336	28173
806.478	28029
806.62	28017
806.762	28006
806.904	28230
807.046	28421
807.188	28375
807.33	28360
807.472	28318
807.614	28314
807.756	28508
807.898	28215
808.04	28097
808.182	28166
808.324	28322
808.465	28333
808.607	28481
808.749	28622
808.891	28637
809.033	28740
809.174	28660
809.316	28618
809.458	28584
809.6	28538
809.741	28706
809.883	28550
810.025	28858
810.166	28710
810.308	28892
810.45	28854
810.591	28797
810.733	28755
810.875	28569
811.016	28481
811.158	28531
811.299	28687
811.441	28850
811.582	28862
811.724	28569
811.865	28565
812.007	28630
812.148	28611
812.29	28546
812.431	28782
812.573	28949
812.714	29022
812.855	29155
812.997	29109
813.138	29368
813.279	29265
813.421	29121
813.562	29052
813.703	28946
813.845	28793
813.986	28588
814.127	28538
814.268	28382
814.41	28303
814.551	28215
814.692	28398
814.833	28363
814.974	28318
815.115	28204
815.256	28150
815.397	28188
815.539	28093
815.68	28162
815.821	27994
815.962	28059
816.103	28143
816.244	27979
816.385	27941
816.526	27880
816.666	27720
816.807	27557
816.948	27701
817.089	27766
817.23	27595
817.371	27462
817.512	27519
817.653	27652
817.793	27610
817.934	27591
818.075	27622
818.216	27557
818.356	27633
818.497	27538
818.638	27370
818.778	27325
818.919	27306
819.06	27496
819.2	27557
819.341	27648
819.481	27485
819.622	27717
819.762	28040
819.903	27842
820.043	27789
820.184	27800
820.324	27709
820.465	27873
820.605	27732
820.746	27637
820.886	27564
821.026	27622
821.167	27724
821.307	27739
821.447	27660
821.588	27629
821.728	27374
821.868	27123
822.008	27009
822.149	27009
822.289	27032
822.429	26826
822.569	26807
822.709	26781
822.849	26541
822.99	26594
823.13	26571
823.27	26507
823.41	26412
823.55	26313
823.69	26427
823.83	26317
823.97	26244
824.11	26103
824.25	26210
824.389	26195
824.529	26294
824.669	26275
824.809	26317
824.949	26313
825.089	26328
825.228	26259
825.368	25963
825.508	26142
825.648	26172
825.787	26218
825.927	26176
826.067	26134
826.206	26149
826.346	26195
826.485	26081
826.625	26142
826.765	26336
826.904	26107
827.044	26035
827.183	25944
827.323	25875
827.462	25902
827.601	25803
827.741	25860
827.88	25925
828.02	25761
828.159	25791
828.298	25852
828.437	25913
828.577	25769
828.716	25921
828.855	25765
828.994	25594
829.134	25537
829.273	25563
829.412	25521
829.551	25373
829.69	25533
829.829	25616
829.968	25468
830.107	25559
830.246	25521
830.385	25506
830.524	25411
830.663	25217
830.802	25171
830.941	25171
831.08	25027
831.219	25217
831.357	25202
831.496	25377
831.635	25057
831.774	25061
831.913	25118
832.051	24890
832.19	25034
832.329	24806
832.467	24817
832.606	24749
832.744	24840
832.883	24749
833.022	24844
833.16	24810
833.299	24810
833.437	24973
833.576	24875
833.714	24920
833.852	24791
833.991	24901
834.129	24943
834.267	24977
834.406	25038
834.544	24814
834.682	24859
834.821	24951
834.959	25046
835.097	24882
835.235	24924
835.373	24802
835.511	24875
835.65	24745
835.788	24681
835.926	24612
836.064	24551
836.202	24601
836.34	24768
836.478	24722
836.615	24623
836.753	24654
836.891	24875
837.029	24719
837.167	24787
837.305	24585
837.443	24505
837.58	24376
837.718	24642
837.856	24681
837.993	24502
838.131	24517
838.269	24311
838.406	24452
838.544	24247
838.681	24190
838.819	24174
838.956	23996
839.094	24022
839.231	24079
839.369	24216
839.506	24292
839.643	24251
839.781	24041
839.918	23920
840.055	23927
840.193	23916
840.33	23897
840.467	23916
840.604	23942
840.742	24209
840.879	23931
841.016	23939
841.153	23840
841.29	23965
841.427	23767
841.564	24003
841.701	23802
841.838	23851
841.975	23741
842.112	23847
842.249	23771
842.385	23653
842.522	23756
842.659	23703
842.796	23695
842.933	23653
843.069	23566
843.206	23630
843.343	23710
843.479	23680
843.616	23737
843.752	23417
843.889	23512
844.025	23581
844.162	23364
844.298	23474
844.435	23391
844.571	23414
844.708	23337
844.844	23543
844.98	23596
845.117	23497
845.253	23444
845.389	23345
845.525	23311
845.661	23273
845.798	23029
845.934	23151
846.07	23140
846.206	23239
846.342	23318
846.478	23079
846.614	22854
846.75	22831
846.886	22869
847.022	22820
847.158	22816
847.294	22809
847.429	22915
847.565	22809
847.701	23094
847.837	22782
847.972	22592
848.108	22645
848.244	22691
848.379	22577
848.515	22333
848.65	22424
848.786	22508
848.921	22516
849.057	22542
849.192	22523
849.328	22542
849.463	22459
849.598	22382
849.734	22413
849.869	22356
850.004	22185
850.14	22173
850.275	22322
850.41	22246
850.545	22207
850.68	22261
850.815	22276
850.95	22303
851.085	22447
851.22	22440
851.355	22276
851.49	22344
851.625	22211
851.76	22238
851.895	22230
852.03	22067
852.165	22207
852.299	22295
852.434	22268
852.569	22253
852.703	22246
852.838	22303
852.973	22424
853.107	22329
853.242	22230
853.376	22101
853.511	21842
853.645	22021
853.78	22226
853.914	22139
854.048	22032
854.183	22063
854.317	22116
854.451	22291
854.585	22074
854.72	21972
854.854	22124
854.988	22070
855.122	22044
855.256	21983
855.39	22051
855.524	22242
855.658	22010
855.792	22078
855.926	22044
856.06	22082
856.194	22177
856.327	22112
856.461	22002
856.595	22086
856.729	22105
856.862	22207
856.996	22032
857.13	22040
857.263	22025
857.397	22196
857.53	22154
857.664	22143
857.797	22086
857.931	22169
858.064	22082
858.197	22162
858.331	22067
858.464	21892
858.597	21922
858.731	22044
858.864	21915
858.997	21930
859.13	22097
859.263	22074
859.396	22097
859.529	22017
859.662	22002
859.795	22029
859.928	22063
860.061	22196
860.194	22219
860.327	22147
860.46	22017
860.592	22211
860.725	22303
860.858	22249
860.99	22082
861.123	22086
861.256	21934
861.388	22017
861.521	22721
861.653	22055
861.786	21751
861.918	21892
862.05	21922
862.183	22036
862.315	22040
862.447	22017
862.58	21869
862.712	21842
862.844	21618
862.976	21888
863.108	21827
863.24	22131
863.372	21709
863.504	21728
863.636	21800
863.768	21846
863.9	21861
864.032	21633
864.164	21846
864.296	21827
864.428	21880
864.559	21911
864.691	21774
864.823	21747
864.954	21694
865.086	21652
865.217	21690
865.349	21572
865.48	21564
865.612	21690
865.743	21759
865.875	21762
866.006	21656
866.137	21549
866.269	21690
866.4	21671
866.531	21530
866.662	21534
866.793	21629
866.924	21622
867.055	21637
867.186	21553
867.317	21481
867.448	21572
867.579	21530
867.71	21450
867.841	21568
867.972	21549
868.103	21526
868.233	21656
868.364	21599
868.495	21698
868.625	21736
868.756	21953
868.886	21819
869.017	21698
869.147	21968
869.278	21880
869.408	21739
869.539	21835
869.669	21831
869.799	21686
869.929	21975
870.06	21979
870.19	22112
870.32	22116
870.45	22162
870.58	22242
870.71	22291
870.84	22284
870.97	22265
871.1	22230
871.23	22215
871.36	22306
871.489	22329
871.619	22390
871.749	22493
871.879	22443
872.008	22634
872.138	22584
872.267	22493
872.397	22367
872.526	22242
872.656	22246
872.785	22196
872.915	22577
873.044	22615
873.173	22478
873.303	22550
873.432	22447
873.561	22584
873.69	22394
873.819	22508
873.948	22573
874.077	22550
874.206	22519
874.335	22356
874.464	22569
874.593	22622
874.722	22706
874.851	22790
874.979	22797
875.108	22645
875.237	22626
875.365	22519
875.494	22599
875.623	22683
875.751	22584
875.88	22725
876.008	22831
876.136	22889
876.265	23056
876.393	23322
876.521	23136
876.65	23151
876.778	22995
876.906	22968
877.034	22987
877.162	22968
877.29	22987
877.418	22938
877.546	22968
877.674	22923
877.802	22934
877.93	23006
878.058	22930
878.185	22869
878.313	22942
878.441	23029
878.568	22835
878.696	22927
878.824	22987
878.951	23109
879.079	23132
879.206	23216
879.333	23166
879.461	22984
879.588	23128
879.715	23140
879.842	23143
879.97	23060
880.097	22877
880.224	22755
880.351	22866
880.478	22904
880.605	22797
880.732	22744
880.859	22984
880.986	22812
881.112	22885
881.239	22774
881.366	22527
881.493	22440
881.619	22424
881.746	22360
881.872	22310
881.999	22337
882.125	22272
882.252	22382
882.378	22402
882.505	22451
882.631	22291
882.757	22120
882.883	22067
883.01	22101
883.136	22040
883.262	21956
883.388	21953
883.514	22116
883.64	22105
883.766	22063
883.892	21751
884.018	21816
884.143	21956
884.269	22143
884.395	21781
884.52	21641
884.646	21793
884.772	21728
884.897	21587
885.023	21766
885.148	21743
885.274	21842
885.399	21804
885.524	21720
885.65	21770
885.775	21755
885.9	21637
886.025	21762
886.15	21781
886.275	21675
886.4	21660
886.525	21675
886.65	21587
886.775	21625
886.9	21804
887.025	21915
887.149	21587
887.274	21458
887.399	21367
887.523	21488
887.648	21443
887.773	21412
887.897	21500
888.021	21435
888.146	21325
888.27	21572
888.395	21549
888.519	21515
888.643	21523
888.767	21386
888.891	21450
889.015	21165
889.139	21287
889.263	21233
889.387	21264
889.511	21359
889.635	21439
889.759	21310
889.883	21294
890.006	21272
890.13	21279
890.254	21165
890.377	21123
890.501	21077
890.624	21020
890.748	21036
890.871	20910
890.995	20868
891.118	20830
891.241	20792
891.364	20876
891.488	20982
891.611	20807
891.734	20758
891.857	20800
891.98	20773
892.103	20853
892.226	20830
892.349	20708
892.471	20514
892.594	20754
892.717	20705
892.839	20765
892.962	20724
893.085	20724
893.207	20712
893.33	20503
893.452	20648
893.575	20743
893.697	20712
893.819	20891
893.941	20891
894.064	20868
894.186	20735
894.308	20651
894.43	20804
894.552	20880
894.674	20796
894.796	20644
894.918	20716
895.04	20663
895.161	20838
895.283	20754
895.405	20667
895.526	20838
895.648	20735
895.769	20785
895.891	20693
896.012	20845
896.134	20781
896.255	20754
896.376	20526
896.498	20758
896.619	20686
896.74	20724
896.861	20743
896.982	21077
897.103	21188
897.224	20906
897.345	20868
897.466	20868
897.587	20967
897.708	21051
897.828	21028
897.949	20937
898.07	20834
898.19	20765
898.311	20990
898.431	20796
898.552	20861
898.672	20979
898.792	20880
898.913	20918
899.033	20758
899.153	20697
899.273	20568
899.393	20667
899.513	20648
899.633	20659
899.753	20731
899.873	20594
899.993	20659
900.113	20537
900.232	20659
900.352	20579
900.472	20484
900.591	20381
900.711	20457
900.83	20347
900.95	20511
901.069	20587
901.189	20256
901.308	20069
901.427	20001
901.546	19959
901.665	19970
901.784	20062
901.904	19955
902.023	19799
902.141	19552
902.26	19476
902.379	19689
902.498	19518
902.617	19381
902.735	19594
902.854	19438
902.973	19251
903.091	19179
903.21	19091
903.328	19107
903.446	19187
903.565	18924
903.683	19000
903.801	18840
903.919	18939
904.038	18833
904.156	18719
904.274	18779
904.392	18650
904.51	18661
904.627	18677
904.745	18696
904.863	18711
904.981	18460
905.098	18361
905.216	18376
905.334	18486
905.451	18433
905.569	18330
905.686	18403
905.803	18319
905.921	18174
906.038	18213
906.155	18220
906.272	18095
906.389	18060
906.506	17908
906.623	17961
906.74	17942
906.857	17863
906.974	17764
907.091	18011
907.208	17980
907.324	18019
907.441	17779
907.557	17611
907.674	17699
907.79	17524
907.907	17642
908.023	17630
908.139	17657
908.256	17608
908.372	17551
908.488	17512
908.604	17364
908.72	17303
908.836	17356
908.952	17318
909.068	17493
909.184	17448
909.3	17315
909.415	17334
909.531	17261
909.647	17151
909.762	17048
909.878	17010
909.993	17048
910.108	17022
910.224	17003
910.339	16995
910.454	16904
910.57	16843
910.685	16759
910.8	17048
910.915	17105
911.03	16847
911.145	16664
911.259	16634
911.374	16725
911.489	16580
911.604	16451
911.718	16360
911.833	16322
911.947	16348
912.062	16204
912.176	16428
912.291	16432
912.405	16333
912.519	16489
912.633	16558
912.748	16409
912.862	16386
912.976	16135
913.09	16051
913.204	16105
913.318	16204
913.431	16306
913.545	16284
913.659	16242
913.772	16135
913.886	15956
914	15975
914.113	16128
914.226	16078
914.34	15994
914.453	15835
914.566	15968
914.68	15911
914.793	15823
914.906	15694
915.019	15584
915.132	15523
915.245	15591
915.358	15568
915.47	15496
915.583	15526
915.696	15561
915.809	15698
915.921	15743
916.034	15564
916.146	15374
916.259	15428
916.371	15603
916.483	15450
916.595	15424
916.708	15408
916.82	15355
916.932	15359
917.044	15348
917.156	15306
917.268	15157
917.38	15294
917.491	15264
917.603	15203
917.715	15279
917.826	15272
917.938	15207
918.049	15028
918.161	15146
918.272	15283
918.384	15283
918.495	15047
918.606	15058
918.717	14849
918.828	15001
918.939	15020
919.05	14796
919.161	14941
919.272	14731
919.383	14762
919.494	14952
919.604	15085
919.715	14948
919.826	14861
919.936	14914
920.047	14963
920.157	14910
920.267	15112
920.378	14937
920.488	14868
920.598	15100
920.708	15233
920.818	14941
920.928	15009
921.038	15169
921.148	15070
921.258	14861
921.368	14727
921.477	14606
921.587	14632
921.697	14423
921.806	14610
921.916	14461
922.025	14282
922.134	14320
922.244	14172
922.353	14294
922.462	14191
922.571	14142
922.68	13906
922.789	13856
922.898	13951
923.007	13883
923.116	13974
923.224	13887
923.333	13856
923.442	13761
923.55	13658
923.659	13818
923.767	13712
923.876	13677
923.984	13772
924.092	13639
924.201	13765
924.309	13727
924.417	13681
924.525	13575
924.633	13438
924.741	14309
924.849	13441
924.956	13556
925.064	13384
925.172	13282
925.279	13289
925.387	13255
925.494	13312
925.602	13392
925.709	13312
925.816	13164
925.924	13289
926.031	13335
926.138	13293
926.245	13331
926.352	13346
926.459	13274
926.566	13301
926.673	13126
926.779	13053
926.886	13015
926.993	12909
927.099	12878
927.206	12901
927.312	12700
927.419	12840
927.525	12890
927.631	12772
927.737	12700
927.843	12684
927.95	12532
928.056	12665
928.162	12730
928.267	12677
928.373	13392
928.479	12787
928.585	12555
928.69	12639
928.796	12601
928.901	12528
929.007	12426
929.112	12620
929.218	12483
929.323	12357
929.428	12380
929.533	12528
929.638	12350
929.743	12327
929.848	12308
929.953	12372
930.058	12266
930.163	12068
930.267	12083
930.372	12239
930.477	12064
930.581	12308
930.685	12125
930.79	11980
930.894	11961
930.998	12022
931.103	12072
931.207	11726
931.311	11653
931.415	11566
931.519	11292
931.623	11311
