Data from test_V78500241_2911.txt Node
Date: Fri Mar 25 16:01:57 CST 2022
User: usil
Spectrometer: V785-0024
Trigger mode: 0
Integration Time (sec): 4.000000E-1
Scans to average: 1
Nonlinearity correction enabled: false
Boxcar width: 0
Storing dark spectrum: false
XAxis mode: Wavelengths
Number of Pixels in Spectrum: 1024
>>>>>Begin Spectral Data<<<<<
801.071	28656
801.214	28523
801.356	28447
801.499	28295
801.641	28166
801.783	28352
801.926	28215
802.068	28249
802.211	28128
802.353	28162
802.496	27911
802.638	27861
802.78	27850
802.923	27865
803.065	27816
803.208	27953
803.35	28010
803.492	28082
803.635	28226
803.777	28105
803.919	28090
804.061	28474
804.204	28204
804.346	28204
804.488	28063
804.63	28295
804.773	28078
804.915	28234
805.057	28375
805.199	28303
805.341	28295
805.483	28409
805.626	28379
805.768	28154
805.91	28398
806.052	28447
806.194	28188
806.336	28516
806.478	28421
806.62	28318
806.762	28333
806.904	28580
807.046	28866
807.188	28801
807.33	28752
807.472	28801
807.614	28740
807.756	28710
807.898	28679
808.04	28531
808.182	28599
808.324	28710
808.465	28736
808.607	28866
808.749	29105
808.891	29128
809.033	29284
809.174	29025
809.316	29094
809.458	28923
809.6	29003
809.741	29029
809.883	29208
810.025	29311
810.166	29360
810.308	29353
810.45	29162
810.591	29265
810.733	28999
810.875	28850
811.016	29033
811.158	28957
811.299	29094
811.441	29246
811.582	29124
811.724	28984
811.865	29033
812.007	29140
812.148	29128
812.29	29212
812.431	29227
812.573	29299
812.714	29478
812.855	29471
812.997	29611
813.138	29722
813.279	29543
813.421	29539
813.562	29448
813.703	29455
813.845	29284
813.986	28961
814.127	28767
814.268	28896
814.41	28656
814.551	28717
814.692	28744
814.833	28634
814.974	28847
815.115	28797
815.256	28660
815.397	28687
815.539	28630
815.68	28504
815.821	28394
815.962	28645
816.103	28611
816.244	28462
816.385	28207
816.526	28249
816.666	28124
816.807	28006
816.948	28097
817.089	28135
817.23	28051
817.371	28059
817.512	28158
817.653	28010
817.793	28010
817.934	28116
818.075	28150
818.216	28070
818.356	28154
818.497	27914
818.638	27804
818.778	27709
818.919	27797
819.06	27945
819.2	28036
819.341	28166
819.481	28109
819.622	28242
819.762	28367
819.903	28325
820.043	28310
820.184	28219
820.324	28177
820.465	28303
820.605	28287
820.746	28185
820.886	28139
821.026	28128
821.167	28078
821.307	28131
821.447	28093
821.588	28040
821.728	27717
821.868	27663
822.008	27568
822.149	27576
822.289	27363
822.429	27241
822.569	27214
822.709	27077
822.849	27146
822.99	26925
823.13	27119
823.27	27017
823.41	26929
823.55	26800
823.69	26750
823.83	26842
823.97	26834
824.11	26830
824.25	26587
824.389	26632
824.529	26739
824.669	26758
824.809	26921
824.949	26842
825.089	26811
825.228	26800
825.368	26670
825.508	26446
825.648	26461
825.787	26678
825.927	26625
826.067	26609
826.206	26655
826.346	26670
826.485	26609
826.625	26568
826.765	26636
826.904	26606
827.044	26320
827.183	26278
827.323	26294
827.462	26412
827.601	26309
827.741	26305
827.88	26377
828.02	26271
828.159	26180
828.298	26396
828.437	26385
828.577	26286
828.716	26476
828.855	26164
828.994	26008
829.134	25959
829.273	26081
829.412	25982
829.551	26020
829.69	26008
829.829	26077
829.968	25978
830.107	26100
830.246	25963
830.385	26024
830.524	25879
830.663	25883
830.802	25696
830.941	25616
831.08	25540
831.219	25696
831.357	25670
831.496	25852
831.635	25559
831.774	25632
831.913	25449
832.051	25320
832.19	25438
832.329	25381
832.467	25327
832.606	25377
832.744	25137
832.883	25247
833.022	25343
833.16	25247
833.299	25343
833.437	25331
833.576	25403
833.714	25285
833.852	25426
833.991	25312
834.129	25430
834.267	25407
834.406	25297
834.544	25324
834.682	25244
834.821	25324
834.959	25464
835.097	25343
835.235	25403
835.373	25160
835.511	25270
835.65	25301
835.788	25129
835.926	25084
836.064	24996
836.202	24909
836.34	25050
836.478	25263
836.615	25114
836.753	25168
836.891	25274
837.029	25198
837.167	25217
837.305	24970
837.443	25008
837.58	25004
837.718	24996
837.856	24939
837.993	24859
838.131	24962
838.269	24753
838.406	24905
838.544	24673
838.681	24589
838.819	24650
838.956	24513
839.094	24490
839.231	24494
839.369	24570
839.506	24749
839.643	24787
839.781	24239
839.918	24429
840.055	24414
840.193	24429
840.33	24365
840.467	24292
840.604	24353
840.742	24578
840.879	24228
841.016	24190
841.153	24167
841.29	24445
841.427	24262
841.564	24376
841.701	24346
841.838	24270
841.975	24342
842.112	24121
842.249	24205
842.385	24098
842.522	24357
842.659	24102
842.796	24125
842.933	24182
843.069	23988
843.206	23996
843.343	24159
843.479	24041
843.616	24076
843.752	23897
843.889	23805
844.025	24106
844.162	23707
844.298	23920
844.435	23821
844.571	23794
844.708	23908
844.844	23946
844.98	24030
845.117	23920
845.253	23897
845.389	23764
845.525	23722
845.661	23672
845.798	23596
845.934	23649
846.07	23562
846.206	23741
846.342	23752
846.478	23535
846.614	23318
846.75	23315
846.886	23353
847.022	23516
847.158	23376
847.294	23376
847.429	23372
847.565	23299
847.701	23398
847.837	23090
847.972	23132
848.108	23132
848.244	23200
848.379	22908
848.515	22946
848.65	22995
848.786	22877
848.921	22858
849.057	22961
849.192	22987
849.328	22946
849.463	22965
849.598	22949
849.734	22782
849.869	22679
850.004	22691
850.14	22683
850.275	22717
850.41	22561
850.545	22649
850.68	22668
850.815	22778
850.95	22717
851.085	22763
851.22	22782
851.355	22687
851.49	22706
851.625	22618
851.76	22763
851.895	22588
852.03	22577
852.165	22588
852.299	22721
852.434	22702
852.569	22702
852.703	22744
852.838	22660
852.973	22767
853.107	22820
853.242	22596
853.376	22615
853.511	22348
853.645	22474
853.78	22519
853.914	22535
854.048	22481
854.183	22493
854.317	22626
854.451	22679
854.585	22493
854.72	22550
854.854	22508
854.988	22356
855.122	22470
855.256	22493
855.39	22519
855.524	22592
855.658	22580
855.792	22634
855.926	22478
856.06	22508
856.194	22584
856.327	22546
856.461	22538
856.595	22500
856.729	22504
856.862	22603
856.996	22459
857.13	22565
857.263	22565
857.397	22683
857.53	22554
857.664	22485
857.797	22573
857.931	22519
858.064	22664
858.197	22554
858.331	22531
858.464	22344
858.597	22379
858.731	22512
858.864	22386
858.997	22478
859.13	22523
859.263	22584
859.396	22516
859.529	22527
859.662	22451
859.795	22428
859.928	22466
860.061	22531
860.194	22622
860.327	22508
860.46	22489
860.592	22630
860.725	22637
860.858	22607
860.99	22512
861.123	22443
861.256	22459
861.388	22493
861.521	23197
861.653	22314
861.786	22265
861.918	22314
862.05	22291
862.183	22531
862.315	22497
862.447	22500
862.58	22436
862.712	22166
862.844	22162
862.976	22322
863.108	22352
863.24	22687
863.372	22166
863.504	22291
863.636	22082
863.768	22181
863.9	22261
864.032	22063
864.164	22143
864.296	22188
864.428	22261
864.559	22344
864.691	22242
864.823	22284
864.954	22173
865.086	22143
865.217	22010
865.349	22013
865.48	22048
865.612	22036
865.743	22181
865.875	22067
866.006	22051
866.137	22029
866.269	21949
866.4	22044
866.531	22078
866.662	21998
866.793	22051
866.924	21915
867.055	22017
867.186	22025
867.317	22010
867.448	21968
867.579	22040
867.71	21892
867.841	21823
867.972	21979
868.103	21926
868.233	22086
868.364	21975
868.495	22105
868.625	22242
868.756	22204
868.886	22234
869.017	22101
869.147	22314
869.278	22348
869.408	22333
869.539	22265
869.669	22276
869.799	22428
869.929	22280
870.06	22360
870.19	22569
870.32	22500
870.45	22584
870.58	22649
870.71	22710
870.84	22664
870.97	22596
871.1	22729
871.23	22774
871.36	22896
871.489	22774
871.619	22771
871.749	22862
871.879	22839
872.008	22946
872.138	22755
872.267	22839
872.397	22755
872.526	22637
872.656	22702
872.785	22637
872.915	22816
873.044	23006
873.173	22824
873.303	23022
873.432	22949
873.561	23018
873.69	22953
873.819	22820
873.948	22900
874.077	22767
874.206	22850
874.335	22908
874.464	23143
874.593	23052
874.722	23018
874.851	23185
874.979	23071
875.108	23105
875.237	22930
875.365	22972
875.494	22961
875.623	23117
875.751	23094
875.88	23162
876.008	23170
876.136	23353
876.265	23547
876.393	23695
876.521	23543
876.65	23638
876.778	23490
876.906	23528
877.034	23433
877.162	23448
877.29	23303
877.418	23429
877.546	23463
877.674	23299
877.802	23482
877.93	23292
878.058	23292
878.185	23315
878.313	23478
878.441	23414
878.568	23269
878.696	23414
878.824	23299
878.951	23608
879.079	23585
879.206	23649
879.333	23600
879.461	23414
879.588	23619
879.715	23634
879.842	23707
879.97	23608
880.097	23166
880.224	23299
880.351	23216
880.478	23299
880.605	23296
880.732	23303
880.859	23421
880.986	23288
881.112	23200
881.239	23060
881.366	23041
881.493	22915
881.619	22847
881.746	22919
881.872	22771
881.999	22630
882.125	22664
882.252	22725
882.378	22805
882.505	22793
882.631	22675
882.757	22538
882.883	22561
883.01	22451
883.136	22519
883.262	22257
883.388	22246
883.514	22500
883.64	22474
883.766	22577
883.892	22238
884.018	22356
884.143	22485
884.269	22523
884.395	22181
884.52	22162
884.646	22131
884.772	22051
884.897	21941
885.023	22124
885.148	22181
885.274	22238
885.399	22211
885.524	21979
885.65	22055
885.775	22093
885.9	22147
886.025	22124
886.15	22242
886.275	22063
886.4	22025
886.525	22124
886.65	21987
886.775	22029
886.9	22021
887.025	22246
887.149	22169
887.274	21823
887.399	21873
887.523	21816
887.648	21838
887.773	21747
887.897	21907
888.021	21945
888.146	21861
888.27	21956
888.395	21876
888.519	21937
888.643	21827
888.767	21835
888.891	21812
889.015	21679
889.139	21713
889.263	21679
889.387	21728
889.511	21755
889.635	21701
889.759	21625
889.883	21564
890.006	21656
890.13	21747
890.254	21606
890.377	21663
890.501	21466
890.624	21412
890.748	21397
890.871	21378
890.995	21180
891.118	21192
891.241	21062
891.364	21199
891.488	21283
891.611	21146
891.734	21241
891.857	21325
891.98	21256
892.103	21192
892.226	21249
892.349	21013
892.471	20963
892.594	21100
892.717	21043
892.839	21104
892.962	21142
893.085	21123
893.207	21085
893.33	21028
893.452	21058
893.575	21195
893.697	21055
893.819	21272
893.941	21367
894.064	21173
894.186	21062
894.308	20998
894.43	21173
894.552	21154
894.674	21165
894.796	21055
894.918	21119
895.04	21169
895.161	21176
895.283	21104
895.405	21058
895.526	21108
895.648	21028
895.769	21093
895.891	21100
896.012	21207
896.134	21146
896.255	21127
896.376	21043
896.498	21070
896.619	21192
896.74	20998
896.861	21154
896.982	21374
897.103	21496
897.224	21306
897.345	21241
897.466	21154
897.587	21203
897.708	21393
897.828	21355
897.949	21123
898.07	21173
898.19	21226
898.311	21397
898.431	21146
898.552	21283
898.672	21313
898.792	21332
898.913	21226
899.033	21241
899.153	21039
899.273	21020
899.393	21047
899.513	20937
899.633	20891
899.753	21047
899.873	20994
899.993	21039
900.113	20906
900.232	21005
900.352	20868
900.472	20868
900.591	20887
900.711	20739
900.83	20651
900.95	20853
901.069	20834
901.189	20670
901.308	20415
901.427	20324
901.546	20511
901.665	20408
901.784	20286
901.904	20214
902.023	20195
902.141	19898
902.26	19875
902.379	19955
902.498	19761
902.617	19757
902.735	19917
902.854	19727
902.973	19784
903.091	19506
903.21	19529
903.328	19491
903.446	19285
903.565	19270
903.683	19255
903.801	19107
903.919	19232
904.038	19266
904.156	19099
904.274	19126
904.392	19008
904.51	19091
904.627	19065
904.745	19099
904.863	19012
904.981	18894
905.098	18757
905.216	18779
905.334	18688
905.451	18711
905.569	18753
905.686	18764
905.803	18745
905.921	18574
906.038	18585
906.155	18540
906.272	18384
906.389	18521
906.506	18243
906.623	18220
906.74	18178
906.857	18171
906.974	18133
907.091	18281
907.208	18460
907.324	18323
907.441	18079
907.557	17988
907.674	17980
907.79	17908
907.907	17828
908.023	17942
908.139	17897
908.256	17923
908.372	17859
908.488	17904
908.604	17729
908.72	17642
908.836	17684
908.952	17665
909.068	17638
909.184	17790
909.3	17680
909.415	17627
909.531	17585
909.647	17493
909.762	17417
909.878	17307
909.993	17372
910.108	17261
910.224	17379
910.339	17208
910.454	17189
910.57	17162
910.685	17113
910.8	17337
910.915	17315
911.03	17162
911.145	17094
911.259	16927
911.374	16987
911.489	16904
911.604	16847
911.718	16748
911.833	16675
911.947	16592
912.062	16489
912.176	16596
912.291	16653
912.405	16702
912.519	16957
912.633	16843
912.748	16702
912.862	16694
912.976	16466
913.09	16440
913.204	16394
913.318	16550
913.431	16577
913.545	16577
913.659	16527
913.772	16405
913.886	16390
914	16287
914.113	16367
914.226	16303
914.34	16325
914.453	16211
914.566	16265
914.68	16173
914.793	16112
914.906	15994
915.019	15854
915.132	15785
915.245	15895
915.358	15937
915.47	15819
915.583	15838
915.696	15804
915.809	15888
915.921	15888
916.034	15781
916.146	15835
916.259	15682
916.371	15876
916.483	15819
916.595	15686
916.708	15667
916.82	15705
916.932	15625
917.044	15614
917.156	15580
917.268	15561
917.38	15614
917.491	15428
917.603	15363
917.715	15519
917.826	15557
917.938	15393
918.049	15275
918.161	15485
918.272	15488
918.384	15576
918.495	15363
918.606	15340
918.717	15192
918.828	15184
918.939	15233
919.05	15081
919.161	15199
919.272	15028
919.383	15093
919.494	15230
919.604	15226
919.715	15119
919.826	15097
919.936	15104
920.047	15329
920.157	15127
920.267	15363
920.378	15169
920.488	15127
920.598	15363
920.708	15469
920.818	15393
920.928	15348
921.038	15488
921.148	15359
921.258	15154
921.368	15093
921.477	14899
921.587	14929
921.697	14811
921.806	14910
921.916	14792
922.025	14541
922.134	14522
922.244	14507
922.353	14575
922.462	14533
922.571	14343
922.68	14176
922.789	14282
922.898	14248
923.007	14123
923.116	14199
923.224	14107
923.333	14180
923.442	14012
923.55	13967
923.659	13986
923.767	14012
923.876	13921
923.984	13997
924.092	13799
924.201	13868
924.309	13875
924.417	13887
924.525	13879
924.633	13826
924.741	14845
924.849	13696
924.956	13803
925.064	13605
925.172	13537
925.279	13571
925.387	13601
925.494	13472
925.602	13670
925.709	13616
925.816	13476
925.924	13483
926.031	13597
926.138	13377
926.245	13544
926.352	13312
926.459	13567
926.566	13518
926.673	13365
926.779	13244
926.886	13373
926.993	13084
927.099	13137
927.206	13084
927.312	13053
927.419	13156
927.525	13023
927.631	13072
927.737	13023
927.843	12943
927.95	12954
928.056	12901
928.162	12951
928.267	12916
928.373	13666
928.479	12943
928.585	12730
928.69	12890
928.796	12848
928.901	12696
929.007	12646
929.112	12817
929.218	12783
929.323	12700
929.428	12604
929.533	12700
929.638	12547
929.743	12635
929.848	12532
929.953	12585
930.058	12441
930.163	12300
930.267	12380
930.372	12456
930.477	12277
930.581	12372
930.685	12235
930.79	12235
930.894	12270
930.998	12148
931.103	12224
931.207	11870
931.311	11893
931.415	11729
931.519	11551
931.623	11516
