Data from test_V78500241_2948.txt Node
Date: Fri Mar 25 16:02:13 CST 2022
User: usil
Spectrometer: V785-0024
Trigger mode: 0
Integration Time (sec): 4.000000E-1
Scans to average: 1
Nonlinearity correction enabled: false
Boxcar width: 0
Storing dark spectrum: false
XAxis mode: Wavelengths
Number of Pixels in Spectrum: 1024
>>>>>Begin Spectral Data<<<<<
801.071	28812
801.214	28847
801.356	28611
801.499	28485
801.641	28474
801.783	28554
801.926	28421
802.068	28470
802.211	28382
802.353	28356
802.496	28242
802.638	28093
802.78	28147
802.923	28017
803.065	27998
803.208	28177
803.35	28287
803.492	28200
803.635	28303
803.777	28291
803.919	28379
804.061	28706
804.204	28413
804.346	28314
804.488	28230
804.63	28284
804.773	28318
804.915	28462
805.057	28519
805.199	28451
805.341	28489
805.483	28546
805.626	28523
805.768	28432
805.91	28550
806.052	28538
806.194	28489
806.336	28683
806.478	28382
806.62	28561
806.762	28622
806.904	28942
807.046	29075
807.188	29003
807.33	29003
807.472	29075
807.614	28991
807.756	28972
807.898	28782
808.04	28896
808.182	28771
808.324	28957
808.465	28949
808.607	29239
808.749	29303
808.891	29326
809.033	29200
809.174	29261
809.316	29181
809.458	29261
809.6	29322
809.741	29307
809.883	29372
810.025	29600
810.166	29551
810.308	29417
810.45	29383
810.591	29349
810.733	29284
810.875	29337
811.016	29246
811.158	29227
811.299	29406
811.441	29387
811.582	29455
811.724	29239
811.865	29185
812.007	29193
812.148	29246
812.29	29223
812.431	29630
812.573	29623
812.714	29676
812.855	29805
812.997	29866
813.138	30057
813.279	29828
813.421	29832
813.562	29638
813.703	29486
813.845	29589
813.986	29189
814.127	28999
814.268	29044
814.41	29037
814.551	28968
814.692	28984
814.833	28980
814.974	28934
815.115	29041
815.256	28847
815.397	28877
815.539	29014
815.68	28915
815.821	28733
815.962	28873
816.103	28828
816.244	28596
816.385	28542
816.526	28565
816.666	28474
816.807	28329
816.948	28436
817.089	28253
817.23	28306
817.371	28398
817.512	28295
817.653	28261
817.793	28150
817.934	28215
818.075	28379
818.216	28242
818.356	28166
818.497	28204
818.638	28101
818.778	27998
818.919	28101
819.06	28219
819.2	28109
819.341	28211
819.481	28291
819.622	28447
819.762	28694
819.903	28668
820.043	28440
820.184	28519
820.324	28428
820.465	28637
820.605	28580
820.746	28352
820.886	28268
821.026	28341
821.167	28379
821.307	28451
821.447	28287
821.588	28257
821.728	28055
821.868	27880
822.008	27835
822.149	27724
822.289	27701
822.429	27614
822.569	27496
822.709	27473
822.849	27359
822.99	27344
823.13	27241
823.27	27321
823.41	27104
823.55	27013
823.69	27123
823.83	27119
823.97	27058
824.11	27032
824.25	26857
824.389	26906
824.529	26952
824.669	26914
824.809	27146
824.949	27055
825.089	27032
825.228	27051
825.368	26750
825.508	26838
825.648	26777
825.787	26971
825.927	26937
826.067	26823
826.206	26804
826.346	26902
826.485	26975
826.625	26621
826.765	27028
826.904	26861
827.044	26598
827.183	26583
827.323	26552
827.462	26568
827.601	26625
827.741	26575
827.88	26571
828.02	26473
828.159	26644
828.298	26632
828.437	26621
828.577	26320
828.716	26552
828.855	26503
828.994	26438
829.134	26199
829.273	26339
829.412	26168
829.551	26119
829.69	26195
829.829	26275
829.968	26275
830.107	26233
830.246	26157
830.385	26092
830.524	26161
830.663	26069
830.802	25890
830.941	25795
831.08	25738
831.219	25887
831.357	25928
831.496	26119
831.635	25932
831.774	25814
831.913	25700
832.051	25734
832.19	25666
832.329	25575
832.467	25533
832.606	25362
832.744	25529
832.883	25632
833.022	25544
833.16	25472
833.299	25609
833.437	25460
833.576	25609
833.714	25495
833.852	25616
833.991	25639
834.129	25521
834.267	25723
834.406	25655
834.544	25578
834.682	25601
834.821	25483
834.959	25734
835.097	25552
835.235	25453
835.373	25582
835.511	25563
835.65	25331
835.788	25453
835.926	25316
836.064	25114
836.202	25228
836.34	25304
836.478	25426
836.615	25449
836.753	25381
836.891	25552
837.029	25453
837.167	25327
837.305	25415
837.443	25274
837.58	25209
837.718	25327
837.856	25278
837.993	25122
838.131	25217
838.269	25088
838.406	25099
838.544	25126
838.681	24852
838.819	24901
838.956	24578
839.094	24734
839.231	24593
839.369	24909
839.506	25103
839.643	25008
839.781	24753
839.918	24650
840.055	24696
840.193	24658
840.33	24616
840.467	24673
840.604	24661
840.742	24829
840.879	24350
841.016	24502
841.153	24585
841.29	24692
841.427	24540
841.564	24665
841.701	24525
841.838	24479
841.975	24566
842.112	24578
842.249	24395
842.385	24327
842.522	24513
842.659	24494
842.796	24467
842.933	24357
843.069	24285
843.206	24273
843.343	24388
843.479	24448
843.616	24369
843.752	24068
843.889	24110
844.025	24163
844.162	24079
844.298	24174
844.435	24121
844.571	24057
844.708	24190
844.844	24258
844.98	24251
845.117	24190
845.253	24129
845.389	23885
845.525	23992
845.661	23969
845.798	23863
845.934	23870
846.07	23847
846.206	23824
846.342	23973
846.478	23642
846.614	23684
846.75	23433
846.886	23459
847.022	23661
847.158	23573
847.294	23509
847.429	23608
847.565	23589
847.701	23813
847.837	23277
847.972	23258
848.108	23265
848.244	23391
848.379	23170
848.515	23193
848.65	23239
848.786	23132
848.921	23258
849.057	23307
849.192	23239
849.328	23208
849.463	23140
849.598	23037
849.734	22949
849.869	23014
850.004	22976
850.14	22755
850.275	22908
850.41	22828
850.545	22801
850.68	22927
850.815	22961
850.95	22961
851.085	23033
851.22	23033
851.355	22919
851.49	23060
851.625	22869
851.76	22858
851.895	22801
852.03	22904
852.165	22892
852.299	23003
852.434	23067
852.569	22965
852.703	22885
852.838	22873
852.973	23071
853.107	22984
853.242	22797
853.376	22790
853.511	22565
853.645	22691
853.78	22786
853.914	22713
854.048	22687
854.183	22706
854.317	22869
854.451	22965
854.585	22675
854.72	22801
854.854	22850
854.988	22603
855.122	22740
855.256	22561
855.39	22748
855.524	22828
855.658	22725
855.792	22584
855.926	22702
856.06	22748
856.194	22820
856.327	22611
856.461	22740
856.595	22603
856.729	22786
856.862	22733
856.996	22801
857.13	22831
857.263	22778
857.397	22824
857.53	22691
857.664	22698
857.797	22767
857.931	22759
858.064	22721
858.197	22782
858.331	22622
858.464	22653
858.597	22592
858.731	22748
858.864	22778
858.997	22698
859.13	22630
859.263	22847
859.396	22733
859.529	22805
859.662	22725
859.795	22752
859.928	22721
860.061	22877
860.194	22915
860.327	22763
860.46	22778
860.592	22881
860.725	22896
860.858	22816
860.99	22733
861.123	22546
861.256	22767
861.388	22805
861.521	23573
861.653	22698
861.786	22481
861.918	22531
862.05	22588
862.183	22675
862.315	22611
862.447	22824
862.58	22637
862.712	22398
862.844	22341
862.976	22440
863.108	22569
863.24	22961
863.372	22516
863.504	22459
863.636	22436
863.768	22550
863.9	22516
864.032	22295
864.164	22523
864.296	22440
864.428	22557
864.559	22531
864.691	22462
864.823	22592
864.954	22466
865.086	22413
865.217	22478
865.349	22207
865.48	22314
865.612	22398
865.743	22470
865.875	22394
866.006	22363
866.137	22436
866.269	22268
866.4	22390
866.531	22299
866.662	22242
866.793	22230
866.924	22390
867.055	22192
867.186	22390
867.317	22211
867.448	22226
867.579	22276
867.71	22261
867.841	22051
867.972	22382
868.103	22154
868.233	22360
868.364	22348
868.495	22405
868.625	22557
868.756	22637
868.886	22413
869.017	22607
869.147	22550
869.278	22596
869.408	22569
869.539	22455
869.669	22508
869.799	22592
869.929	22634
870.06	22584
870.19	22847
870.32	22885
870.45	22854
870.58	22938
870.71	23044
870.84	22987
870.97	22862
871.1	22957
871.23	23136
871.36	23151
871.489	22972
871.619	23025
871.749	23029
871.879	23090
872.008	23280
872.138	23181
872.267	22991
872.397	22999
872.526	22831
872.656	22984
872.785	22919
872.915	23174
873.044	23265
873.173	23117
873.303	23208
873.432	23208
873.561	23265
873.69	23132
873.819	23124
873.948	23337
874.077	23151
874.206	23128
874.335	23094
874.464	23174
874.593	23402
874.722	23330
874.851	23440
874.979	23383
875.108	23296
875.237	23299
875.365	23162
875.494	23330
875.623	23433
875.751	23318
875.88	23417
876.008	23452
876.136	23490
876.265	23714
876.393	23843
876.521	23817
876.65	23771
876.778	23863
876.906	23551
877.034	23596
877.162	23687
877.29	23703
877.418	23802
877.546	23714
877.674	23691
877.802	23687
877.93	23680
878.058	23661
878.185	23589
878.313	23668
878.441	23623
878.568	23417
878.696	23455
878.824	23661
878.951	23729
879.079	23859
879.206	23954
879.333	23836
879.461	23672
879.588	23767
879.715	23752
879.842	23927
879.97	23718
880.097	23478
880.224	23410
880.351	23493
880.478	23547
880.605	23547
880.732	23391
880.859	23775
880.986	23497
881.112	23619
881.239	23391
881.366	23147
881.493	23124
881.619	23037
881.746	23140
881.872	23105
881.999	22961
882.125	22927
882.252	23128
882.378	23014
882.505	23208
882.631	22824
882.757	22797
882.883	22782
883.01	22713
883.136	22554
883.262	22557
883.388	22607
883.514	22645
883.64	22702
883.766	22630
883.892	22538
884.018	22489
884.143	22584
884.269	22603
884.395	22375
884.52	22325
884.646	22481
884.772	22242
884.897	22303
885.023	22303
885.148	22500
885.274	22485
885.399	22379
885.524	22402
885.65	22379
885.775	22398
885.9	22337
886.025	22455
886.15	22462
886.275	22314
886.4	22348
886.525	22272
886.65	22276
886.775	22386
886.9	22478
887.025	22470
887.149	22257
887.274	22139
887.399	22166
887.523	22093
887.648	22055
887.773	22090
887.897	22215
888.021	22105
888.146	22074
888.27	22147
888.395	22188
888.519	22173
888.643	22219
888.767	22150
888.891	21975
889.015	21968
889.139	21915
889.263	21865
889.387	21979
889.511	22124
889.635	22010
889.759	21964
889.883	21774
890.006	21915
890.13	22055
890.254	21819
890.377	21755
890.501	21610
890.624	21618
890.748	21610
890.871	21618
890.995	21412
891.118	21450
891.241	21428
891.364	21310
891.488	21526
891.611	21462
891.734	21477
891.857	21534
891.98	21542
892.103	21500
892.226	21439
892.349	21325
892.471	21142
892.594	21389
892.717	21306
892.839	21317
892.962	21332
893.085	21340
893.207	21306
893.33	21188
893.452	21279
893.575	21492
893.697	21351
893.819	21545
893.941	21557
894.064	21340
894.186	21317
894.308	21249
894.43	21416
894.552	21473
894.674	21622
894.796	21252
894.918	21203
895.04	21233
895.161	21340
895.283	21393
895.405	21367
895.526	21287
895.648	21279
895.769	21359
895.891	21294
896.012	21291
896.134	21393
896.255	21382
896.376	21272
896.498	21332
896.619	21359
896.74	21226
896.861	21428
896.982	21644
897.103	21641
897.224	21519
897.345	21538
897.466	21329
897.587	21656
897.708	21622
897.828	21492
897.949	21458
898.07	21252
898.19	21397
898.311	21564
898.431	21382
898.552	21500
898.672	21701
898.792	21530
898.913	21599
899.033	21336
899.153	21397
899.273	21169
899.393	21256
899.513	21306
899.633	21313
899.753	21291
899.873	21218
899.993	21176
900.113	21279
900.232	21222
900.352	21135
900.472	21039
900.591	20933
900.711	20967
900.83	20906
900.95	21058
901.069	21047
901.189	20872
901.308	20689
901.427	20594
901.546	20670
901.665	20575
901.784	20522
901.904	20370
902.023	20225
902.141	20199
902.26	20043
902.379	20138
902.498	20149
902.617	20035
902.735	20161
902.854	20100
902.973	19906
903.091	19613
903.21	19719
903.328	19670
903.446	19609
903.565	19514
903.683	19597
903.801	19396
903.919	19369
904.038	19396
904.156	19297
904.274	19343
904.392	19213
904.51	19247
904.627	19285
904.745	19232
904.863	19266
904.981	19126
905.098	18875
905.216	18943
905.334	19004
905.451	18977
905.569	18829
905.686	18852
905.803	18916
905.921	18642
906.038	18745
906.155	18741
906.272	18593
906.389	18620
906.506	18464
906.623	18517
906.74	18486
906.857	18342
906.974	18361
907.091	18506
907.208	18585
907.324	18445
907.441	18365
907.557	18205
907.674	18194
907.79	18079
907.907	18064
908.023	18213
908.139	18053
908.256	18057
908.372	17977
908.488	17999
908.604	17965
908.72	17756
908.836	17920
908.952	17916
909.068	17745
909.184	17980
909.3	17870
909.415	17904
909.531	17859
909.647	17589
909.762	17581
909.878	17490
909.993	17528
910.108	17463
910.224	17493
910.339	17497
910.454	17467
910.57	17387
910.685	17341
910.8	17505
910.915	17570
911.03	17478
911.145	17147
911.259	17197
911.374	17136
911.489	17102
911.604	17014
911.718	16942
911.833	16942
911.947	16744
912.062	16748
912.176	16786
912.291	16847
912.405	16835
912.519	17052
912.633	17121
912.748	16889
912.862	16831
912.976	16809
913.09	16573
913.204	16668
913.318	16702
913.431	16778
913.545	16801
913.659	16713
913.772	16656
913.886	16527
914	16424
914.113	16546
914.226	16596
914.34	16641
914.453	16341
914.566	16588
914.68	16223
914.793	16337
914.906	16166
915.019	16131
915.132	15968
915.245	15998
915.358	16090
915.47	16074
915.583	16021
915.696	15953
915.809	16188
915.921	16093
916.034	16006
916.146	15968
916.259	15930
916.371	15994
916.483	15888
916.595	15835
916.708	15812
916.82	15774
916.932	15819
917.044	15720
917.156	15812
917.268	15572
917.38	15679
917.491	15603
917.603	15701
917.715	15736
917.826	15755
917.938	15648
918.049	15496
918.161	15572
918.272	15732
918.384	15701
918.495	15622
918.606	15485
918.717	15374
918.828	15408
918.939	15420
919.05	15233
919.161	15393
919.272	15169
919.383	15203
919.494	15386
919.604	15557
919.715	15481
919.826	15214
919.936	15378
920.047	15431
920.157	15431
920.267	15428
920.378	15302
920.488	15294
920.598	15526
920.708	15637
920.818	15450
920.928	15526
921.038	15584
921.148	15568
921.258	15340
921.368	15154
921.477	15047
921.587	15051
921.697	14982
921.806	15051
921.916	14918
922.025	14861
922.134	14712
922.244	14667
922.353	14800
922.462	14655
922.571	14541
922.68	14446
922.789	14339
922.898	14320
923.007	14320
923.116	14374
923.224	14240
923.333	14309
923.442	14134
923.55	14092
923.659	14248
923.767	14206
923.876	14100
923.984	14138
924.092	14046
924.201	14073
924.309	14084
924.417	14119
924.525	13955
924.633	13997
924.741	14902
924.849	13845
924.956	13875
925.064	13677
925.172	13628
925.279	13723
925.387	13616
925.494	13727
925.602	13833
925.709	13788
925.816	13563
925.924	13693
926.031	13700
926.138	13643
926.245	13605
926.352	13582
926.459	13620
926.566	13613
926.673	13639
926.779	13434
926.886	13445
926.993	13312
927.099	13282
927.206	13221
927.312	13194
927.419	13331
927.525	13255
927.631	13247
927.737	13171
927.843	13080
927.95	12954
928.056	13137
928.162	13099
928.267	13126
928.373	13670
928.479	13114
928.585	13042
928.69	12985
928.796	13012
928.901	12878
929.007	12802
929.112	12901
929.218	12890
929.323	12802
929.428	12791
929.533	12867
929.638	12623
929.743	12856
929.848	12779
929.953	12654
930.058	12665
930.163	12509
930.267	12422
930.372	12570
930.477	12414
930.581	12498
930.685	12525
930.79	12289
930.894	12380
930.998	12342
931.103	12494
931.207	12019
931.311	11908
931.415	11908
931.519	11710
931.623	11585
