Data from test_V78500241_573.txt Node
Date: Fri Mar 25 15:45:46 CST 2022
User: usil
Spectrometer: V785-0024
Trigger mode: 0
Integration Time (sec): 4.000000E-1
Scans to average: 1
Nonlinearity correction enabled: false
Boxcar width: 0
Storing dark spectrum: false
XAxis mode: Wavelengths
Number of Pixels in Spectrum: 1024
>>>>>Begin Spectral Data<<<<<
801.071	27637
801.214	27648
801.356	27370
801.499	27230
801.641	27260
801.783	27249
801.926	27260
802.068	27138
802.211	27112
802.353	26933
802.496	26842
802.638	26724
802.78	26819
802.923	26693
803.065	26788
803.208	26842
803.35	26838
803.492	26910
803.635	26982
803.777	26826
803.919	26925
804.061	27287
804.204	27024
804.346	26868
804.488	26933
804.63	26872
804.773	26769
804.915	26914
805.057	27146
805.199	26925
805.341	27154
805.483	27116
805.626	27051
805.768	27001
805.91	27051
806.052	27089
806.194	27165
806.336	27169
806.478	27074
806.62	27100
806.762	27169
806.904	27329
807.046	27675
807.188	27530
807.33	27519
807.472	27667
807.614	27397
807.756	27477
807.898	27431
808.04	27370
808.182	27389
808.324	27427
808.465	27462
808.607	27606
808.749	27743
808.891	27892
809.033	27953
809.174	27922
809.316	27812
809.458	27774
809.6	27835
809.741	27861
809.883	27968
810.025	28006
810.166	28006
810.308	27895
810.45	27945
810.591	27918
810.733	27652
810.875	27755
811.016	27660
811.158	27610
811.299	27827
811.441	27827
811.582	27953
811.724	27785
811.865	27682
812.007	27557
812.148	27603
812.29	27755
812.431	27934
812.573	28086
812.714	28223
812.855	28295
812.997	28440
813.138	28462
813.279	28394
813.421	28200
813.562	28223
813.703	28032
813.845	27907
813.986	27675
814.127	27424
814.268	27420
814.41	27306
814.551	27325
814.692	27473
814.833	27386
814.974	27351
815.115	27275
815.256	27161
815.397	27249
815.539	27245
815.68	27184
815.821	27146
815.962	27207
816.103	27104
816.244	27123
816.385	27051
816.526	27005
816.666	26876
816.807	26720
816.948	26811
817.089	26826
817.23	26609
817.371	26701
817.512	26716
817.653	26731
817.793	26750
817.934	26674
818.075	26739
818.216	26651
818.356	26598
818.497	26552
818.638	26389
818.778	26355
818.919	26480
819.06	26332
819.2	26564
819.341	26549
819.481	26625
819.622	26655
819.762	27096
819.903	27032
820.043	26804
820.184	26739
820.324	26849
820.465	26918
820.605	26796
820.746	26701
820.886	26579
821.026	26663
821.167	26575
821.307	26727
821.447	26670
821.588	26720
821.728	26495
821.868	26320
822.008	26233
822.149	26157
822.289	26016
822.429	25807
822.569	25887
822.709	25723
822.849	25620
822.99	25662
823.13	25586
823.27	25460
823.41	25525
823.55	25312
823.69	25491
823.83	25453
823.97	25308
824.11	25274
824.25	25168
824.389	25278
824.529	25365
824.669	25240
824.809	25422
824.949	25259
825.089	25411
825.228	25381
825.368	25050
825.508	25137
825.648	25076
825.787	25217
825.927	25236
826.067	25103
826.206	25103
826.346	25304
826.485	25137
826.625	25217
826.765	25259
826.904	25324
827.044	24905
827.183	24951
827.323	24810
827.462	24840
827.601	24905
827.741	24916
827.88	24844
828.02	24745
828.159	24935
828.298	24894
828.437	24977
828.577	24821
828.716	24882
828.855	24897
828.994	24578
829.134	24555
829.273	24593
829.412	24509
829.551	24410
829.69	24361
829.829	24623
829.968	24642
830.107	24513
830.246	24540
830.385	24308
830.524	24357
830.663	24319
830.802	24262
830.941	24129
831.08	24034
831.219	24224
831.357	24300
831.496	24361
831.635	24194
831.774	23939
831.913	24125
832.051	23908
832.19	23893
832.329	23977
832.467	23764
832.606	23824
832.744	23741
832.883	23764
833.022	23832
833.16	23786
833.299	23775
833.437	23893
833.576	23863
833.714	23958
833.852	23984
833.991	23980
834.129	23912
834.267	23935
834.406	23870
834.544	23996
834.682	23840
834.821	23878
834.959	24159
835.097	23889
835.235	23771
835.373	23794
835.511	23764
835.65	23684
835.788	23680
835.926	23600
836.064	23455
836.202	23684
836.34	23573
836.478	23855
836.615	23657
836.753	23714
836.891	23866
837.029	23668
837.167	23653
837.305	23592
837.443	23619
837.58	23493
837.718	23547
837.856	23543
837.993	23501
838.131	23581
838.269	23414
838.406	23490
838.544	23421
838.681	23200
838.819	23124
838.956	23041
839.094	22984
839.231	23075
839.369	23117
839.506	23425
839.643	23292
839.781	23121
839.918	22968
840.055	22976
840.193	22957
840.33	22915
840.467	22957
840.604	23033
840.742	23250
840.879	22972
841.016	22904
841.153	22835
841.29	22961
841.427	23041
841.564	22984
841.701	23060
841.838	22919
841.975	22748
842.112	22885
842.249	22797
842.385	22694
842.522	22930
842.659	22805
842.796	22694
842.933	22710
843.069	22687
843.206	22641
843.343	22717
843.479	22752
843.616	22755
843.752	22440
843.889	22432
844.025	22550
844.162	22459
844.298	22611
844.435	22341
844.571	22390
844.708	22531
844.844	22599
844.98	22649
845.117	22542
845.253	22405
845.389	22200
845.525	22287
845.661	22295
845.798	22139
845.934	22337
846.07	22128
846.206	22363
846.342	22379
846.478	22253
846.614	21895
846.75	21892
846.886	21956
847.022	22029
847.158	21975
847.294	21956
847.429	21895
847.565	21972
847.701	22268
847.837	21561
847.972	21610
848.108	21797
848.244	21778
848.379	21485
848.515	21549
848.65	21530
848.786	21542
848.921	21568
849.057	21511
849.192	21682
849.328	21656
849.463	21667
849.598	21557
849.734	21408
849.869	21405
850.004	21332
850.14	21329
850.275	21313
850.41	21203
850.545	21218
850.68	21211
850.815	21306
850.95	21386
851.085	21576
851.22	21416
851.355	21340
851.49	21291
851.625	21264
851.76	21348
851.895	21195
852.03	21226
852.165	21252
852.299	21367
852.434	21363
852.569	21203
852.703	21310
852.838	21313
852.973	21431
853.107	21408
853.242	21157
853.376	21154
853.511	21047
853.645	21009
853.78	21370
853.914	21351
854.048	21127
854.183	21211
854.317	21180
854.451	21336
854.585	21108
854.72	21233
854.854	21291
854.988	21180
855.122	21096
855.256	21009
855.39	21146
855.524	21146
855.658	21184
855.792	21116
855.926	21222
856.06	21161
856.194	21195
856.327	21127
856.461	21089
856.595	21020
856.729	21138
856.862	21146
856.996	21291
857.13	21150
857.263	21298
857.397	21207
857.53	21093
857.664	21169
857.797	21226
857.931	21317
858.064	21180
858.197	21211
858.331	21062
858.464	21131
858.597	21066
858.731	21131
858.864	21093
858.997	20998
859.13	21233
859.263	21074
859.396	21195
859.529	21093
859.662	21085
859.795	21024
859.928	21161
860.061	21195
860.194	21317
860.327	21104
860.46	21180
860.592	21260
860.725	21291
860.858	21218
860.99	21123
861.123	21108
861.256	21096
861.388	21203
861.521	21759
861.653	21024
861.786	20861
861.918	20933
862.05	20990
862.183	21062
862.315	21104
862.447	21138
862.58	20971
862.712	20956
862.844	20807
862.976	21062
863.108	20994
863.24	21306
863.372	20762
863.504	20842
863.636	20918
863.768	20823
863.9	20929
864.032	20765
864.164	20796
864.296	20807
864.428	20960
864.559	20891
864.691	20944
864.823	20777
864.954	20902
865.086	20834
865.217	20773
865.349	20743
865.48	20788
865.612	20845
865.743	20849
865.875	20834
866.006	20667
866.137	20629
866.269	20804
866.4	20697
866.531	20659
866.662	20598
866.793	20701
866.924	20629
867.055	20617
867.186	20629
867.317	20686
867.448	20689
867.579	20629
867.71	20526
867.841	20678
867.972	20697
868.103	20796
868.233	20712
868.364	20617
868.495	20682
868.625	20872
868.756	20998
868.886	20861
869.017	20811
869.147	20998
869.278	21017
869.408	20937
869.539	20937
869.669	21085
869.799	20941
869.929	20998
870.06	21100
870.19	21279
870.32	21131
870.45	21325
870.58	21351
870.71	21408
870.84	21367
870.97	21351
871.1	21294
871.23	21408
871.36	21462
871.489	21359
871.619	21564
871.749	21500
871.879	21671
872.008	21591
872.138	21485
872.267	21458
872.397	21542
872.526	21477
872.656	21245
872.785	21329
872.915	21420
873.044	21545
873.173	21500
873.303	21561
873.432	21610
873.561	21614
873.69	21625
873.819	21583
873.948	21694
874.077	21557
874.206	21439
874.335	21526
874.464	21629
874.593	21759
874.722	21739
874.851	21861
874.979	21743
875.108	21812
875.237	21713
875.365	21728
875.494	21728
875.623	21785
875.751	21599
875.88	21865
876.008	21785
876.136	22051
876.265	22177
876.393	22200
876.521	22177
876.65	22150
876.778	22223
876.906	22154
877.034	22200
877.162	22147
877.29	22055
877.418	22101
877.546	22143
877.674	22116
877.802	22097
877.93	22067
878.058	22070
878.185	22006
878.313	21998
878.441	22051
878.568	21994
878.696	22067
878.824	22116
878.951	22181
879.079	22348
879.206	22360
879.333	22219
879.461	22135
879.588	22265
879.715	22421
879.842	22402
879.97	22131
880.097	21934
880.224	21941
880.351	22070
880.478	21934
880.605	21819
880.732	21876
880.859	22226
880.986	21964
881.112	22021
881.239	21823
881.366	21751
881.493	21488
881.619	21534
881.746	21549
881.872	21488
881.999	21485
882.125	21469
882.252	21466
882.378	21431
882.505	21519
882.631	21408
882.757	21218
882.883	21207
883.01	21207
883.136	21093
883.262	21096
883.388	21036
883.514	21211
883.64	21245
883.766	21294
883.892	20967
884.018	21013
884.143	21154
884.269	21188
884.395	20948
884.52	20769
884.646	20948
884.772	20849
884.897	20655
885.023	20944
885.148	20948
885.274	21096
885.399	20887
885.524	20925
885.65	20979
885.775	20960
885.9	20899
886.025	21005
886.15	21085
886.275	20697
886.4	20754
886.525	20682
886.65	20804
886.775	20876
886.9	20800
887.025	21100
887.149	20762
887.274	20693
887.399	20609
887.523	20613
887.648	20571
887.773	20598
887.897	20754
888.021	20708
888.146	20495
888.27	20602
888.395	20788
888.519	20621
888.643	20636
888.767	20693
888.891	20499
889.015	20473
889.139	20431
889.263	20442
889.387	20374
889.511	20640
889.635	20408
889.759	20537
889.883	20358
890.006	20556
890.13	20473
890.254	20309
890.377	20347
890.501	20233
890.624	20161
890.748	20218
890.871	20100
890.995	19947
891.118	19951
891.241	20027
891.364	19906
891.488	20233
891.611	20008
891.734	20050
891.857	20027
891.98	20043
892.103	20012
892.226	19997
892.349	19890
892.471	19780
892.594	19970
892.717	19963
892.839	19887
892.962	19860
893.085	19913
893.207	19932
893.33	19757
893.452	19799
893.575	19993
893.697	19875
893.819	20031
893.941	20119
894.064	20092
894.186	19883
894.308	19780
894.43	19944
894.552	20016
894.674	20005
894.796	19833
894.918	19822
895.04	19849
895.161	19856
895.283	19989
895.405	19883
895.526	19871
895.648	19841
895.769	19944
895.891	19959
896.012	20100
896.134	20020
896.255	19871
896.376	19852
896.498	19932
896.619	19898
896.74	20046
896.861	19993
896.982	20305
897.103	20328
897.224	20145
897.345	20130
897.466	20122
897.587	20317
897.708	20275
897.828	20259
897.949	20039
898.07	20005
898.19	20100
898.311	20161
898.431	20008
898.552	20164
898.672	20142
898.792	20058
898.913	20218
899.033	20084
899.153	19989
899.273	19830
899.393	19909
899.513	19921
899.633	19921
899.753	19993
899.873	19913
899.993	19913
900.113	19871
900.232	19860
900.352	19833
900.472	19639
900.591	19609
900.711	19723
900.83	19594
900.95	19708
901.069	19734
901.189	19594
901.308	19270
901.427	19293
901.546	19240
901.665	19324
901.784	19255
901.904	19225
902.023	19080
902.141	18859
902.26	18837
902.379	18848
902.498	18817
902.617	18726
902.735	18806
902.854	18798
902.973	18665
903.091	18452
903.21	18517
903.328	18441
903.446	18376
903.565	18228
903.683	18353
903.801	18079
903.919	18228
904.038	18114
904.156	17980
904.274	18083
904.392	18038
904.51	18015
904.627	17999
904.745	18087
904.863	18102
904.981	17836
905.098	17596
905.216	17672
905.334	17764
905.451	17737
905.569	17695
905.686	17863
905.803	17619
905.921	17372
906.038	17562
906.155	17497
906.272	17421
906.389	17383
906.506	17258
906.623	17223
906.74	17296
906.857	17128
906.974	17147
907.091	17258
907.208	17402
907.324	17227
907.441	17102
907.557	16991
907.674	16949
907.79	16839
907.907	16877
908.023	16930
908.139	17067
908.256	16885
908.372	16900
908.488	16797
908.604	16679
908.72	16626
908.836	16634
908.952	16641
909.068	16721
909.184	16744
909.3	16687
909.415	16706
909.531	16626
909.647	16485
909.762	16352
909.878	16325
909.993	16394
910.108	16440
910.224	16333
910.339	16280
910.454	16207
910.57	16257
910.685	16013
910.8	16485
910.915	16318
911.03	16120
911.145	15956
911.259	15979
911.374	15991
911.489	15918
911.604	15918
911.718	15717
911.833	15728
911.947	15675
912.062	15599
912.176	15797
912.291	15770
912.405	15724
912.519	15850
912.633	15880
912.748	15610
912.862	15747
912.976	15599
913.09	15336
913.204	15568
913.318	15538
913.431	15584
913.545	15599
913.659	15549
913.772	15496
913.886	15405
914	15332
914.113	15412
914.226	15523
914.34	15340
914.453	15321
914.566	15374
914.68	15302
914.793	15207
914.906	15093
915.019	14849
915.132	14906
915.245	14944
915.358	15013
915.47	14948
915.583	14830
915.696	14994
915.809	15116
915.921	15112
916.034	14819
916.146	14838
916.259	14876
916.371	14990
916.483	14876
916.595	14826
916.708	14826
916.82	14743
916.932	14724
917.044	14720
917.156	14769
917.268	14602
917.38	14602
917.491	14587
917.603	14590
917.715	14735
917.826	14788
917.938	14632
918.049	14518
918.161	14541
918.272	14750
918.384	14617
918.495	14701
918.606	14492
918.717	14218
918.828	14389
918.939	14389
919.05	14267
919.161	14278
919.272	14130
919.383	14252
919.494	14396
919.604	14537
919.715	14457
919.826	14324
919.936	14377
920.047	14446
920.157	14351
920.267	14469
920.378	14362
920.488	14366
920.598	14503
920.708	14735
920.818	14454
920.928	14461
921.038	14632
921.148	14663
921.258	14320
921.368	14168
921.477	14153
921.587	14172
921.697	13944
921.806	14073
921.916	13871
922.025	13765
922.134	13750
922.244	13639
922.353	13807
922.462	13696
922.571	13571
922.68	13392
922.789	13346
922.898	13350
923.007	13278
923.116	13396
923.224	13403
923.333	13434
923.442	13194
923.55	13213
923.659	13247
923.767	13335
923.876	13175
923.984	13152
924.092	13099
924.201	13057
924.309	13168
924.417	13175
924.525	13046
924.633	13046
924.741	14039
924.849	12806
924.956	13084
925.064	12844
925.172	12757
925.279	12833
925.387	12859
925.494	12871
925.602	12878
925.709	12810
925.816	12795
925.924	12810
926.031	12772
926.138	12715
926.245	12821
926.352	12555
926.459	12700
926.566	12768
926.673	12669
926.779	12486
926.886	12528
926.993	12369
927.099	12323
927.206	12327
927.312	12338
927.419	12433
927.525	12327
927.631	12376
927.737	12186
927.843	12175
927.95	12034
928.056	12167
928.162	12243
928.267	12216
928.373	12947
928.479	12289
928.585	12019
928.69	12251
928.796	12247
928.901	12068
929.007	11908
929.112	12098
929.218	12068
929.323	11984
929.428	12003
929.533	12095
929.638	11908
929.743	11882
929.848	11977
929.953	11923
930.058	11817
930.163	11611
930.267	11646
930.372	11832
930.477	11547
930.581	11847
930.685	11592
930.79	11596
930.894	11516
930.998	11501
931.103	11657
931.207	11250
931.311	11197
931.415	11121
931.519	10930
931.623	10892
