Data from test_V78500241_421.txt Node
Date: Fri Mar 25 15:44:43 CST 2022
User: usil
Spectrometer: V785-0024
Trigger mode: 0
Integration Time (sec): 4.000000E-1
Scans to average: 1
Nonlinearity correction enabled: false
Boxcar width: 0
Storing dark spectrum: false
XAxis mode: Wavelengths
Number of Pixels in Spectrum: 1024
>>>>>Begin Spectral Data<<<<<
801.071	29402
801.214	29204
801.356	29006
801.499	28946
801.641	28675
801.783	28831
801.926	28900
802.068	28942
802.211	28771
802.353	28771
802.496	28596
802.638	28561
802.78	28542
802.923	28497
803.065	28512
803.208	28462
803.35	28618
803.492	28580
803.635	28687
803.777	28653
803.919	28596
804.061	28953
804.204	28744
804.346	28717
804.488	28592
804.63	28797
804.773	28634
804.915	28653
805.057	28843
805.199	28592
805.341	28820
805.483	28957
805.626	28866
805.768	28771
805.91	28771
806.052	28843
806.194	29048
806.336	29018
806.478	28866
806.62	28729
806.762	28987
806.904	29277
807.046	29288
807.188	29140
807.33	29231
807.472	29349
807.614	29193
807.756	29280
807.898	29109
808.04	28987
808.182	29060
808.324	29151
808.465	29140
808.607	29387
808.749	29341
808.891	29592
809.033	29710
809.174	29524
809.316	29551
809.458	29573
809.6	29459
809.741	29608
809.883	29444
810.025	29608
810.166	29798
810.308	29767
810.45	29878
810.591	29726
810.733	29665
810.875	29402
811.016	29395
811.158	29440
811.299	29615
811.441	29627
811.582	29649
811.724	29356
811.865	29398
812.007	29509
812.148	29524
812.29	29718
812.431	29589
812.573	29817
812.714	30095
812.855	29992
812.997	30152
813.138	30273
813.279	30129
813.421	29946
813.562	29996
813.703	29862
813.845	29817
813.986	29414
814.127	29223
814.268	29200
814.41	29208
814.551	29064
814.692	29307
814.833	29200
814.974	29109
815.115	29113
815.256	28980
815.397	29044
815.539	29083
815.68	29109
815.821	28839
815.962	28980
816.103	28771
816.244	28900
816.385	28847
816.526	28752
816.666	28596
816.807	28398
816.948	28615
817.089	28584
817.23	28580
817.371	28599
817.512	28443
817.653	28367
817.793	28432
817.934	28280
818.075	28413
818.216	28382
818.356	28535
818.497	28352
818.638	28192
818.778	28215
818.919	28219
819.06	28173
819.2	28177
819.341	28417
819.481	28421
819.622	28527
819.762	28786
819.903	28702
820.043	28645
820.184	28554
820.324	28618
820.465	28489
820.605	28550
820.746	28611
820.886	28207
821.026	28493
821.167	28527
821.307	28504
821.447	28470
821.588	28337
821.728	28333
821.868	28143
822.008	27895
822.149	27819
822.289	27759
822.429	27564
822.569	27599
822.709	27485
822.849	27306
822.99	27462
823.13	27351
823.27	27287
823.41	27093
823.55	27100
823.69	27108
823.83	27203
823.97	26975
824.11	26975
824.25	26845
824.389	26952
824.529	27131
824.669	26960
824.809	27123
824.949	27138
825.089	27070
825.228	27154
825.368	26845
825.508	26792
825.648	26944
825.787	26948
825.927	26834
826.067	26788
826.206	26746
826.346	26845
826.485	26891
826.625	26686
826.765	26921
826.904	26796
827.044	26480
827.183	26568
827.323	26446
827.462	26625
827.601	26617
827.741	26469
827.88	26541
828.02	26393
828.159	26579
828.298	26606
828.437	26499
828.577	26324
828.716	26587
828.855	26412
828.994	26176
829.134	26252
829.273	26252
829.412	26069
829.551	26176
829.69	26237
829.829	26240
829.968	26126
830.107	26199
830.246	26187
830.385	26062
830.524	25989
830.663	25932
830.802	25837
830.941	25807
831.08	25708
831.219	25837
831.357	25731
831.496	25913
831.635	25856
831.774	25727
831.913	25586
832.051	25529
832.19	25571
832.329	25457
832.467	25457
832.606	25384
832.744	25415
832.883	25438
833.022	25312
833.16	25533
833.299	25392
833.437	25369
833.576	25544
833.714	25457
833.852	25487
833.991	25616
834.129	25552
834.267	25464
834.406	25369
834.544	25483
834.682	25411
834.821	25453
834.959	25518
835.097	25289
835.235	25506
835.373	25381
835.511	25381
835.65	25304
835.788	25141
835.926	25240
836.064	25019
836.202	25061
836.34	25236
836.478	25202
836.615	25107
836.753	25240
836.891	25274
837.029	25206
837.167	25217
837.305	25137
837.443	25122
837.58	24981
837.718	25050
837.856	25160
837.993	24947
838.131	25061
838.269	24882
838.406	25034
838.544	24852
838.681	24798
838.819	24806
838.956	24559
839.094	24479
839.231	24608
839.369	24707
839.506	24810
839.643	24719
839.781	24505
839.918	24502
840.055	24467
840.193	24376
840.33	24407
840.467	24384
840.604	24445
840.742	24719
840.879	24426
841.016	24372
841.153	24357
841.29	24513
841.427	24361
841.564	24304
841.701	24380
841.838	24270
841.975	24186
842.112	24266
842.249	24163
842.385	24220
842.522	24308
842.659	24194
842.796	24041
842.933	24064
843.069	24064
843.206	24034
843.343	24197
843.479	24110
843.616	24209
843.752	23931
843.889	23889
844.025	23992
844.162	23912
844.298	24064
844.435	23798
844.571	23783
844.708	23859
844.844	23870
844.98	24057
845.117	23939
845.253	23863
845.389	23661
845.525	23722
845.661	23855
845.798	23600
845.934	23691
846.07	23604
846.206	23653
846.342	23547
846.478	23573
846.614	23334
846.75	23212
846.886	23322
847.022	23414
847.158	23280
847.294	23330
847.429	23379
847.565	23204
847.701	23554
847.837	23056
847.972	22930
848.108	23102
848.244	23060
848.379	22976
848.515	22930
848.65	22839
848.786	22976
848.921	22839
849.057	22972
849.192	22934
849.328	22873
849.463	22866
849.598	22831
849.734	22793
849.869	22630
850.004	22561
850.14	22481
850.275	22622
850.41	22455
850.545	22603
850.68	22417
850.815	22622
850.95	22622
851.085	22805
851.22	22786
851.355	22626
851.49	22641
851.625	22546
851.76	22504
851.895	22531
852.03	22622
852.165	22599
852.299	22679
852.434	22573
852.569	22660
852.703	22618
852.838	22698
852.973	22679
853.107	22801
853.242	22546
853.376	22489
853.511	22291
853.645	22303
853.78	22538
853.914	22337
854.048	22443
854.183	22474
854.317	22428
854.451	22527
854.585	22341
854.72	22432
854.854	22550
854.988	22390
855.122	22394
855.256	22314
855.39	22481
855.524	22367
855.658	22618
855.792	22478
855.926	22409
856.06	22394
856.194	22493
856.327	22417
856.461	22333
856.595	22341
856.729	22341
856.862	22519
856.996	22417
857.13	22462
857.263	22478
857.397	22607
857.53	22402
857.664	22485
857.797	22462
857.931	22538
858.064	22550
858.197	22481
858.331	22451
858.464	22352
858.597	22230
858.731	22379
858.864	22310
858.997	22325
859.13	22451
859.263	22386
859.396	22500
859.529	22375
859.662	22386
859.795	22371
859.928	22303
860.061	22542
860.194	22649
860.327	22478
860.46	22451
860.592	22577
860.725	22550
860.858	22489
860.99	22424
861.123	22333
861.256	22322
861.388	22500
861.521	22885
861.653	22360
861.786	22139
861.918	22207
862.05	22306
862.183	22299
862.315	22417
862.447	22375
862.58	22223
862.712	22150
862.844	22120
862.976	22093
863.108	22226
863.24	22565
863.372	22032
863.504	22131
863.636	22055
863.768	22105
863.9	22158
864.032	22128
864.164	22093
864.296	22124
864.428	22166
864.559	22112
864.691	22177
864.823	22051
864.954	22013
865.086	21964
865.217	21968
865.349	21934
865.48	21907
865.612	21975
865.743	22105
865.875	22040
866.006	21903
866.137	21953
866.269	22112
866.4	21941
866.531	21842
866.662	21819
866.793	21922
866.924	21797
867.055	21930
867.186	21850
867.317	21850
867.448	21781
867.579	21831
867.71	21854
867.841	21911
867.972	21880
868.103	21857
868.233	21987
868.364	21812
868.495	21934
868.625	22063
868.756	22299
868.886	22101
869.017	22158
869.147	22196
869.278	22261
869.408	22226
869.539	22112
869.669	22093
869.799	22135
869.929	22177
870.06	22261
870.19	22500
870.32	22417
870.45	22363
870.58	22402
870.71	22634
870.84	22531
870.97	22535
871.1	22569
871.23	22546
871.36	22535
871.489	22599
871.619	22607
871.749	22717
871.879	22721
872.008	22847
872.138	22615
872.267	22615
872.397	22523
872.526	22611
872.656	22500
872.785	22451
872.915	22801
873.044	22702
873.173	22782
873.303	22767
873.432	22767
873.561	22892
873.69	22801
873.819	22759
873.948	22843
874.077	22759
874.206	22748
874.335	22713
874.464	22919
874.593	23060
874.722	22850
874.851	22946
874.979	23003
875.108	23094
875.237	22835
875.365	22854
875.494	22873
875.623	22892
875.751	22786
875.88	22938
876.008	23155
876.136	23162
876.265	23440
876.393	23448
876.521	23353
876.65	23440
876.778	23398
876.906	23269
877.034	23269
877.162	23273
877.29	23265
877.418	23311
877.546	23250
877.674	23280
877.802	23223
877.93	23235
878.058	23200
878.185	23269
878.313	23284
878.441	23296
878.568	23018
878.696	23235
878.824	23284
878.951	23414
879.079	23421
879.206	23627
879.333	23398
879.461	23395
879.588	23425
879.715	23406
879.842	23551
879.97	23265
880.097	23121
880.224	23102
880.351	23086
880.478	23064
880.605	23067
880.732	22995
880.859	23212
880.986	23136
881.112	23204
881.239	22957
881.366	22934
881.493	22793
881.619	22733
881.746	22733
881.872	22630
881.999	22573
882.125	22637
882.252	22645
882.378	22679
882.505	22710
882.631	22550
882.757	22462
882.883	22481
883.01	22386
883.136	22390
883.262	22306
883.388	22322
883.514	22363
883.64	22356
883.766	22257
883.892	22166
884.018	22188
884.143	22360
884.269	22413
884.395	22105
884.52	22010
884.646	21937
884.772	21934
884.897	21835
885.023	21930
885.148	22059
885.274	22207
885.399	22158
885.524	22002
885.65	22006
885.775	22097
885.9	21873
886.025	22112
886.15	22044
886.275	22036
886.4	21869
886.525	21945
886.65	21941
886.775	21895
886.9	22078
887.025	22215
887.149	22021
887.274	21835
887.399	21591
887.523	21823
887.648	21713
887.773	21549
887.897	21762
888.021	21766
888.146	21739
888.27	21778
888.395	21865
888.519	21682
888.643	21831
888.767	21717
888.891	21663
889.015	21545
889.139	21720
889.263	21458
889.387	21652
889.511	21739
889.635	21606
889.759	21675
889.883	21428
890.006	21454
890.13	21625
890.254	21549
890.377	21450
890.501	21230
890.624	21275
890.748	21306
890.871	21188
890.995	21062
891.118	20952
891.241	21116
891.364	21081
891.488	21112
891.611	21039
891.734	21119
891.857	21207
891.98	21157
892.103	21062
892.226	21058
892.349	21058
892.471	20902
892.594	21043
892.717	21051
892.839	21017
892.962	20937
893.085	21062
893.207	20891
893.33	20849
893.452	20735
893.575	21104
893.697	20891
893.819	21055
893.941	21150
894.064	21077
894.186	20883
894.308	20811
894.43	21017
894.552	21085
894.674	20994
894.796	20891
894.918	20925
895.04	20891
895.161	21066
895.283	20990
895.405	20910
895.526	20998
895.648	20948
895.769	21066
895.891	20929
896.012	21074
896.134	21028
896.255	20880
896.376	20925
896.498	20994
896.619	21039
896.74	20845
896.861	21077
896.982	21397
897.103	21431
897.224	21211
897.345	21252
897.466	21070
897.587	21077
897.708	21313
897.828	21123
897.949	21028
898.07	20872
898.19	21077
898.311	21058
898.431	21108
898.552	21233
898.672	21165
898.792	21241
898.913	21138
899.033	21036
899.153	21001
899.273	20834
899.393	20746
899.513	20902
899.633	20921
899.753	20887
899.873	20830
899.993	20842
900.113	20781
900.232	20902
900.352	20689
900.472	20762
900.591	20606
900.711	20655
900.83	20530
900.95	20727
901.069	20678
901.189	20613
901.308	20267
901.427	20256
901.546	20161
901.665	20263
901.784	20145
901.904	20008
902.023	20088
902.141	19841
902.26	19712
902.379	19856
902.498	19803
902.617	19632
902.735	19757
902.854	19666
902.973	19632
903.091	19468
903.21	19392
903.328	19449
903.446	19156
903.565	19259
903.683	19141
903.801	19012
903.919	19190
904.038	19126
904.156	18996
904.274	18909
904.392	18795
904.51	18985
904.627	18966
904.745	18935
904.863	18958
904.981	18779
905.098	18627
905.216	18528
905.334	18623
905.451	18703
905.569	18593
905.686	18509
905.803	18559
905.921	18456
906.038	18426
906.155	18365
906.272	18270
906.389	18266
906.506	18072
906.623	18102
906.74	18060
906.857	17920
906.974	17908
907.091	18114
907.208	18266
907.324	18239
907.441	18057
907.557	17897
907.674	17775
907.79	17764
907.907	17760
908.023	17885
908.139	17794
908.256	17646
908.372	17718
908.488	17562
908.604	17493
908.72	17440
908.836	17455
908.952	17455
909.068	17547
909.184	17581
909.3	17566
909.415	17474
909.531	17490
909.647	17284
909.762	17071
909.878	17162
909.993	17136
910.108	17124
910.224	17212
910.339	17121
910.454	17045
910.57	16927
910.685	16889
910.8	17197
910.915	17105
911.03	16984
911.145	16869
911.259	16824
911.374	16797
911.489	16653
911.604	16599
911.718	16504
911.833	16565
911.947	16447
912.062	16417
912.176	16527
912.291	16599
912.405	16607
912.519	16793
912.633	16660
912.748	16558
912.862	16432
912.976	16318
913.09	16234
913.204	16291
913.318	16291
913.431	16318
913.545	16409
913.659	16367
913.772	16249
913.886	16120
914	16063
914.113	16150
914.226	16051
914.34	16055
914.453	16006
914.566	16097
914.68	15949
914.793	16040
914.906	15762
915.019	15728
915.132	15656
915.245	15747
915.358	15743
915.47	15701
915.583	15660
915.696	15709
915.809	15785
915.921	15759
916.034	15625
916.146	15584
916.259	15523
916.371	15656
916.483	15625
916.595	15534
916.708	15424
916.82	15496
916.932	15405
917.044	15477
917.156	15504
917.268	15340
917.38	15447
917.491	15287
917.603	15294
917.715	15294
917.826	15386
917.938	15272
918.049	15184
918.161	15211
918.272	15374
918.384	15329
918.495	15230
918.606	15108
918.717	15009
918.828	15123
918.939	15055
919.05	15058
919.161	14994
919.272	14921
919.383	14868
919.494	14994
919.604	15340
919.715	15047
919.826	15036
919.936	14967
920.047	15017
920.157	15013
920.267	15203
920.378	15001
920.488	14956
920.598	15097
920.708	15256
920.818	15104
920.928	15123
921.038	15226
921.148	15230
921.258	14887
921.368	14785
921.477	14724
921.587	14800
921.697	14530
921.806	14590
921.916	14419
922.025	14408
922.134	14362
922.244	14328
922.353	14389
922.462	14183
922.571	14107
922.68	14039
922.789	13978
922.898	13955
923.007	13947
923.116	14138
923.224	13940
923.333	13947
923.442	13925
923.55	13837
923.659	13803
923.767	13841
923.876	13750
923.984	13814
924.092	13681
924.201	13769
924.309	13681
924.417	13636
924.525	13674
924.633	13586
924.741	14404
924.849	13438
924.956	13590
925.064	13411
925.172	13331
925.279	13384
925.387	13434
925.494	13384
925.602	13472
925.709	13460
925.816	13354
925.924	13415
926.031	13369
926.138	13396
926.245	13350
926.352	13244
926.459	13278
926.566	13377
926.673	13168
926.779	13118
926.886	13084
926.993	12897
927.099	12894
927.206	12878
927.312	12863
927.419	12985
927.525	12954
927.631	12958
927.737	12814
927.843	12814
927.95	12635
928.056	12741
928.162	12730
928.267	12749
928.373	13350
928.479	12890
928.585	12502
928.69	12665
928.796	12745
928.901	12669
929.007	12361
929.112	12604
929.218	12525
929.323	12525
929.428	12426
929.533	12601
929.638	12285
929.743	12353
929.848	12441
929.953	12372
930.058	12289
930.163	12136
930.267	12064
930.372	12209
930.477	12041
930.581	12296
930.685	12201
930.79	11958
930.894	12060
930.998	11969
931.103	12091
931.207	11729
931.311	11733
931.415	11577
931.519	11417
931.623	11299
