Data from test_V78500241_1932.txt Node
Date: Fri Mar 25 15:55:11 CST 2022
User: usil
Spectrometer: V785-0024
Trigger mode: 0
Integration Time (sec): 4.000000E-1
Scans to average: 1
Nonlinearity correction enabled: false
Boxcar width: 0
Storing dark spectrum: false
XAxis mode: Wavelengths
Number of Pixels in Spectrum: 1024
>>>>>Begin Spectral Data<<<<<
801.071	28504
801.214	28424
801.356	28314
801.499	28147
801.641	28059
801.783	28078
801.926	28211
802.068	28002
802.211	28048
802.353	27926
802.496	27804
802.638	27857
802.78	27778
802.923	27766
803.065	27728
803.208	27660
803.35	27778
803.492	27880
803.635	27827
803.777	27934
803.919	27975
804.061	28424
804.204	27907
804.346	27888
804.488	27835
804.63	28017
804.773	27922
804.915	28120
805.057	28021
805.199	28101
805.341	28051
805.483	28215
805.626	28272
805.768	28032
805.91	28204
806.052	28185
806.194	28025
806.336	28382
806.478	28166
806.62	28131
806.762	28341
806.904	28409
807.046	28668
807.188	28577
807.33	28557
807.472	28679
807.614	28546
807.756	28508
807.898	28436
808.04	28284
808.182	28432
808.324	28527
808.465	28645
808.607	28694
808.749	28892
808.891	28885
809.033	28991
809.174	29037
809.316	28858
809.458	28744
809.6	28687
809.741	28972
809.883	28942
810.025	29162
810.166	29086
810.308	29132
810.45	28957
810.591	28984
810.733	28888
810.875	28668
811.016	28691
811.158	28733
811.299	28976
811.441	28953
811.582	28953
811.724	28946
811.865	28763
812.007	28949
812.148	28831
812.29	28835
812.431	29124
812.573	29261
812.714	29345
812.855	29227
812.997	29490
813.138	29627
813.279	29414
813.421	29375
813.562	29174
813.703	29155
813.845	29048
813.986	28782
814.127	28615
814.268	28618
814.41	28466
814.551	28474
814.692	28592
814.833	28386
814.974	28580
815.115	28653
815.256	28523
815.397	28367
815.539	28535
815.68	28386
815.821	28196
815.962	28371
816.103	28390
816.244	28185
816.385	28131
816.526	28006
816.666	28040
816.807	27770
816.948	27812
817.089	27956
817.23	27838
817.371	27880
817.512	27827
817.653	27717
817.793	27831
817.934	27899
818.075	27743
818.216	27854
818.356	27747
818.497	27686
818.638	27534
818.778	27614
818.919	27614
819.06	27679
819.2	27739
819.341	27835
819.481	27781
819.622	27850
819.762	28059
819.903	28109
820.043	28059
820.184	27911
820.324	27895
820.465	28051
820.605	27960
820.746	28048
820.886	27675
821.026	27869
821.167	27770
821.307	27987
821.447	27854
821.588	27800
821.728	27606
821.868	27488
822.008	27420
822.149	27386
822.289	27291
822.429	27138
822.569	26990
822.709	27081
822.849	26902
822.99	26769
823.13	26777
823.27	26880
823.41	26617
823.55	26507
823.69	26678
823.83	26511
823.97	26602
824.11	26469
824.25	26431
824.389	26549
824.529	26537
824.669	26503
824.809	26549
824.949	26617
825.089	26659
825.228	26533
825.368	26290
825.508	26294
825.648	26221
825.787	26317
825.927	26431
826.067	26294
826.206	26434
826.346	26431
826.485	26282
826.625	26377
826.765	26427
826.904	26313
827.044	26122
827.183	26050
827.323	26031
827.462	26130
827.601	26016
827.741	26157
827.88	26046
828.02	25936
828.159	26065
828.298	26142
828.437	26096
828.577	25947
828.716	26225
828.855	26096
828.994	25864
829.134	25704
829.273	25742
829.412	25803
829.551	25696
829.69	25712
829.829	25883
829.968	25845
830.107	25757
830.246	25769
830.385	25814
830.524	25655
830.663	25712
830.802	25388
830.941	25320
831.08	25236
831.219	25396
831.357	25316
831.496	25438
831.635	25457
831.774	25289
831.913	25206
832.051	25107
832.19	25061
832.329	25118
832.467	25038
832.606	25008
832.744	24989
832.883	24996
833.022	24833
833.16	25072
833.299	25133
833.437	25107
833.576	25209
833.714	25038
833.852	25057
833.991	25091
834.129	25175
834.267	25038
834.406	25160
834.544	24996
834.682	25114
834.821	24985
834.959	25156
835.097	24878
835.235	25141
835.373	25004
835.511	24867
835.65	25053
835.788	24913
835.926	24806
836.064	24715
836.202	24734
836.34	24829
836.478	24996
836.615	24905
836.753	24897
836.891	25072
837.029	24947
837.167	24837
837.305	24882
837.443	24764
837.58	24719
837.718	24806
837.856	24722
837.993	24604
838.131	24578
838.269	24604
838.406	24738
838.544	24521
838.681	24399
838.819	24399
838.956	24114
839.094	24296
839.231	24296
839.369	24414
839.506	24490
839.643	24292
839.781	24213
839.918	24026
840.055	24159
840.193	24163
840.33	24167
840.467	24125
840.604	24102
840.742	24346
840.879	23984
841.016	24117
841.153	23870
841.29	24235
841.427	24026
841.564	24136
841.701	24007
841.838	24060
841.975	23866
842.112	24045
842.249	23878
842.385	23901
842.522	24117
842.659	23859
842.796	23783
842.933	23840
843.069	23847
843.206	23741
843.343	23817
843.479	23832
843.616	23824
843.752	23779
843.889	23687
844.025	23733
844.162	23528
844.298	23752
844.435	23691
844.571	23535
844.708	23661
844.844	23672
844.98	23775
845.117	23775
845.253	23528
845.389	23524
845.525	23570
845.661	23566
845.798	23349
845.934	23455
846.07	23326
846.206	23395
846.342	23497
846.478	23387
846.614	23140
846.75	23079
846.886	22995
847.022	23162
847.158	23231
847.294	23151
847.429	23064
847.565	23117
847.701	23277
847.837	22854
847.972	22828
848.108	22896
848.244	22793
848.379	22740
848.515	22786
848.65	22596
848.786	22782
848.921	22729
849.057	22816
849.192	22668
849.328	22755
849.463	22725
849.598	22649
849.734	22569
849.869	22630
850.004	22466
850.14	22504
850.275	22413
850.41	22367
850.545	22386
850.68	22405
850.815	22432
850.95	22421
851.085	22637
851.22	22489
851.355	22432
851.49	22409
851.625	22352
851.76	22322
851.895	22169
852.03	22447
852.165	22409
852.299	22356
852.434	22462
852.569	22398
852.703	22333
852.838	22512
852.973	22375
853.107	22634
853.242	22390
853.376	22265
853.511	22112
853.645	22185
853.78	22443
853.914	22295
854.048	22112
854.183	22246
854.317	22280
854.451	22470
854.585	22154
854.72	22230
854.854	22257
854.988	22177
855.122	22276
855.256	22154
855.39	22223
855.524	22291
855.658	22272
855.792	22200
855.926	22265
856.06	22257
856.194	22322
856.327	22249
856.461	22196
856.595	22249
856.729	22223
856.862	22329
856.996	22329
857.13	22348
857.263	22462
857.397	22329
857.53	22306
857.664	22299
857.797	22352
857.931	22398
858.064	22299
858.197	22204
858.331	22173
858.464	22147
858.597	22082
858.731	22265
858.864	22196
858.997	22154
859.13	22234
859.263	22337
859.396	22398
859.529	22284
859.662	22280
859.795	22249
859.928	22261
860.061	22428
860.194	22557
860.327	22215
860.46	22306
860.592	22428
860.725	22356
860.858	22341
860.99	22204
861.123	22150
861.256	22147
861.388	22131
861.521	23128
861.653	22059
861.786	22215
861.918	22124
862.05	22166
862.183	22173
862.315	22253
862.447	22257
862.58	22120
862.712	21968
862.844	21907
862.976	22040
863.108	22150
863.24	22375
863.372	21956
863.504	21994
863.636	21899
863.768	22029
863.9	21911
864.032	21880
864.164	21865
864.296	22021
864.428	21983
864.559	22097
864.691	22055
864.823	21850
864.954	21960
865.086	21895
865.217	21884
865.349	21835
865.48	21964
865.612	21816
865.743	21907
865.875	21873
866.006	21827
866.137	21854
866.269	21743
866.4	21846
866.531	21701
866.662	21675
866.793	21747
866.924	21717
867.055	21861
867.186	21686
867.317	21747
867.448	21667
867.579	21835
867.71	21690
867.841	21781
867.972	21724
868.103	21747
868.233	21827
868.364	21690
868.495	21903
868.625	21873
868.756	22048
868.886	21934
869.017	22090
869.147	22074
869.278	22124
869.408	22055
869.539	22086
869.669	21975
869.799	22078
869.929	22158
870.06	22086
870.19	22356
870.32	22394
870.45	22280
870.58	22310
870.71	22569
870.84	22618
870.97	22314
871.1	22440
871.23	22588
871.36	22649
871.489	22531
871.619	22459
871.749	22687
871.879	22607
872.008	22694
872.138	22672
872.267	22573
872.397	22375
872.526	22447
872.656	22428
872.785	22325
872.915	22622
873.044	22561
873.173	22694
873.303	22653
873.432	22668
873.561	22710
873.69	22607
873.819	22725
873.948	22675
874.077	22599
874.206	22634
874.335	22523
874.464	22809
874.593	22904
874.722	22965
874.851	22854
874.979	22729
875.108	22839
875.237	22729
875.365	22698
875.494	22733
875.623	22828
875.751	22858
875.88	22919
876.008	22953
876.136	23098
876.265	23174
876.393	23216
876.521	23212
876.65	23322
876.778	23273
876.906	23178
877.034	23098
877.162	23223
877.29	23041
877.418	23212
877.546	23102
877.674	23147
877.802	23269
877.93	23162
878.058	23067
878.185	23128
878.313	23166
878.441	23227
878.568	23143
878.696	23136
878.824	23185
878.951	23189
879.079	23471
879.206	23433
879.333	23288
879.461	23166
879.588	23235
879.715	23307
879.842	23364
879.97	23223
880.097	22968
880.224	23067
880.351	23086
880.478	22831
880.605	22972
880.732	22987
880.859	23265
880.986	22984
881.112	22843
881.239	22809
881.366	22752
881.493	22630
881.619	22527
881.746	22622
881.872	22675
881.999	22599
882.125	22379
882.252	22504
882.378	22470
882.505	22668
882.631	22497
882.757	22314
882.883	22303
883.01	22188
883.136	22200
883.262	22090
883.388	22090
883.514	22280
883.64	22204
883.766	22150
883.892	21922
884.018	22006
884.143	22154
884.269	22352
884.395	22002
884.52	21941
884.646	21850
884.772	21694
884.897	21800
885.023	21892
885.148	21934
885.274	22010
885.399	21842
885.524	21945
885.65	21857
885.775	21789
885.9	21922
886.025	21991
886.15	21968
886.275	21812
886.4	21656
886.525	21789
886.65	21709
886.775	21755
886.9	21812
887.025	21884
887.149	21819
887.274	21762
887.399	21599
887.523	21652
887.648	21595
887.773	21485
887.897	21583
888.021	21743
888.146	21580
888.27	21736
888.395	21831
888.519	21629
888.643	21682
888.767	21720
888.891	21603
889.015	21367
889.139	21428
889.263	21412
889.387	21466
889.511	21538
889.635	21591
889.759	21458
889.883	21325
890.006	21393
890.13	21530
890.254	21340
890.377	21359
890.501	21070
890.624	21325
890.748	21214
890.871	21119
890.995	20967
891.118	20937
891.241	20906
891.364	20994
891.488	21032
891.611	20880
891.734	21077
891.857	20990
891.98	21013
892.103	21013
892.226	20967
892.349	20823
892.471	20788
892.594	20921
892.717	20994
892.839	20712
892.962	20777
893.085	20914
893.207	20937
893.33	20815
893.452	20880
893.575	20880
893.697	20796
893.819	20921
893.941	20910
894.064	21001
894.186	20788
894.308	20731
894.43	20876
894.552	21070
894.674	20963
894.796	20872
894.918	20777
895.04	20906
895.161	20902
895.283	20857
895.405	20777
895.526	20864
895.648	20788
895.769	20864
895.891	20944
896.012	20952
896.134	20883
896.255	20880
896.376	20918
896.498	20830
896.619	20842
896.74	20861
896.861	20975
896.982	21108
897.103	21249
897.224	21047
897.345	21093
897.466	20986
897.587	21165
897.708	21135
897.828	21154
897.949	20933
898.07	20979
898.19	20899
898.311	21142
898.431	20986
898.552	21127
898.672	21028
898.792	21066
898.913	21013
899.033	20891
899.153	20785
899.273	20746
899.393	20872
899.513	20906
899.633	20724
899.753	20743
899.873	20796
899.993	20830
900.113	20811
900.232	20758
900.352	20788
900.472	20693
900.591	20552
900.711	20549
900.83	20545
900.95	20743
901.069	20674
901.189	20492
901.308	20248
901.427	20107
901.546	20183
901.665	20191
901.784	20065
901.904	20054
902.023	19997
902.141	19662
902.26	19727
902.379	19708
902.498	19601
902.617	19632
902.735	19795
902.854	19734
902.973	19620
903.091	19400
903.21	19346
903.328	19285
903.446	19251
903.565	19240
903.683	19103
903.801	19008
903.919	18989
904.038	19038
904.156	18894
904.274	18909
904.392	18795
904.51	18806
904.627	18814
904.745	18848
904.863	18932
904.981	18566
905.098	18555
905.216	18490
905.334	18544
905.451	18570
905.569	18620
905.686	18464
905.803	18521
905.921	18247
906.038	18456
906.155	18448
906.272	18194
906.389	18167
906.506	18091
906.623	18060
906.74	18133
906.857	17889
906.974	17908
907.091	18060
907.208	18144
907.324	18110
907.441	17980
907.557	17939
907.674	17707
907.79	17813
907.907	17684
908.023	17737
908.139	17710
908.256	17718
908.372	17608
908.488	17668
908.604	17577
908.72	17448
908.836	17478
908.952	17512
909.068	17478
909.184	17482
909.3	17478
909.415	17493
909.531	17474
909.647	17246
909.762	17231
909.878	17155
909.993	17113
910.108	17155
910.224	17193
910.339	17128
910.454	17022
910.57	16957
910.685	16820
910.8	17143
910.915	17181
911.03	16991
911.145	16793
911.259	16721
911.374	16736
911.489	16687
911.604	16664
911.718	16550
911.833	16538
911.947	16485
912.062	16462
912.176	16523
912.291	16599
912.405	16436
912.519	16786
912.633	16607
912.748	16546
912.862	16413
912.976	16497
913.09	16246
913.204	16154
913.318	16291
913.431	16466
913.545	16413
913.659	16379
913.772	16322
913.886	16063
914	16272
914.113	16219
914.226	16268
914.34	16188
914.453	16067
914.566	16131
914.68	15983
914.793	15987
914.906	15778
915.019	15690
915.132	15637
915.245	15705
915.358	15793
915.47	15671
915.583	15675
915.696	15724
915.809	15766
915.921	15903
916.034	15652
916.146	15526
916.259	15511
916.371	15679
916.483	15652
916.595	15481
916.708	15561
916.82	15614
916.932	15477
917.044	15488
917.156	15485
917.268	15287
917.38	15405
917.491	15348
917.603	15329
917.715	15325
917.826	15466
917.938	15302
918.049	15146
918.161	15321
918.272	15397
918.384	15386
918.495	15214
918.606	15047
918.717	15119
918.828	15066
918.939	15123
919.05	14944
919.161	15020
919.272	14834
919.383	14956
919.494	15093
919.604	15188
919.715	15009
919.826	14982
919.936	15032
920.047	15100
920.157	14944
920.267	15203
920.378	15001
920.488	14990
920.598	15245
920.708	15344
920.818	15173
920.928	15157
921.038	15367
921.148	15252
921.258	14948
921.368	14830
921.477	14720
921.587	14693
921.697	14629
921.806	14724
921.916	14651
922.025	14355
922.134	14358
922.244	14351
922.353	14446
922.462	14294
922.571	14298
922.68	14054
922.789	14031
922.898	14016
923.007	13993
923.116	14050
923.224	14062
923.333	13951
923.442	13921
923.55	13974
923.659	13856
923.767	13875
923.876	13814
923.984	13769
924.092	13689
924.201	13761
924.309	13788
924.417	13860
924.525	13662
924.633	13597
924.741	14549
924.849	13434
924.956	13670
925.064	13529
925.172	13411
925.279	13449
925.387	13407
925.494	13419
925.602	13460
925.709	13438
925.816	13289
925.924	13381
926.031	13419
926.138	13335
926.245	13396
926.352	13209
926.459	13324
926.566	13365
926.673	13304
926.779	13122
926.886	13122
926.993	13046
927.099	13034
927.206	12875
927.312	12875
927.419	12970
927.525	12981
927.631	12981
927.737	12939
927.843	12726
927.95	12635
928.056	12753
928.162	12768
928.267	12814
928.373	13415
928.479	12791
928.585	12631
928.69	12741
928.796	12871
928.901	12612
929.007	12502
929.112	12673
929.218	12646
929.323	12570
929.428	12486
929.533	12578
929.638	12422
929.743	12441
929.848	12509
929.953	12490
930.058	12270
930.163	12095
930.267	12152
930.372	12243
930.477	12091
930.581	12346
930.685	12167
930.79	12060
930.894	12117
930.998	11973
931.103	12163
931.207	11748
931.311	11741
931.415	11615
931.519	11474
931.623	11398
