Data from test_V78500241_833.txt Node
Date: Fri Mar 25 15:47:34 CST 2022
User: usil
Spectrometer: V785-0024
Trigger mode: 0
Integration Time (sec): 4.000000E-1
Scans to average: 1
Nonlinearity correction enabled: false
Boxcar width: 0
Storing dark spectrum: false
XAxis mode: Wavelengths
Number of Pixels in Spectrum: 1024
>>>>>Begin Spectral Data<<<<<
801.071	26994
801.214	26944
801.356	26571
801.499	26594
801.641	26313
801.783	26275
801.926	26514
802.068	26484
802.211	26259
802.353	26294
802.496	26134
802.638	26081
802.78	26008
802.923	26092
803.065	25890
803.208	25906
803.35	25974
803.492	26138
803.635	26119
803.777	26210
803.919	26290
804.061	26495
804.204	26202
804.346	26172
804.488	26096
804.63	26119
804.773	26092
804.915	26290
805.057	26355
805.199	26035
805.341	26199
805.483	26419
805.626	26294
805.768	26263
805.91	26313
806.052	26240
806.194	26275
806.336	26324
806.478	26313
806.62	26199
806.762	26473
806.904	26571
807.046	26727
807.188	26670
807.33	26533
807.472	26758
807.614	26575
807.756	26682
807.898	26427
808.04	26507
808.182	26492
808.324	26480
808.465	26465
808.607	26739
808.749	26940
808.891	26921
809.033	27138
809.174	26876
809.316	26952
809.458	26845
809.6	26906
809.741	27039
809.883	27032
810.025	27207
810.166	27211
810.308	27093
810.45	27066
810.591	26929
810.733	26899
810.875	26933
811.016	26819
811.158	26785
811.299	26880
811.441	27074
811.582	27009
811.724	26872
811.865	26750
812.007	26811
812.148	26819
812.29	26853
812.431	27009
812.573	27192
812.714	27256
812.855	27530
812.997	27443
813.138	27637
813.279	27561
813.421	27329
813.562	27302
813.703	27142
813.845	27138
813.986	26804
814.127	26568
814.268	26625
814.41	26583
814.551	26587
814.692	26636
814.833	26461
814.974	26530
815.115	26461
815.256	26396
815.397	26415
815.539	26351
815.68	26347
815.821	26263
815.962	26229
816.103	26317
816.244	26233
816.385	26020
816.526	26130
816.666	25947
816.807	25738
816.948	25887
817.089	25883
817.23	25890
817.371	25826
817.512	25746
817.653	25913
817.793	25715
817.934	25795
818.075	25830
818.216	25799
818.356	25616
818.497	25670
818.638	25624
818.778	25563
818.919	25601
819.06	25616
819.2	25628
819.341	25753
819.481	25643
819.622	25928
819.762	26183
819.903	26024
820.043	25982
820.184	25909
820.324	25993
820.465	26054
820.605	25830
820.746	25955
820.886	25746
821.026	25868
821.167	25966
821.307	25871
821.447	25772
821.588	25666
821.728	25624
821.868	25388
822.008	25263
822.149	25308
822.289	25148
822.429	24844
822.569	24951
822.709	24970
822.849	24810
822.99	24760
823.13	24722
823.27	24894
823.41	24570
823.55	24437
823.69	24612
823.83	24601
823.97	24532
824.11	24232
824.25	24361
824.389	24498
824.529	24452
824.669	24388
824.809	24517
824.949	24330
825.089	24380
825.228	24475
825.368	24270
825.508	24201
825.648	24216
825.787	24315
825.927	24330
826.067	24232
826.206	24174
826.346	24296
826.485	24285
826.625	24262
826.765	24391
826.904	24262
827.044	23916
827.183	23958
827.323	23999
827.462	23927
827.601	23965
827.741	23904
827.88	23961
828.02	23786
828.159	23771
828.298	24022
828.437	24026
828.577	23813
828.716	23984
828.855	23779
828.994	23638
829.134	23596
829.273	23729
829.412	23718
829.551	23611
829.69	23729
829.829	23596
829.968	23805
830.107	23767
830.246	23687
830.385	23528
830.524	23589
830.663	23497
830.802	23368
830.941	23269
831.08	23299
831.219	23360
831.357	23315
831.496	23368
831.635	23353
831.774	23231
831.913	23102
832.051	23094
832.19	23155
832.329	23155
832.467	22927
832.606	22805
832.744	22942
832.883	22934
833.022	22820
833.16	22949
833.299	23025
833.437	22949
833.576	22987
833.714	23064
833.852	23117
833.991	23037
834.129	23166
834.267	23003
834.406	22961
834.544	22995
834.682	23166
834.821	23033
834.959	23166
835.097	22904
835.235	23094
835.373	22961
835.511	23003
835.65	22946
835.788	23010
835.926	22702
836.064	22710
836.202	22706
836.34	22835
836.478	23033
836.615	22820
836.753	22854
836.891	22949
837.029	22927
837.167	22919
837.305	22805
837.443	22691
837.58	22733
837.718	22809
837.856	22653
837.993	22622
838.131	22607
838.269	22641
838.406	22656
838.544	22561
838.681	22348
838.819	22371
838.956	22192
839.094	22318
839.231	22226
839.369	22386
839.506	22588
839.643	22455
839.781	22143
839.918	22120
840.055	22120
840.193	22086
840.33	22177
840.467	22116
840.604	22272
840.742	22405
840.879	22090
841.016	22128
841.153	21945
841.29	22219
841.427	22070
841.564	22154
841.701	22196
841.838	22135
841.975	21934
842.112	22013
842.249	21907
842.385	21945
842.522	22112
842.659	22025
842.796	21888
842.933	21911
843.069	21778
843.206	21679
843.343	21907
843.479	21835
843.616	21911
843.752	21694
843.889	21606
844.025	21751
844.162	21633
844.298	21701
844.435	21675
844.571	21587
844.708	21759
844.844	21762
844.98	21800
845.117	21675
845.253	21629
845.389	21519
845.525	21530
845.661	21466
845.798	21428
845.934	21382
846.07	21275
846.206	21473
846.342	21412
846.478	21344
846.614	21249
846.75	21104
846.886	21146
847.022	21222
847.158	21043
847.294	21062
847.429	21036
847.565	20967
847.701	21279
847.837	20883
847.972	20861
848.108	20868
848.244	20902
848.379	20724
848.515	20712
848.65	20659
848.786	20739
848.921	20682
849.057	20762
849.192	20819
849.328	20838
849.463	20796
849.598	20636
849.734	20636
849.869	20434
850.004	20507
850.14	20514
850.275	20545
850.41	20358
850.545	20446
850.68	20518
850.815	20507
850.95	20461
851.085	20621
851.22	20716
851.355	20450
851.49	20461
851.625	20476
851.76	20423
851.895	20465
852.03	20389
852.165	20419
852.299	20545
852.434	20648
852.569	20549
852.703	20514
852.838	20412
852.973	20602
853.107	20655
853.242	20594
853.376	20275
853.511	20168
853.645	20164
853.78	20434
853.914	20301
854.048	20248
854.183	20218
854.317	20374
854.451	20374
854.585	20244
854.72	20263
854.854	20351
854.988	20252
855.122	20355
855.256	20210
855.39	20305
855.524	20556
855.658	20275
855.792	20381
855.926	20381
856.06	20358
856.194	20358
856.327	20256
856.461	20176
856.595	20218
856.729	20263
856.862	20533
856.996	20377
857.13	20404
857.263	20446
857.397	20499
857.53	20339
857.664	20518
857.797	20370
857.931	20415
858.064	20358
858.197	20476
858.331	20339
858.464	20259
858.597	20332
858.731	20336
858.864	20305
858.997	20419
859.13	20377
859.263	20347
859.396	20419
859.529	20366
859.662	20252
859.795	20305
859.928	20286
860.061	20560
860.194	20484
860.327	20366
860.46	20347
860.592	20473
860.725	20556
860.858	20465
860.99	20419
861.123	20324
861.256	20290
861.388	20339
861.521	20979
861.653	20180
861.786	20134
861.918	20134
862.05	20149
862.183	20248
862.315	20294
862.447	20362
862.58	20187
862.712	20020
862.844	20027
862.976	20092
863.108	20210
863.24	20465
863.372	19974
863.504	20008
863.636	20062
863.768	20035
863.9	20062
864.032	19879
864.164	19917
864.296	20020
864.428	20039
864.559	20134
864.691	20043
864.823	19898
864.954	20035
865.086	20020
865.217	19989
865.349	19944
865.48	19959
865.612	19947
865.743	20058
865.875	20005
866.006	19986
866.137	19947
866.269	19970
866.4	19944
866.531	19811
866.662	19826
866.793	19963
866.924	19906
867.055	19902
867.186	19883
867.317	19746
867.448	19750
867.579	19826
867.71	19902
867.841	19799
867.972	19982
868.103	19951
868.233	19860
868.364	19917
868.495	20107
868.625	20088
868.756	20214
868.886	20043
869.017	20138
869.147	20389
869.278	20237
869.408	20142
869.539	20145
869.669	20210
869.799	20081
869.929	20286
870.06	20161
870.19	20476
870.32	20446
870.45	20514
870.58	20564
870.71	20659
870.84	20648
870.97	20503
871.1	20511
871.23	20686
871.36	20765
871.489	20636
871.619	20613
871.749	20663
871.879	20735
872.008	20758
872.138	20769
872.267	20663
872.397	20575
872.526	20526
872.656	20522
872.785	20541
872.915	20705
873.044	20792
873.173	20754
873.303	20735
873.432	20796
873.561	20834
873.69	20777
873.819	20720
873.948	20727
874.077	20838
874.206	20663
874.335	20800
874.464	20952
874.593	21047
874.722	21039
874.851	20937
874.979	20963
875.108	21081
875.237	20971
875.365	20842
875.494	20910
875.623	21108
875.751	21001
875.88	21116
876.008	21245
876.136	21207
876.265	21428
876.393	21644
876.521	21530
876.65	21485
876.778	21386
876.906	21294
877.034	21351
877.162	21363
877.29	21283
877.418	21447
877.546	21469
877.674	21332
877.802	21336
877.93	21325
878.058	21336
878.185	21199
878.313	21389
878.441	21416
878.568	21252
878.696	21302
878.824	21344
878.951	21329
879.079	21553
879.206	21625
879.333	21523
879.461	21386
879.588	21431
879.715	21496
879.842	21599
879.97	21488
880.097	21272
880.224	21173
880.351	21135
880.478	21226
880.605	21085
880.732	21268
880.859	21336
880.986	21123
881.112	21207
881.239	21070
881.366	20910
881.493	20876
881.619	20845
881.746	20769
881.872	20648
881.999	20739
882.125	20701
882.252	20849
882.378	20598
882.505	20853
882.631	20636
882.757	20575
882.883	20621
883.01	20644
883.136	20442
883.262	20408
883.388	20282
883.514	20469
883.64	20511
883.766	20298
883.892	20111
884.018	20267
884.143	20446
884.269	20526
884.395	20206
884.52	20096
884.646	20172
884.772	20077
884.897	20084
885.023	20122
885.148	20233
885.274	20336
885.399	20111
885.524	20195
885.65	20176
885.775	20233
885.9	19970
886.025	20199
886.15	20282
886.275	19925
886.4	20005
886.525	20043
886.65	19921
886.775	19997
886.9	20221
887.025	20240
887.149	20107
887.274	19932
887.399	19864
887.523	19913
887.648	19803
887.773	19860
887.897	19928
888.021	19936
888.146	19944
888.27	19997
888.395	20077
888.519	19997
888.643	19967
888.767	19951
888.891	19894
889.015	19624
889.139	19780
889.263	19712
889.387	19845
889.511	19928
889.635	19753
889.759	19689
889.883	19628
890.006	19693
890.13	19811
890.254	19731
890.377	19590
890.501	19559
890.624	19441
890.748	19502
890.871	19312
890.995	19255
891.118	19228
891.241	19324
891.364	19354
891.488	19438
891.611	19343
891.734	19270
891.857	19377
891.98	19407
892.103	19362
892.226	19240
892.349	19312
892.471	19187
892.594	19251
892.717	19217
892.839	19270
892.962	19194
893.085	19240
893.207	19247
893.33	19091
893.452	19232
893.575	19164
893.697	19164
893.819	19354
893.941	19438
894.064	19358
894.186	19225
894.308	19046
894.43	19304
894.552	19419
894.674	19255
894.796	19084
894.918	19202
895.04	19213
895.161	19422
895.283	19285
895.405	19168
895.526	19301
895.648	19244
895.769	19312
895.891	19228
896.012	19400
896.134	19327
896.255	19301
896.376	19263
896.498	19335
896.619	19179
896.74	19259
896.861	19301
896.982	19575
897.103	19837
897.224	19445
897.345	19502
897.466	19392
897.587	19449
897.708	19540
897.828	19586
897.949	19438
898.07	19369
898.19	19400
898.311	19552
898.431	19422
898.552	19430
898.672	19575
898.792	19571
898.913	19525
899.033	19392
899.153	19213
899.273	19301
899.393	19187
899.513	19274
899.633	19244
899.753	19365
899.873	19266
899.993	19255
900.113	19133
900.232	19396
900.352	19194
900.472	19133
900.591	19023
900.711	19023
900.83	19023
900.95	19141
901.069	19209
901.189	18985
901.308	18711
901.427	18551
901.546	18673
901.665	18593
901.784	18734
901.904	18448
902.023	18407
902.141	18239
902.26	18235
902.379	18319
902.498	18140
902.617	18178
902.735	18209
902.854	18125
902.973	18053
903.091	17859
903.21	17798
903.328	17893
903.446	17813
903.565	17627
903.683	17665
903.801	17520
903.919	17687
904.038	17615
904.156	17414
904.274	17562
904.392	17417
904.51	17444
904.627	17372
904.745	17512
904.863	17509
904.981	17208
905.098	17113
905.216	17018
905.334	17102
905.451	17113
905.569	17094
905.686	17197
905.803	17162
905.921	17006
906.038	17071
906.155	16942
906.272	16767
906.389	16755
906.506	16706
906.623	16763
906.74	16672
906.857	16500
906.974	16535
907.091	16740
907.208	16752
907.324	16706
907.441	16691
907.557	16379
907.674	16341
907.79	16341
907.907	16386
908.023	16459
908.139	16371
908.256	16303
908.372	16185
908.488	16158
908.604	16082
908.72	16063
908.836	16101
908.952	16074
909.068	16147
909.184	16310
909.3	16093
909.415	16120
909.531	16093
909.647	15895
909.762	15880
909.878	15743
909.993	15880
910.108	15842
910.224	15808
910.339	15804
910.454	15728
910.57	15705
910.685	15625
910.8	15736
910.915	15743
911.03	15663
911.145	15428
911.259	15473
911.374	15378
911.489	15389
911.604	15348
911.718	15222
911.833	15264
911.947	15058
912.062	15089
912.176	15199
912.291	15283
912.405	15173
912.519	15420
912.633	15389
912.748	15230
912.862	15131
912.976	15043
913.09	14921
913.204	14941
913.318	14979
913.431	15089
913.545	15017
913.659	15192
913.772	14963
913.886	14750
914	14857
914.113	14826
914.226	14899
914.34	14861
914.453	14758
914.566	14773
914.68	14823
914.793	14678
914.906	14568
915.019	14434
915.132	14328
915.245	14381
915.358	14328
915.47	14431
915.583	14476
915.696	14533
915.809	14530
915.921	14598
916.034	14267
916.146	14374
916.259	14370
916.371	14602
916.483	14343
916.595	14309
916.708	14366
916.82	14233
916.932	14267
917.044	14229
917.156	14252
917.268	14138
917.38	14263
917.491	14035
917.603	14256
917.715	14199
917.826	14248
917.938	14103
918.049	14039
918.161	14031
918.272	14332
918.384	14115
918.495	14073
918.606	13921
918.717	13772
918.828	13845
918.939	13936
919.05	13909
919.161	13959
919.272	13666
919.383	13807
919.494	13902
919.604	14161
919.715	13940
919.826	13845
919.936	13868
920.047	14008
920.157	13890
920.267	14119
920.378	13871
920.488	13864
920.598	14005
920.708	14259
920.818	14100
920.928	14054
921.038	14134
921.148	14187
921.258	13936
921.368	13807
921.477	13651
921.587	13677
921.697	13472
921.806	13658
921.916	13552
922.025	13377
922.134	13320
922.244	13202
922.353	13350
922.462	13228
922.571	13114
922.68	12901
922.789	12981
922.898	13000
923.007	12886
923.116	12897
923.224	12966
923.333	12913
923.442	12814
923.55	12719
923.659	12810
923.767	12825
923.876	12703
923.984	12749
924.092	12585
924.201	12768
924.309	12684
924.417	12764
924.525	12662
924.633	12681
924.741	13567
924.849	12410
924.956	12563
925.064	12388
925.172	12391
925.279	12327
925.387	12399
925.494	12338
925.602	12582
925.709	12467
925.816	12243
925.924	12327
926.031	12365
926.138	12372
926.245	12380
926.352	12296
926.459	12418
926.566	12437
926.673	12346
926.779	12224
926.886	12087
926.993	11958
927.099	12064
927.206	12026
927.312	11946
927.419	11999
927.525	11965
927.631	12003
927.737	11889
927.843	11897
927.95	11726
928.056	11866
928.162	11828
928.267	11832
928.373	12498
928.479	11935
928.585	11668
928.69	11775
928.796	11771
928.901	11718
929.007	11581
929.112	11722
929.218	11718
929.323	11623
929.428	11543
929.533	11688
929.638	11551
929.743	11509
929.848	11467
929.953	11482
930.058	11379
930.163	11269
930.267	11307
930.372	11402
930.477	11246
930.581	11436
930.685	11296
930.79	11109
930.894	11147
930.998	11151
931.103	11299
931.207	10991
931.311	10881
931.415	10774
931.519	10679
931.623	10577
