Data from test_V78500241_1097.txt Node
Date: Fri Mar 25 15:49:24 CST 2022
User: usil
Spectrometer: V785-0024
Trigger mode: 0
Integration Time (sec): 4.000000E-1
Scans to average: 1
Nonlinearity correction enabled: false
Boxcar width: 0
Storing dark spectrum: false
XAxis mode: Wavelengths
Number of Pixels in Spectrum: 1024
>>>>>Begin Spectral Data<<<<<
801.071	28276
801.214	28242
801.356	27983
801.499	28025
801.641	27914
801.783	27751
801.926	27926
802.068	27854
802.211	27854
802.353	27675
802.496	27530
802.638	27450
802.78	27477
802.923	27313
803.065	27545
803.208	27431
803.35	27492
803.492	27603
803.635	27660
803.777	27599
803.919	27869
804.061	27998
804.204	27682
804.346	27519
804.488	27568
804.63	27724
804.773	27690
804.915	27728
805.057	27831
805.199	27778
805.341	27797
805.483	27922
805.626	27922
805.768	27781
805.91	27903
806.052	27857
806.194	27831
806.336	28029
806.478	27895
806.62	28002
806.762	28086
806.904	28070
807.046	28310
807.188	28268
807.33	28280
807.472	28443
807.614	28207
807.756	28246
807.898	28211
808.04	28192
808.182	28051
808.324	28253
808.465	28318
808.607	28455
808.749	28535
808.891	28622
809.033	28607
809.174	28504
809.316	28546
809.458	28451
809.6	28497
809.741	28744
809.883	28573
810.025	28888
810.166	28946
810.308	28991
810.45	28687
810.591	28721
810.733	28687
810.875	28653
811.016	28375
811.158	28405
811.299	28596
811.441	28660
811.582	28691
811.724	28653
811.865	28634
812.007	28596
812.148	28489
812.29	28607
812.431	28691
812.573	28831
812.714	29124
812.855	29098
812.997	29170
813.138	29391
813.279	29174
813.421	29128
813.562	29105
813.703	28820
813.845	28786
813.986	28428
814.127	28356
814.268	28196
814.41	28253
814.551	28173
814.692	28306
814.833	28242
814.974	28234
815.115	28265
815.256	28185
815.397	28086
815.539	28021
815.68	27979
815.821	27922
815.962	28067
816.103	28059
816.244	27926
816.385	27751
816.526	27838
816.666	27625
816.807	27523
816.948	27618
817.089	27583
817.23	27606
817.371	27458
817.512	27656
817.653	27515
817.793	27492
817.934	27564
818.075	27641
818.216	27469
818.356	27454
818.497	27500
818.638	27226
818.778	27195
818.919	27165
819.06	27416
819.2	27416
819.341	27526
819.481	27549
819.622	27739
819.762	27732
819.903	27804
820.043	27622
820.184	27625
820.324	27751
820.465	27629
820.605	27713
820.746	27812
820.886	27637
821.026	27724
821.167	27625
821.307	27751
821.447	27557
821.588	27591
821.728	27340
821.868	27108
822.008	27195
822.149	26963
822.289	27074
822.429	26872
822.569	26727
822.709	26651
822.849	26560
822.99	26598
823.13	26469
823.27	26446
823.41	26370
823.55	26263
823.69	26389
823.83	26347
823.97	26358
824.11	26278
824.25	26176
824.389	26138
824.529	26328
824.669	26233
824.809	26180
824.949	26324
825.089	26248
825.228	26237
825.368	26031
825.508	26119
825.648	26058
825.787	26115
825.927	26237
826.067	26092
826.206	26168
826.346	26115
826.485	26039
826.625	26081
826.765	26233
826.904	26031
827.044	25826
827.183	25936
827.323	25765
827.462	25879
827.601	25849
827.741	25750
827.88	25868
828.02	25643
828.159	25689
828.298	25696
828.437	25868
828.577	25708
828.716	25868
828.855	25727
828.994	25483
829.134	25521
829.273	25575
829.412	25449
829.551	25525
829.69	25529
829.829	25533
829.968	25567
830.107	25521
830.246	25449
830.385	25392
830.524	25396
830.663	25343
830.802	25251
830.941	25042
831.08	24962
831.219	25175
831.357	25221
831.496	25187
831.635	25080
831.774	24859
831.913	25008
832.051	24913
832.19	24989
832.329	24814
832.467	24821
832.606	24749
832.744	24642
832.883	24700
833.022	24760
833.16	24757
833.299	24764
833.437	24806
833.576	24867
833.714	24692
833.852	24829
833.991	24871
834.129	24814
834.267	24878
834.406	24894
834.544	24935
834.682	24844
834.821	24821
834.959	24897
835.097	24597
835.235	24768
835.373	24905
835.511	24646
835.65	24601
835.788	24623
835.926	24589
836.064	24555
836.202	24536
836.34	24707
836.478	24722
836.615	24589
836.753	24783
836.891	24795
837.029	24608
837.167	24616
837.305	24403
837.443	24509
837.58	24486
837.718	24505
837.856	24517
837.993	24403
838.131	24612
838.269	24456
838.406	24388
838.544	24232
838.681	24129
838.819	24117
838.956	24022
839.094	23969
839.231	23958
839.369	24102
839.506	24350
839.643	24117
839.781	23851
839.918	23851
840.055	23969
840.193	23980
840.33	23760
840.467	23843
840.604	23863
840.742	24251
840.879	23752
841.016	23737
841.153	23798
841.29	24053
841.427	23882
841.564	23920
841.701	23847
841.838	23733
841.975	23752
842.112	23726
842.249	23764
842.385	23646
842.522	23885
842.659	23547
842.796	23646
842.933	23585
843.069	23562
843.206	23668
843.343	23634
843.479	23554
843.616	23585
843.752	23353
843.889	23376
844.025	23482
844.162	23417
844.298	23497
844.435	23296
844.571	23376
844.708	23364
844.844	23520
844.98	23368
845.117	23421
845.253	23280
845.389	23143
845.525	23292
845.661	23261
845.798	23162
845.934	23041
846.07	23098
846.206	23216
846.342	23124
846.478	23204
846.614	22900
846.75	22831
846.886	22976
847.022	22854
847.158	22816
847.294	22919
847.429	22896
847.565	22755
847.701	23208
847.837	22478
847.972	22557
848.108	22599
848.244	22550
848.379	22478
848.515	22500
848.65	22432
848.786	22451
848.921	22443
849.057	22538
849.192	22626
849.328	22394
849.463	22516
849.598	22360
849.734	22272
849.869	22417
850.004	22177
850.14	22352
850.275	22261
850.41	22105
850.545	22257
850.68	22166
850.815	22234
850.95	22185
851.085	22379
851.22	22238
851.355	22207
851.49	22188
851.625	22139
851.76	22402
851.895	22139
852.03	22093
852.165	22265
852.299	22169
852.434	22291
852.569	22219
852.703	22276
852.838	22215
852.973	22268
853.107	22322
853.242	22097
853.376	22078
853.511	21838
853.645	22006
853.78	22185
853.914	22063
854.048	21968
854.183	21983
854.317	22048
854.451	22120
854.585	22048
854.72	21960
854.854	22185
854.988	21945
855.122	21975
855.256	21998
855.39	22006
855.524	22128
855.658	22093
855.792	21953
855.926	22116
856.06	22082
856.194	22181
856.327	22074
856.461	22002
856.595	21987
856.729	21915
856.862	22188
856.996	22093
857.13	22063
857.263	22116
857.397	22086
857.53	22055
857.664	22002
857.797	22116
857.931	22204
858.064	22017
858.197	22173
858.331	21880
858.464	22032
858.597	21835
858.731	22013
858.864	21953
858.997	22036
859.13	21937
859.263	22063
859.396	22074
859.529	21937
859.662	21991
859.795	21941
859.928	21926
860.061	22124
860.194	22253
860.327	22021
860.46	22181
860.592	22284
860.725	22143
860.858	22310
860.99	21926
861.123	21930
861.256	21972
861.388	21987
861.521	22816
861.653	21861
861.786	21793
861.918	21987
862.05	21774
862.183	22013
862.315	21949
862.447	21846
862.58	21888
862.712	21694
862.844	21622
862.976	21686
863.108	21884
863.24	22143
863.372	21557
863.504	21751
863.636	21739
863.768	21663
863.9	21736
864.032	21656
864.164	21778
864.296	21747
864.428	21778
864.559	21800
864.691	21762
864.823	21736
864.954	21667
865.086	21759
865.217	21507
865.349	21485
865.48	21515
865.612	21713
865.743	21610
865.875	21595
866.006	21606
866.137	21545
866.269	21561
866.4	21580
866.531	21431
866.662	21389
866.793	21564
866.924	21534
867.055	21644
867.186	21591
867.317	21633
867.448	21389
867.579	21485
867.71	21561
867.841	21420
867.972	21538
868.103	21507
868.233	21641
868.364	21599
868.495	21523
868.625	21793
868.756	21823
868.886	21766
869.017	21766
869.147	21816
869.278	21899
869.408	21838
869.539	21861
869.669	21880
869.799	21846
869.929	21968
870.06	21930
870.19	22029
870.32	22109
870.45	22166
870.58	22242
870.71	22226
870.84	22295
870.97	22158
871.1	22215
871.23	22261
871.36	22322
871.489	22196
871.619	22238
871.749	22485
871.879	22344
872.008	22550
872.138	22314
872.267	22287
872.397	22234
872.526	22135
872.656	22101
872.785	22128
872.915	22424
873.044	22478
873.173	22421
873.303	22417
873.432	22352
873.561	22577
873.69	22352
873.819	22375
873.948	22394
874.077	22440
874.206	22367
874.335	22440
874.464	22557
874.593	22710
874.722	22580
874.851	22626
874.979	22637
875.108	22618
875.237	22478
875.365	22466
875.494	22588
875.623	22698
875.751	22535
875.88	22565
876.008	22771
876.136	22824
876.265	22927
876.393	23121
876.521	23064
876.65	23052
876.778	23079
876.906	22942
877.034	22991
877.162	23022
877.29	22755
877.418	23006
877.546	22885
877.674	22885
877.802	22999
877.93	22839
878.058	22797
878.185	22721
878.313	22915
878.441	22927
878.568	22771
878.696	22908
878.824	22858
878.951	23060
879.079	23090
879.206	23299
879.333	23124
879.461	22953
879.588	23098
879.715	23216
879.842	23273
879.97	23010
880.097	22725
880.224	22797
880.351	22812
880.478	22733
880.605	22782
880.732	22820
880.859	22934
880.986	22717
881.112	22797
881.239	22611
881.366	22481
881.493	22417
881.619	22344
881.746	22413
881.872	22337
881.999	22287
882.125	22249
882.252	22352
882.378	22310
882.505	22310
882.631	22192
882.757	22135
882.883	22223
883.01	22013
883.136	21869
883.262	21903
883.388	21850
883.514	21960
883.64	22131
883.766	21884
883.892	21751
884.018	21751
884.143	21979
884.269	22044
884.395	21694
884.52	21629
884.646	21724
884.772	21564
884.897	21545
885.023	21682
885.148	21720
885.274	21686
885.399	21743
885.524	21625
885.65	21762
885.775	21526
885.9	21606
886.025	21842
886.15	21622
886.275	21629
886.4	21545
886.525	21606
886.65	21511
886.775	21625
886.9	21686
887.025	21785
887.149	21660
887.274	21511
887.399	21344
887.523	21462
887.648	21389
887.773	21207
887.897	21523
888.021	21454
888.146	21431
888.27	21576
888.395	21572
888.519	21416
888.643	21416
888.767	21386
888.891	21393
889.015	21195
889.139	21249
889.263	21138
889.387	21355
889.511	21344
889.635	21287
889.759	21180
889.883	21180
890.006	21089
890.13	21408
890.254	21199
890.377	21070
890.501	20883
890.624	20956
890.748	20914
890.871	20849
890.995	20716
891.118	20746
891.241	20708
891.364	20781
891.488	20861
891.611	20807
891.734	20712
891.857	20815
891.98	20830
892.103	20754
892.226	20701
892.349	20686
892.471	20541
892.594	20655
892.717	20686
892.839	20724
892.962	20670
893.085	20670
893.207	20632
893.33	20469
893.452	20571
893.575	20651
893.697	20640
893.819	20895
893.941	20807
894.064	20887
894.186	20602
894.308	20549
894.43	20659
894.552	20807
894.674	20796
894.796	20545
894.918	20568
895.04	20590
895.161	20621
895.283	20697
895.405	20629
895.526	20712
895.648	20648
895.769	20663
895.891	20746
896.012	20781
896.134	20754
896.255	20663
896.376	20659
896.498	20587
896.619	20678
896.74	20625
896.861	20788
896.982	20975
897.103	21108
897.224	20902
897.345	20925
897.466	20788
897.587	20921
897.708	20902
897.828	20868
897.949	20864
898.07	20655
898.19	20804
898.311	20986
898.431	20727
898.552	20872
898.672	20944
898.792	20967
898.913	20845
899.033	20682
899.153	20632
899.273	20526
899.393	20632
899.513	20701
899.633	20655
899.753	20697
899.873	20549
899.993	20598
900.113	20636
900.232	20492
900.352	20461
900.472	20404
900.591	20317
900.711	20400
900.83	20431
900.95	20499
901.069	20499
901.189	20130
901.308	20073
901.427	19871
901.546	19932
901.665	19978
901.784	19959
901.904	19887
902.023	19742
902.141	19616
902.26	19438
902.379	19601
902.498	19453
902.617	19346
902.735	19434
902.854	19388
902.973	19335
903.091	19141
903.21	18977
903.328	19141
903.446	19076
903.565	19023
903.683	18810
903.801	18814
903.919	18863
904.038	18932
904.156	18654
904.274	18692
904.392	18585
904.51	18544
904.627	18677
904.745	18787
904.863	18635
904.981	18521
905.098	18350
905.216	18247
905.334	18304
905.451	18380
905.569	18361
905.686	18464
905.803	18251
905.921	18076
906.038	18281
906.155	18140
906.272	18072
906.389	17973
906.506	17912
906.623	17832
906.74	17767
906.857	17809
906.974	17790
907.091	17961
907.208	18011
907.324	17908
907.441	17779
907.557	17535
907.674	17547
907.79	17482
907.907	17592
908.023	17707
908.139	17695
908.256	17539
908.372	17474
908.488	17448
908.604	17345
908.72	17364
908.836	17284
908.952	17261
909.068	17303
909.184	17467
909.3	17414
909.415	17368
909.531	17273
909.647	17094
909.762	17018
909.878	16980
909.993	16987
910.108	16976
910.224	16957
910.339	16877
910.454	16949
910.57	16744
910.685	16774
910.8	17056
910.915	17060
911.03	16847
911.145	16641
911.259	16538
911.374	16580
911.489	16470
911.604	16474
911.718	16371
911.833	16447
911.947	16246
912.062	16166
912.176	16417
912.291	16356
912.405	16398
912.519	16535
912.633	16459
912.748	16413
912.862	16295
912.976	16173
913.09	16109
913.204	16131
913.318	16090
913.431	16226
913.545	16211
913.659	16268
913.772	16040
913.886	16013
914	15972
914.113	16025
914.226	16105
914.34	16055
914.453	15804
914.566	16025
914.68	15869
914.793	15816
914.906	15644
915.019	15564
915.132	15496
915.245	15526
915.358	15610
915.47	15534
915.583	15549
915.696	15496
915.809	15709
915.921	15610
916.034	15481
916.146	15504
916.259	15485
916.371	15576
916.483	15485
916.595	15367
916.708	15275
916.82	15401
916.932	15252
917.044	15310
917.156	15306
917.268	15241
917.38	15173
917.491	15188
917.603	15146
917.715	15268
917.826	15287
917.938	15055
918.049	14994
918.161	15173
918.272	15310
918.384	15176
918.495	15077
918.606	14956
918.717	14880
918.828	15036
918.939	14842
919.05	14864
919.161	14952
919.272	14689
919.383	14636
919.494	14906
919.604	15070
919.715	14914
919.826	14823
919.936	14823
920.047	14956
920.157	14918
920.267	15077
920.378	14880
920.488	14804
920.598	14941
920.708	15199
920.818	15013
920.928	14941
921.038	15161
921.148	15199
921.258	14853
921.368	14659
921.477	14693
921.587	14556
921.697	14473
921.806	14648
921.916	14374
922.025	14328
922.134	14294
922.244	14142
922.353	14233
922.462	14069
922.571	14073
922.68	13955
922.789	13887
922.898	13852
923.007	13921
923.116	13986
923.224	13864
923.333	13898
923.442	13700
923.55	13628
923.659	13712
923.767	13871
923.876	13605
923.984	13765
924.092	13533
924.201	13666
924.309	13636
924.417	13666
924.525	13441
924.633	13590
924.741	14271
924.849	13354
924.956	13518
925.064	13346
925.172	13190
925.279	13244
925.387	13316
925.494	13301
925.602	13426
925.709	13236
925.816	13194
925.924	13331
926.031	13308
926.138	13221
926.245	13221
926.352	13084
926.459	13244
926.566	13259
926.673	13126
926.779	12989
926.886	13004
926.993	12840
927.099	12886
927.206	12825
927.312	12840
927.419	12852
927.525	12852
927.631	12825
927.737	12684
927.843	12749
927.95	12585
928.056	12627
928.162	12582
928.267	12741
928.373	13221
928.479	12779
928.585	12471
928.69	12528
928.796	12673
928.901	12513
929.007	12403
929.112	12532
929.218	12399
929.323	12296
929.428	12410
929.533	12410
929.638	12315
929.743	12357
929.848	12357
929.953	12292
930.058	12266
930.163	12098
930.267	12083
930.372	12213
930.477	12041
930.581	12273
930.685	12106
930.79	12011
930.894	11999
930.998	11904
931.103	11999
931.207	11699
931.311	11573
931.415	11463
931.519	11299
931.623	11299
