Data from test_V78500241_757.txt Node
Date: Fri Mar 25 15:47:02 CST 2022
User: usil
Spectrometer: V785-0024
Trigger mode: 0
Integration Time (sec): 4.000000E-1
Scans to average: 1
Nonlinearity correction enabled: false
Boxcar width: 0
Storing dark spectrum: false
XAxis mode: Wavelengths
Number of Pixels in Spectrum: 1024
>>>>>Begin Spectral Data<<<<<
801.071	28044
801.214	27953
801.356	27690
801.499	27762
801.641	27488
801.783	27568
801.926	27534
802.068	27599
802.211	27386
802.353	27344
802.496	27188
802.638	27157
802.78	27214
802.923	27138
803.065	27195
803.208	27116
803.35	27233
803.492	27348
803.635	27427
803.777	27344
803.919	27458
804.061	27595
804.204	27504
804.346	27386
804.488	27317
804.63	27386
804.773	27211
804.915	27606
805.057	27583
805.199	27500
805.341	27488
805.483	27519
805.626	27504
805.768	27393
805.91	27625
806.052	27466
806.194	27435
806.336	27660
806.478	27629
806.62	27561
806.762	27618
806.904	27660
807.046	28105
807.188	28006
807.33	27975
807.472	28074
807.614	27892
807.756	27800
807.898	27743
808.04	27869
808.182	27743
808.324	27781
808.465	27857
808.607	28109
808.749	28120
808.891	28226
809.033	28280
809.174	28257
809.316	28215
809.458	28242
809.6	28234
809.741	28204
809.883	28276
810.025	28519
810.166	28466
810.308	28424
810.45	28341
810.591	28455
810.733	28162
810.875	28135
811.016	28128
811.158	27991
811.299	28287
811.441	28459
811.582	28325
811.724	28185
811.865	28188
812.007	28181
812.148	28204
812.29	28382
812.431	28280
812.573	28485
812.714	28656
812.855	28656
812.997	28835
813.138	28839
813.279	28771
813.421	28603
813.562	28729
813.703	28428
813.845	28371
813.986	28162
814.127	27934
814.268	28059
814.41	27869
814.551	27876
814.692	27983
814.833	27778
814.974	27842
815.115	27911
815.256	27861
815.397	27736
815.539	27854
815.68	27648
815.821	27641
815.962	27717
816.103	27724
816.244	27477
816.385	27576
816.526	27260
816.666	27321
816.807	27039
816.948	27226
817.089	27176
817.23	27192
817.371	27272
817.512	27275
817.653	27135
817.793	26967
817.934	27161
818.075	26994
818.216	27222
818.356	27119
818.497	27146
818.638	26914
818.778	26967
818.919	26906
819.06	26948
819.2	27036
819.341	27294
819.481	27131
819.622	27230
819.762	27458
819.903	27370
820.043	27389
820.184	27332
820.324	27195
820.465	27351
820.605	27214
820.746	27218
820.886	27176
821.026	27169
821.167	27237
821.307	27340
821.447	27203
821.588	27104
821.728	27112
821.868	26918
822.008	26735
822.149	26640
822.289	26640
822.429	26355
822.569	26366
822.709	26252
822.849	26149
822.99	26229
823.13	26084
823.27	26126
823.41	26062
823.55	25940
823.69	25982
823.83	25986
823.97	25883
824.11	25807
824.25	25830
824.389	25837
824.529	25947
824.669	25849
824.809	25906
824.949	25875
825.089	25871
825.228	25761
825.368	25685
825.508	25677
825.648	25578
825.787	25708
825.927	25719
826.067	25597
826.206	25616
826.346	25666
826.485	25734
826.625	25757
826.765	25681
826.904	25830
827.044	25510
827.183	25403
827.323	25304
827.462	25430
827.601	25350
827.741	25324
827.88	25274
828.02	25255
828.159	25384
828.298	25419
828.437	25441
828.577	25449
828.716	25632
828.855	25320
828.994	25061
829.134	25050
829.273	25152
829.412	24989
829.551	25008
829.69	25137
829.829	25080
829.968	25156
830.107	25076
830.246	25027
830.385	25072
830.524	25042
830.663	24852
830.802	24787
830.941	24593
831.08	24582
831.219	24642
831.357	24764
831.496	24833
831.635	24585
831.774	24684
831.913	24620
832.051	24536
832.19	24551
832.329	24448
832.467	24433
832.606	24365
832.744	24304
832.883	24403
833.022	24216
833.16	24357
833.299	24247
833.437	24395
833.576	24502
833.714	24327
833.852	24365
833.991	24319
834.129	24646
834.267	24536
834.406	24372
834.544	24395
834.682	24547
834.821	24418
834.959	24563
835.097	24201
835.235	24467
835.373	24486
835.511	24471
835.65	24289
835.788	24224
835.926	24205
836.064	24064
836.202	24068
836.34	24273
836.478	24433
836.615	24270
836.753	24190
836.891	24224
837.029	24262
837.167	24117
837.305	24148
837.443	24114
837.58	24155
837.718	24163
837.856	24041
837.993	23996
838.131	24015
838.269	24087
838.406	24068
838.544	23916
838.681	23802
838.819	23703
838.956	23627
839.094	23474
839.231	23585
839.369	23707
839.506	23946
839.643	23771
839.781	23577
839.918	23497
840.055	23493
840.193	23551
840.33	23421
840.467	23497
840.604	23634
840.742	23729
840.879	23277
841.016	23406
841.153	23429
841.29	23630
841.427	23410
841.564	23531
841.701	23417
841.838	23417
841.975	23330
842.112	23337
842.249	23254
842.385	23265
842.522	23311
842.659	23296
842.796	23383
842.933	23147
843.069	23102
843.206	23162
843.343	23349
843.479	23258
843.616	23250
843.752	22923
843.889	23105
844.025	23170
844.162	23041
844.298	23083
844.435	22927
844.571	22881
844.708	23071
844.844	23155
844.98	23086
845.117	23147
845.253	22961
845.389	22927
845.525	22774
845.661	22809
845.798	22698
845.934	22828
846.07	22694
846.206	22656
846.342	22892
846.478	22786
846.614	22577
846.75	22421
846.886	22443
847.022	22630
847.158	22550
847.294	22409
847.429	22569
847.565	22459
847.701	22664
847.837	22086
847.972	22124
848.108	22147
848.244	22295
848.379	22093
848.515	22036
848.65	21975
848.786	21968
848.921	22070
849.057	22139
849.192	22158
849.328	22158
849.463	22048
849.598	21979
849.734	21899
849.869	21907
850.004	21812
850.14	21812
850.275	21812
850.41	21739
850.545	21774
850.68	21816
850.815	21831
850.95	21766
851.085	21895
851.22	21953
851.355	21842
851.49	21812
851.625	21865
851.76	21789
851.895	21762
852.03	21762
852.165	21800
852.299	21747
852.434	21831
852.569	21800
852.703	21800
852.838	21831
852.973	21930
853.107	21895
853.242	21656
853.376	21701
853.511	21428
853.645	21667
853.78	21812
853.914	21606
854.048	21667
854.183	21675
854.317	21705
854.451	21827
854.585	21625
854.72	21549
854.854	21667
854.988	21557
855.122	21686
855.256	21511
855.39	21690
855.524	21637
855.658	21557
855.792	21641
855.926	21675
856.06	21534
856.194	21606
856.327	21561
856.461	21523
856.595	21492
856.729	21591
856.862	21816
856.996	21580
857.13	21736
857.263	21705
857.397	21652
857.53	21633
857.664	21656
857.797	21675
857.931	21679
858.064	21694
858.197	21641
858.331	21694
858.464	21663
858.597	21504
858.731	21488
858.864	21454
858.997	21580
859.13	21603
859.263	21561
859.396	21759
859.529	21587
859.662	21580
859.795	21629
859.928	21679
860.061	21641
860.194	21724
860.327	21694
860.46	21545
860.592	21652
860.725	21724
860.858	21694
860.99	21591
861.123	21492
861.256	21542
861.388	21580
861.521	22265
861.653	21424
861.786	21450
861.918	21397
862.05	21450
862.183	21454
862.315	21431
862.447	21663
862.58	21576
862.712	21275
862.844	21355
862.976	21382
863.108	21416
863.24	21739
863.372	21344
863.504	21298
863.636	21332
863.768	21412
863.9	21321
864.032	21306
864.164	21279
864.296	21329
864.428	21530
864.559	21492
864.691	21351
864.823	21367
864.954	21264
865.086	21332
865.217	21146
865.349	21161
865.48	21165
865.612	21336
865.743	21462
865.875	21241
866.006	21176
866.137	21272
866.269	21203
866.4	21135
866.531	21180
866.662	21146
866.793	21096
866.924	21173
867.055	21131
867.186	21199
867.317	21142
867.448	21176
867.579	21070
867.71	21032
867.841	20967
867.972	21024
868.103	21051
868.233	21188
868.364	21127
868.495	21199
868.625	21336
868.756	21401
868.886	21374
869.017	21348
869.147	21500
869.278	21370
869.408	21439
869.539	21393
869.669	21424
869.799	21473
869.929	21545
870.06	21515
870.19	21690
870.32	21701
870.45	21751
870.58	21888
870.71	21816
870.84	21785
870.97	21816
871.1	21770
871.23	21937
871.36	21983
871.489	21941
871.619	21823
871.749	21994
871.879	22070
872.008	22002
872.138	22059
872.267	21926
872.397	21880
872.526	21819
872.656	21819
872.785	21880
872.915	22017
873.044	22032
873.173	22029
873.303	22131
873.432	22036
873.561	22078
873.69	22055
873.819	22158
873.948	22036
874.077	21918
874.206	22082
874.335	22086
874.464	22044
874.593	22226
874.722	22169
874.851	22261
874.979	22272
875.108	22215
875.237	22192
875.365	22154
875.494	22067
875.623	22280
875.751	22173
875.88	22253
876.008	22261
876.136	22443
876.265	22687
876.393	22592
876.521	22679
876.65	22622
876.778	22588
876.906	22618
877.034	22584
877.162	22523
877.29	22565
877.418	22649
877.546	22565
877.674	22573
877.802	22592
877.93	22607
878.058	22523
878.185	22497
878.313	22622
878.441	22504
878.568	22394
878.696	22497
878.824	22603
878.951	22630
879.079	22630
879.206	22748
879.333	22634
879.461	22599
879.588	22611
879.715	22744
879.842	22793
879.97	22630
880.097	22371
880.224	22310
880.351	22436
880.478	22325
880.605	22306
880.732	22379
880.859	22618
880.986	22413
881.112	22329
881.239	22226
881.366	22131
881.493	22032
881.619	21850
881.746	21968
881.872	22032
881.999	21937
882.125	21854
882.252	21918
882.378	21873
882.505	22044
882.631	21846
882.757	21610
882.883	21759
883.01	21564
883.136	21545
883.262	21481
883.388	21549
883.514	21622
883.64	21591
883.766	21614
883.892	21428
884.018	21393
884.143	21648
884.269	21568
884.395	21428
884.52	21260
884.646	21279
884.772	21363
884.897	21291
885.023	21291
885.148	21355
885.274	21420
885.399	21439
885.524	21340
885.65	21313
885.775	21249
885.9	21226
886.025	21435
886.15	21389
886.275	21222
886.4	21298
886.525	21135
886.65	21116
886.775	21256
886.9	21488
887.025	21538
887.149	21363
887.274	21036
887.399	21043
887.523	20948
887.648	21020
887.773	21119
887.897	21207
888.021	21112
888.146	21070
888.27	21184
888.395	21199
888.519	21135
888.643	21036
888.767	21165
888.891	21028
889.015	20864
889.139	20963
889.263	20872
889.387	20975
889.511	21096
889.635	21020
889.759	20834
889.883	20872
890.006	20910
890.13	20948
890.254	20762
890.377	20678
890.501	20655
890.624	20590
890.748	20678
890.871	20522
890.995	20446
891.118	20362
891.241	20396
891.364	20450
891.488	20526
891.611	20362
891.734	20457
891.857	20636
891.98	20332
892.103	20511
892.226	20526
892.349	20355
892.471	20172
892.594	20221
892.717	20286
892.839	20305
892.962	20282
893.085	20324
893.207	20271
893.33	20168
893.452	20309
893.575	20358
893.697	20218
893.819	20469
893.941	20442
894.064	20412
894.186	20320
894.308	20385
894.43	20351
894.552	20526
894.674	20343
894.796	20263
894.918	20176
895.04	20393
895.161	20320
895.283	20324
895.405	20225
895.526	20400
895.648	20282
895.769	20385
895.891	20450
896.012	20385
896.134	20324
896.255	20385
896.376	20362
896.498	20259
896.619	20294
896.74	20286
896.861	20358
896.982	20609
897.103	20762
897.224	20602
897.345	20686
897.466	20434
897.587	20556
897.708	20785
897.828	20522
897.949	20450
898.07	20385
898.19	20518
898.311	20560
898.431	20518
898.552	20556
898.672	20640
898.792	20674
898.913	20488
899.033	20377
899.153	20389
899.273	20298
899.393	20267
899.513	20278
899.633	20252
899.753	20282
899.873	20229
899.993	20259
900.113	20180
900.232	20347
900.352	20145
900.472	20145
900.591	20046
900.711	20020
900.83	20031
900.95	20225
901.069	20096
901.189	19909
901.308	19799
901.427	19613
901.546	19655
901.665	19685
901.784	19769
901.904	19457
902.023	19396
902.141	19251
902.26	19289
902.379	19358
902.498	19190
902.617	19080
902.735	19213
902.854	19088
902.973	18996
903.091	18897
903.21	18852
903.328	18817
903.446	18601
903.565	18506
903.683	18688
903.801	18597
903.919	18479
904.038	18532
904.156	18372
904.274	18407
904.392	18388
904.51	18350
904.627	18338
904.745	18391
904.863	18460
904.981	18125
905.098	18125
905.216	18079
905.334	18095
905.451	18057
905.569	18053
905.686	18015
905.803	18072
905.921	17843
906.038	17996
906.155	17988
906.272	17653
906.389	17821
906.506	17471
906.623	17543
906.74	17649
906.857	17520
906.974	17554
907.091	17649
907.208	17722
907.324	17608
907.441	17497
907.557	17379
907.674	17341
907.79	17242
907.907	17356
908.023	17337
908.139	17330
908.256	17246
908.372	17223
908.488	17284
908.604	17064
908.72	17094
908.836	17045
908.952	17014
909.068	17022
909.184	17083
909.3	17056
909.415	17052
909.531	16991
909.647	16744
909.762	16691
909.878	16664
909.993	16710
910.108	16702
910.224	16668
910.339	16702
910.454	16565
910.57	16538
910.685	16512
910.8	16721
910.915	16672
911.03	16504
911.145	16318
911.259	16306
911.374	16238
911.489	16242
911.604	16162
911.718	16006
911.833	16048
911.947	16010
912.062	15895
912.176	16131
912.291	16010
912.405	16116
912.519	16284
912.633	16287
912.748	16131
912.862	16013
912.976	15983
913.09	15675
913.204	15797
913.318	15819
913.431	15991
913.545	15949
913.659	15907
913.772	15816
913.886	15774
914	15774
914.113	15743
914.226	15793
914.34	15747
914.453	15648
914.566	15629
914.68	15584
914.793	15523
914.906	15294
915.019	15264
915.132	15154
915.245	15287
915.358	15329
915.47	15287
915.583	15332
915.696	15306
915.809	15393
915.921	15412
916.034	15123
916.146	15089
916.259	15272
916.371	15249
916.483	15291
916.595	15135
916.708	15081
916.82	15169
916.932	15070
917.044	15066
917.156	15051
917.268	14830
917.38	14960
917.491	14906
917.603	14960
917.715	14933
917.826	15001
917.938	14773
918.049	14743
918.161	14925
918.272	14933
918.384	14986
918.495	14788
918.606	14663
918.717	14724
918.828	14720
918.939	14644
919.05	14610
919.161	14613
919.272	14518
919.383	14488
919.494	14663
919.604	14845
919.715	14610
919.826	14568
919.936	14617
920.047	14712
920.157	14617
920.267	14788
920.378	14625
920.488	14613
920.598	14876
920.708	14979
920.818	14670
920.928	14735
921.038	14906
921.148	14883
921.258	14697
921.368	14537
921.477	14461
921.587	14336
921.697	14324
921.806	14362
921.916	14301
922.025	14073
922.134	14062
922.244	13921
922.353	14126
922.462	13974
922.571	13822
922.68	13708
922.789	13662
922.898	13624
923.007	13567
923.116	13658
923.224	13636
923.333	13537
923.442	13422
923.55	13525
923.659	13529
923.767	13582
923.876	13453
923.984	13468
924.092	13282
924.201	13457
924.309	13502
924.417	13419
924.525	13259
924.633	13255
924.741	14202
924.849	13129
924.956	13228
925.064	13053
925.172	13126
925.279	13126
925.387	13061
925.494	13061
925.602	13175
925.709	13042
925.816	12985
925.924	12958
926.031	13129
926.138	13012
926.245	12989
926.352	12985
926.459	13095
926.566	13061
926.673	12932
926.779	12825
926.886	12806
926.993	12578
927.099	12627
927.206	12631
927.312	12631
927.419	12662
927.525	12536
927.631	12703
927.737	12551
927.843	12426
927.95	12410
928.056	12342
928.162	12483
928.267	12479
928.373	13008
928.479	12464
928.585	12346
928.69	12414
928.796	12414
928.901	12300
929.007	12213
929.112	12353
929.218	12266
929.323	12148
929.428	12167
929.533	12350
929.638	12148
929.743	12091
929.848	12190
929.953	12079
930.058	12015
930.163	11817
930.267	11885
930.372	11946
930.477	11824
930.581	11999
930.685	11828
930.79	11813
930.894	11779
930.998	11714
931.103	11863
931.207	11471
931.311	11402
931.415	11315
931.519	11181
931.623	11193
