Data from test_V78500241_3011.txt Node
Date: Fri Mar 25 16:02:39 CST 2022
User: usil
Spectrometer: V785-0024
Trigger mode: 0
Integration Time (sec): 4.000000E-1
Scans to average: 1
Nonlinearity correction enabled: false
Boxcar width: 0
Storing dark spectrum: false
XAxis mode: Wavelengths
Number of Pixels in Spectrum: 1024
>>>>>Begin Spectral Data<<<<<
801.071	28519
801.214	28546
801.356	28325
801.499	28200
801.641	28158
801.783	28143
801.926	28196
802.068	28025
802.211	28097
802.353	27873
802.496	27888
802.638	27835
802.78	27759
802.923	27660
803.065	27625
803.208	27816
803.35	27793
803.492	28109
803.635	28112
803.777	27968
803.919	27934
804.061	28382
804.204	28215
804.346	27907
804.488	28017
804.63	28078
804.773	27987
804.915	28063
805.057	28109
805.199	28025
805.341	28352
805.483	28322
805.626	28223
805.768	28223
805.91	28166
806.052	28166
806.194	28109
806.336	28337
806.478	28223
806.62	28192
806.762	28314
806.904	28466
807.046	28831
807.188	28565
807.33	28691
807.472	28820
807.614	28615
807.756	28725
807.898	28489
808.04	28436
808.182	28512
808.324	28565
808.465	28531
808.607	28706
808.749	28908
808.891	29025
809.033	29079
809.174	29056
809.316	28972
809.458	28847
809.6	28847
809.741	28919
809.883	29018
810.025	29128
810.166	29189
810.308	29181
810.45	29166
810.591	29037
810.733	28843
810.875	28733
811.016	28854
811.158	28805
811.299	28995
811.441	29136
811.582	29067
811.724	29010
811.865	28809
812.007	28771
812.148	28980
812.29	29048
812.431	29113
812.573	29322
812.714	29273
812.855	29395
812.997	29520
813.138	29653
813.279	29547
813.421	29395
813.562	29334
813.703	29071
813.845	29288
813.986	28816
814.127	28557
814.268	28656
814.41	28531
814.551	28603
814.692	28679
814.833	28618
814.974	28622
815.115	28698
815.256	28447
815.397	28508
815.539	28675
815.68	28470
815.821	28291
815.962	28390
816.103	28325
816.244	28265
816.385	28192
816.526	28055
816.666	28002
816.807	27953
816.948	27888
817.089	28078
817.23	27930
817.371	27854
817.512	27949
817.653	27972
817.793	27880
817.934	28029
818.075	27968
818.216	27922
818.356	27869
818.497	27888
818.638	27633
818.778	27667
818.919	27637
819.06	27728
819.2	27846
819.341	27991
819.481	27964
819.622	28169
819.762	28291
819.903	28188
820.043	28029
820.184	28013
820.324	28010
820.465	28246
820.605	28147
820.746	28036
820.886	27804
821.026	28017
821.167	27975
821.307	28055
821.447	27857
821.588	27823
821.728	27713
821.868	27652
822.008	27591
822.149	27321
822.289	27515
822.429	27218
822.569	27119
822.709	27028
822.849	26952
822.99	26952
823.13	26857
823.27	26899
823.41	26739
823.55	26670
823.69	26815
823.83	26743
823.97	26693
824.11	26381
824.25	26396
824.389	26408
824.529	26632
824.669	26461
824.809	26629
824.949	26644
825.089	26720
825.228	26659
825.368	26377
825.508	26317
825.648	26408
825.787	26434
825.927	26621
826.067	26442
826.206	26514
826.346	26484
826.485	26453
826.625	26423
826.765	26419
826.904	26457
827.044	26122
827.183	26225
827.323	26233
827.462	26221
827.601	26195
827.741	26062
827.88	26180
828.02	26031
828.159	26069
828.298	26172
828.437	26218
828.577	26084
828.716	26240
828.855	26062
828.994	25860
829.134	25761
829.273	25940
829.412	25761
829.551	25685
829.69	25742
829.829	25917
829.968	25928
830.107	25959
830.246	25841
830.385	25864
830.524	25845
830.663	25601
830.802	25700
830.941	25487
831.08	25285
831.219	25479
831.357	25495
831.496	25620
831.635	25529
831.774	25457
831.913	25415
832.051	25331
832.19	25266
832.329	25350
832.467	25202
832.606	25076
832.744	25050
832.883	25164
833.022	25091
833.16	24947
833.299	25046
833.437	25053
833.576	25202
833.714	25107
833.852	25278
833.991	25274
834.129	25396
834.267	25312
834.406	25179
834.544	25209
834.682	25088
834.821	25213
834.959	25270
835.097	25065
835.235	25179
835.373	25091
835.511	25202
835.65	25038
835.788	25027
835.926	24954
836.064	24871
836.202	24867
836.34	24894
836.478	25031
836.615	25012
836.753	25050
836.891	25012
837.029	25042
837.167	25031
837.305	24916
837.443	24719
837.58	24894
837.718	24863
837.856	24970
837.993	24711
838.131	24783
838.269	24791
838.406	24715
838.544	24673
838.681	24521
838.819	24399
838.956	24429
839.094	24285
839.231	24418
839.369	24589
839.506	24673
839.643	24547
839.781	24445
839.918	24194
840.055	24395
840.193	24357
840.33	24178
840.467	24262
840.604	24285
840.742	24486
840.879	24110
841.016	24114
841.153	24079
841.29	24391
841.427	24232
841.564	24285
841.701	24330
841.838	24152
841.975	24125
842.112	24155
842.249	24136
842.385	23988
842.522	24190
842.659	23958
842.796	24091
842.933	23916
843.069	23954
843.206	24034
843.343	23980
843.479	23977
843.616	23977
843.752	23714
843.889	23794
844.025	23726
844.162	23798
844.298	23680
844.435	23794
844.571	23684
844.708	23824
844.844	23897
844.98	23927
845.117	23874
845.253	23684
845.389	23471
845.525	23596
845.661	23604
845.798	23558
845.934	23467
846.07	23383
846.206	23493
846.342	23512
846.478	23417
846.614	23315
846.75	23052
846.886	23071
847.022	23341
847.158	23235
847.294	23204
847.429	23246
847.565	23128
847.701	23543
847.837	22976
847.972	22927
848.108	23109
848.244	23006
848.379	22843
848.515	22607
848.65	22828
848.786	22744
848.921	22797
849.057	22889
849.192	22835
849.328	22911
849.463	22828
849.598	22698
849.734	22637
849.869	22603
850.004	22538
850.14	22523
850.275	22554
850.41	22341
850.545	22459
850.68	22497
850.815	22592
850.95	22516
851.085	22778
851.22	22706
851.355	22584
851.49	22474
851.625	22489
851.76	22485
851.895	22512
852.03	22474
852.165	22561
852.299	22634
852.434	22592
852.569	22656
852.703	22580
852.838	22584
852.973	22721
853.107	22694
853.242	22504
853.376	22333
853.511	22215
853.645	22287
853.78	22428
853.914	22272
854.048	22360
854.183	22322
854.317	22443
854.451	22462
854.585	22360
854.72	22333
854.854	22546
854.988	22234
855.122	22451
855.256	22223
855.39	22363
855.524	22371
855.658	22451
855.792	22470
855.926	22341
856.06	22367
856.194	22508
856.327	22344
856.461	22440
856.595	22242
856.729	22386
856.862	22424
856.996	22481
857.13	22462
857.263	22535
857.397	22565
857.53	22478
857.664	22421
857.797	22306
857.931	22493
858.064	22371
858.197	22375
858.331	22474
858.464	22295
858.597	22375
858.731	22360
858.864	22405
858.997	22238
859.13	22223
859.263	22485
859.396	22451
859.529	22466
859.662	22344
859.795	22253
859.928	22333
860.061	22550
860.194	22554
860.327	22470
860.46	22398
860.592	22516
860.725	22538
860.858	22417
860.99	22424
861.123	22367
861.256	22341
861.388	22310
861.521	23079
861.653	22310
861.786	22093
861.918	22135
862.05	22253
862.183	22215
862.315	22363
862.447	22398
862.58	22291
862.712	22055
862.844	22093
862.976	22070
863.108	22120
863.24	22485
863.372	21994
863.504	22013
863.636	22166
863.768	22116
863.9	21941
864.032	22029
864.164	21994
864.296	22192
864.428	22238
864.559	22139
864.691	22143
864.823	22120
864.954	22010
865.086	21972
865.217	21953
865.349	21983
865.48	21911
865.612	22070
865.743	22150
865.875	21922
866.006	22128
866.137	21903
866.269	21953
866.4	21953
866.531	21880
866.662	21804
866.793	21793
866.924	21873
867.055	21888
867.186	21876
867.317	21823
867.448	21857
867.579	21911
867.71	21835
867.841	21827
867.972	21888
868.103	21873
868.233	21827
868.364	21926
868.495	22006
868.625	22086
868.756	22120
868.886	22124
869.017	22147
869.147	22185
869.278	22124
869.408	22135
869.539	22215
869.669	22265
869.799	22207
869.929	22200
870.06	22147
870.19	22493
870.32	22470
870.45	22466
870.58	22573
870.71	22740
870.84	22592
870.97	22512
871.1	22611
871.23	22706
871.36	22618
871.489	22630
871.619	22660
871.749	22786
871.879	22771
872.008	22904
872.138	22660
872.267	22759
872.397	22516
872.526	22542
872.656	22603
872.785	22523
872.915	22717
873.044	22850
873.173	22805
873.303	22729
873.432	22900
873.561	22862
873.69	22679
873.819	22725
873.948	22801
874.077	22774
874.206	22694
874.335	22721
874.464	22752
874.593	23003
874.722	22927
874.851	23014
874.979	23033
875.108	23056
875.237	22820
875.365	22835
875.494	22854
875.623	23025
875.751	22908
875.88	22930
876.008	23113
876.136	23128
876.265	23379
876.393	23356
876.521	23554
876.65	23395
876.778	23368
876.906	23265
877.034	23299
877.162	23330
877.29	23200
877.418	23280
877.546	23421
877.674	23326
877.802	23292
877.93	23242
878.058	23360
878.185	23140
878.313	23216
878.441	23379
878.568	23140
878.696	23341
878.824	23315
878.951	23376
879.079	23501
879.206	23490
879.333	23543
879.461	23311
879.588	23512
879.715	23436
879.842	23566
879.97	23433
880.097	23170
880.224	23098
880.351	23200
880.478	23155
880.605	23052
880.732	23067
880.859	23395
880.986	23094
881.112	23151
881.239	22949
881.366	22873
881.493	22706
881.619	22622
881.746	22752
881.872	22668
881.999	22721
882.125	22588
882.252	22660
882.378	22683
882.505	22839
882.631	22497
882.757	22417
882.883	22440
883.01	22253
883.136	22390
883.262	22196
883.388	22074
883.514	22310
883.64	22462
883.766	22318
883.892	22120
884.018	22070
884.143	22299
884.269	22287
884.395	22097
884.52	21983
884.646	22048
884.772	21819
884.897	21922
885.023	22029
885.148	22109
885.274	22124
885.399	22101
885.524	22055
885.65	22086
885.775	22063
885.9	22032
886.025	22013
886.15	22097
886.275	21937
886.4	21842
886.525	22048
886.65	21915
886.775	21930
886.9	22059
887.025	22188
887.149	21994
887.274	21930
887.399	21865
887.523	21736
887.648	21667
887.773	21561
887.897	21857
888.021	21804
888.146	21709
888.27	21880
888.395	21838
888.519	21747
888.643	21739
888.767	21831
888.891	21622
889.015	21679
889.139	21591
889.263	21462
889.387	21595
889.511	21766
889.635	21679
889.759	21466
889.883	21511
890.006	21496
890.13	21583
890.254	21405
890.377	21405
890.501	21294
890.624	21329
890.748	21321
890.871	21291
890.995	21165
891.118	20948
891.241	21028
891.364	21157
891.488	21138
891.611	21112
891.734	21081
891.857	21157
891.98	21150
892.103	21058
892.226	21093
892.349	21104
892.471	20788
892.594	21009
892.717	21009
892.839	20891
892.962	20990
893.085	21096
893.207	21047
893.33	20883
893.452	20838
893.575	21055
893.697	20960
893.819	21127
893.941	21241
894.064	21119
894.186	20986
894.308	20982
894.43	21146
894.552	21138
894.674	20994
894.796	20967
894.918	20925
895.04	20921
895.161	20956
895.283	20998
895.405	21066
895.526	20975
895.648	20986
895.769	21020
895.891	21005
896.012	21028
896.134	21005
896.255	21096
896.376	20899
896.498	20895
896.619	21036
896.74	20948
896.861	21001
896.982	21329
897.103	21329
897.224	21135
897.345	21169
897.466	21104
897.587	21173
897.708	21412
897.828	21321
897.949	21116
898.07	21062
898.19	21089
898.311	21188
898.431	21051
898.552	21169
898.672	21256
898.792	21317
898.913	21108
899.033	21013
899.153	20994
899.273	20861
899.393	20895
899.513	20895
899.633	20853
899.753	20982
899.873	20849
899.993	20933
900.113	20921
900.232	20849
900.352	20842
900.472	20796
900.591	20735
900.711	20746
900.83	20823
900.95	20838
901.069	20644
901.189	20602
901.308	20362
901.427	20313
901.546	20187
901.665	20320
901.784	20286
901.904	20161
902.023	20012
902.141	19795
902.26	19719
902.379	19913
902.498	19852
902.617	19715
902.735	19761
902.854	19700
902.973	19548
903.091	19407
903.21	19400
903.328	19472
903.446	19320
903.565	19175
903.683	19225
903.801	19145
903.919	19270
904.038	19213
904.156	19107
904.274	19034
904.392	19019
904.51	18954
904.627	18928
904.745	19031
904.863	19004
904.981	18741
905.098	18627
905.216	18661
905.334	18608
905.451	18597
905.569	18696
905.686	18608
905.803	18715
905.921	18399
906.038	18483
906.155	18448
906.272	18323
906.389	18448
906.506	18197
906.623	18174
906.74	18152
906.857	18125
906.974	17988
907.091	18174
907.208	18239
907.324	18121
907.441	18022
907.557	18034
907.674	17977
907.79	17882
907.907	17771
908.023	17901
908.139	17893
908.256	17748
908.372	17661
908.488	17813
908.604	17623
908.72	17646
908.836	17611
908.952	17703
909.068	17608
909.184	17672
909.3	17524
909.415	17589
909.531	17573
909.647	17345
909.762	17258
909.878	17216
909.993	17284
910.108	17174
910.224	17227
910.339	17212
910.454	17147
910.57	17022
910.685	17010
910.8	17315
910.915	17258
911.03	17083
911.145	16911
911.259	16885
911.374	16980
911.489	16710
911.604	16691
911.718	16736
911.833	16672
911.947	16508
912.062	16363
912.176	16531
912.291	16580
912.405	16607
912.519	16702
912.633	16801
912.748	16767
912.862	16523
912.976	16428
913.09	16375
913.204	16424
913.318	16303
913.431	16478
913.545	16485
913.659	16462
913.772	16424
913.886	16238
914	16253
914.113	16303
914.226	16322
914.34	16215
914.453	15945
914.566	16200
914.68	16086
914.793	16074
914.906	15915
915.019	15918
915.132	15831
915.245	15819
915.358	15854
915.47	15774
915.583	15831
915.696	15823
915.809	15888
915.921	15888
916.034	15762
916.146	15641
916.259	15743
916.371	15781
916.483	15831
916.595	15675
916.708	15572
916.82	15648
916.932	15523
917.044	15564
917.156	15557
917.268	15469
917.38	15462
917.491	15370
917.603	15412
917.715	15492
917.826	15511
917.938	15272
918.049	15302
918.161	15283
918.272	15458
918.384	15431
918.495	15393
918.606	15207
918.717	15058
918.828	15169
918.939	15119
919.05	15058
919.161	15211
919.272	14906
919.383	15077
919.494	15222
919.604	15351
919.715	15131
919.826	15032
919.936	15062
920.047	15218
920.157	15161
920.267	15344
920.378	15077
920.488	15249
920.598	15260
920.708	15386
920.818	15211
920.928	15233
921.038	15344
921.148	15351
921.258	15051
921.368	15036
921.477	14807
921.587	14788
921.697	14739
921.806	14842
921.916	14674
922.025	14522
922.134	14579
922.244	14419
922.353	14480
922.462	14358
922.571	14294
922.68	14138
922.789	14187
922.898	14073
923.007	14065
923.116	14119
923.224	14058
923.333	14008
923.442	14005
923.55	14031
923.659	13917
923.767	13967
923.876	13959
923.984	13974
924.092	13814
924.201	13830
924.309	13772
924.417	13921
924.525	13830
924.633	13803
924.741	14552
924.849	13556
924.956	13696
925.064	13518
925.172	13415
925.279	13514
925.387	13586
925.494	13400
925.602	13708
925.709	13552
925.816	13407
925.924	13384
926.031	13506
926.138	13422
926.245	13495
926.352	13415
926.459	13514
926.566	13540
926.673	13320
926.779	13225
926.886	13198
926.993	13118
927.099	13015
927.206	13088
927.312	13061
927.419	13034
927.525	12966
927.631	13027
927.737	12954
927.843	12871
927.95	12802
928.056	12886
928.162	12840
928.267	12829
928.373	13571
928.479	12970
928.585	12703
928.69	12844
928.796	12764
928.901	12650
929.007	12555
929.112	12734
929.218	12684
929.323	12540
929.428	12601
929.533	12669
929.638	12593
929.743	12506
929.848	12547
929.953	12525
930.058	12445
930.163	12235
930.267	12338
930.372	12338
930.477	12152
930.581	12448
930.685	12243
930.79	12155
930.894	12148
930.998	12072
931.103	12163
931.207	11847
931.311	11771
931.415	11653
931.519	11566
931.623	11452
