Data from test_V78500241_371.txt Node
Date: Fri Mar 25 15:44:22 CST 2022
User: usil
Spectrometer: V785-0024
Trigger mode: 0
Integration Time (sec): 4.000000E-1
Scans to average: 1
Nonlinearity correction enabled: false
Boxcar width: 0
Storing dark spectrum: false
XAxis mode: Wavelengths
Number of Pixels in Spectrum: 1024
>>>>>Begin Spectral Data<<<<<
801.071	29615
801.214	29627
801.356	29375
801.499	29189
801.641	29303
801.783	29155
801.926	29360
802.068	29162
802.211	29117
802.353	28999
802.496	28946
802.638	28771
802.78	28896
802.923	28850
803.065	28885
803.208	28843
803.35	28797
803.492	28972
803.635	29048
803.777	29022
803.919	29010
804.061	29417
804.204	29109
804.346	28961
804.488	29128
804.63	29067
804.773	29128
804.915	28984
805.057	29208
805.199	28934
805.341	29250
805.483	29136
805.626	29067
805.768	28953
805.91	29140
806.052	29143
806.194	29102
806.336	29383
806.478	29322
806.62	29128
806.762	29223
806.904	29421
807.046	29646
807.188	29573
807.33	29786
807.472	29745
807.614	29539
807.756	29596
807.898	29444
808.04	29425
808.182	29455
808.324	29315
808.465	29406
808.607	29638
808.749	29786
808.891	29817
809.033	30133
809.174	29805
809.316	29862
809.458	29802
809.6	29824
809.741	29939
809.883	29927
810.025	30254
810.166	30121
810.308	30114
810.45	30057
810.591	30030
810.733	29828
810.875	29840
811.016	29779
811.158	29828
811.299	29882
811.441	29954
811.582	29958
811.724	29771
811.865	29779
812.007	29843
812.148	29908
812.29	29775
812.431	29977
812.573	30190
812.714	30095
812.855	30353
812.997	30448
813.138	30654
813.279	30593
813.421	30346
813.562	30365
813.703	30091
813.845	30098
813.986	29809
814.127	29615
814.268	29387
814.41	29562
814.551	29433
814.692	29543
814.833	29516
814.974	29501
815.115	29486
815.256	29326
815.397	29417
815.539	29383
815.68	29307
815.821	29246
815.962	29318
816.103	29311
816.244	29178
816.385	29006
816.526	29056
816.666	28938
816.807	28763
816.948	28725
817.089	28835
817.23	28949
817.371	28778
817.512	28736
817.653	28588
817.793	28668
817.934	28733
818.075	28869
818.216	28717
818.356	28847
818.497	28580
818.638	28379
818.778	28618
818.919	28398
819.06	28618
819.2	28862
819.341	28702
819.481	28679
819.622	28801
819.762	29098
819.903	28953
820.043	28904
820.184	28949
820.324	28869
820.465	28930
820.605	28786
820.746	28881
820.886	28740
821.026	28942
821.167	28717
821.307	28908
821.447	28755
821.588	28588
821.728	28535
821.868	28405
822.008	28124
822.149	28082
822.289	28101
822.429	28010
822.569	27884
822.709	27781
822.849	27755
822.99	27717
823.13	27724
823.27	27466
823.41	27595
823.55	27310
823.69	27526
823.83	27466
823.97	27523
824.11	27329
824.25	27195
824.389	27241
824.529	27367
824.669	27279
824.809	27329
824.949	27332
825.089	27317
825.228	27325
825.368	27184
825.508	27275
825.648	27093
825.787	27093
825.927	27119
826.067	27096
826.206	27066
826.346	27051
826.485	27165
826.625	27222
826.765	27245
826.904	27230
827.044	26807
827.183	26785
827.323	26762
827.462	26785
827.601	26781
827.741	26746
827.88	26876
828.02	26765
828.159	26815
828.298	26781
828.437	26758
828.577	26629
828.716	26929
828.855	26693
828.994	26651
829.134	26476
829.273	26568
829.412	26476
829.551	26408
829.69	26412
829.829	26492
829.968	26488
830.107	26564
830.246	26442
830.385	26374
830.524	26389
830.663	26229
830.802	26145
830.941	26005
831.08	25970
831.219	25966
831.357	26176
831.496	26294
831.635	26081
831.774	25940
831.913	25875
832.051	25871
832.19	25837
832.329	25845
832.467	25753
832.606	25674
832.744	25662
832.883	25670
833.022	25624
833.16	25776
833.299	25696
833.437	25616
833.576	25700
833.714	25681
833.852	25788
833.991	25784
834.129	25875
834.267	25883
834.406	25734
834.544	25556
834.682	25708
834.821	25616
834.959	25651
835.097	25601
835.235	25803
835.373	25590
835.511	25544
835.65	25590
835.788	25586
835.926	25335
836.064	25225
836.202	25411
836.34	25540
836.478	25415
836.615	25460
836.753	25445
836.891	25582
837.029	25499
837.167	25533
837.305	25407
837.443	25468
837.58	25324
837.718	25407
837.856	25327
837.993	25244
838.131	25232
838.269	25255
838.406	25285
838.544	25065
838.681	24935
838.819	24954
838.956	24802
839.094	24776
839.231	24791
839.369	24958
839.506	25179
839.643	24962
839.781	24597
839.918	24658
840.055	24707
840.193	24711
840.33	24589
840.467	24505
840.604	24677
840.742	25000
840.879	24574
841.016	24589
841.153	24502
841.29	24745
841.427	24608
841.564	24688
841.701	24726
841.838	24422
841.975	24494
842.112	24372
842.249	24388
842.385	24407
842.522	24658
842.659	24505
842.796	24361
842.933	24319
843.069	24346
843.206	24304
843.343	24410
843.479	24319
843.616	24304
843.752	24087
843.889	24190
844.025	24296
844.162	24018
844.298	24178
844.435	24140
844.571	24087
844.708	24144
844.844	24235
844.98	24201
845.117	24262
845.253	23939
845.389	23935
845.525	24079
845.661	23889
845.798	23840
845.934	23878
846.07	23843
846.206	23870
846.342	24018
846.478	23790
846.614	23528
846.75	23528
846.886	23547
847.022	23657
847.158	23551
847.294	23478
847.429	23596
847.565	23528
847.701	23722
847.837	23303
847.972	23162
848.108	23311
848.244	23326
848.379	23117
848.515	23197
848.65	23121
848.786	22953
848.921	23166
849.057	23178
849.192	23128
849.328	23098
849.463	23003
849.598	23102
849.734	23003
849.869	22949
850.004	22664
850.14	22930
850.275	22896
850.41	22763
850.545	22778
850.68	22809
850.815	22881
850.95	22835
851.085	22915
851.22	22953
851.355	22816
851.49	22675
851.625	22843
851.76	22683
851.895	22801
852.03	22729
852.165	22767
852.299	22767
852.434	22885
852.569	22786
852.703	22797
852.838	22858
852.973	22980
853.107	22946
853.242	22698
853.376	22683
853.511	22500
853.645	22637
853.78	22793
853.914	22675
854.048	22565
854.183	22527
854.317	22672
854.451	22820
854.585	22645
854.72	22527
854.854	22683
854.988	22527
855.122	22649
855.256	22443
855.39	22561
855.524	22713
855.658	22580
855.792	22527
855.926	22752
856.06	22679
856.194	22637
856.327	22607
856.461	22531
856.595	22641
856.729	22618
856.862	22713
856.996	22664
857.13	22664
857.263	22782
857.397	22649
857.53	22565
857.664	22542
857.797	22637
857.931	22733
858.064	22641
858.197	22698
858.331	22584
858.464	22443
858.597	22531
858.731	22626
858.864	22523
858.997	22527
859.13	22481
859.263	22675
859.396	22748
859.529	22577
859.662	22599
859.795	22580
859.928	22649
860.061	22710
860.194	22740
860.327	22683
860.46	22607
860.592	22740
860.725	22763
860.858	22668
860.99	22519
861.123	22478
861.256	22546
861.388	22542
861.521	23071
861.653	22417
861.786	22394
861.918	22474
862.05	22337
862.183	22459
862.315	22584
862.447	22557
862.58	22409
862.712	22417
862.844	22299
862.976	22284
863.108	22337
863.24	22847
863.372	22219
863.504	22173
863.636	22135
863.768	22382
863.9	22242
864.032	22356
864.164	22211
864.296	22242
864.428	22363
864.559	22337
864.691	22447
864.823	22284
864.954	22200
865.086	22215
865.217	22162
865.349	22112
865.48	22154
865.612	22074
865.743	22238
865.875	22204
866.006	22078
866.137	22211
866.269	22211
866.4	22109
866.531	22021
866.662	22097
866.793	21979
866.924	22040
867.055	22006
867.186	22029
867.317	22067
867.448	21876
867.579	22025
867.71	22032
867.841	22051
867.972	22006
868.103	21945
868.233	22116
868.364	22090
868.495	22082
868.625	22223
868.756	22497
868.886	22268
869.017	22356
869.147	22337
869.278	22508
869.408	22249
869.539	22360
869.669	22360
869.799	22402
869.929	22409
870.06	22348
870.19	22668
870.32	22554
870.45	22550
870.58	22637
870.71	22660
870.84	22835
870.97	22736
871.1	22626
871.23	22740
871.36	22809
871.489	22767
871.619	22854
871.749	22797
871.879	22927
872.008	23048
872.138	22782
872.267	22839
872.397	22805
872.526	22649
872.656	22729
872.785	22748
872.915	22771
873.044	22999
873.173	22759
873.303	22961
873.432	22911
873.561	22976
873.69	22915
873.819	23018
873.948	22991
874.077	22881
874.206	22797
874.335	22869
874.464	22995
874.593	23052
874.722	23128
874.851	23265
874.979	23181
875.108	23181
875.237	23029
875.365	22987
875.494	23136
875.623	23208
875.751	23018
875.88	23181
876.008	23155
876.136	23296
876.265	23482
876.393	23581
876.521	23623
876.65	23558
876.778	23501
876.906	23448
877.034	23364
877.162	23512
877.29	23425
877.418	23421
877.546	23505
877.674	23497
877.802	23478
877.93	23509
878.058	23417
878.185	23372
878.313	23471
878.441	23516
878.568	23337
878.696	23478
878.824	23395
878.951	23433
879.079	23619
879.206	23707
879.333	23665
879.461	23425
879.588	23516
879.715	23627
879.842	23718
879.97	23585
880.097	23254
880.224	23387
880.351	23311
880.478	23273
880.605	23140
880.732	23334
880.859	23414
880.986	23231
881.112	23387
881.239	23200
881.366	23022
881.493	23025
881.619	22847
881.746	22805
881.872	22835
881.999	22858
882.125	22786
882.252	22896
882.378	22763
882.505	22873
882.631	22672
882.757	22527
882.883	22634
883.01	22672
883.136	22428
883.262	22417
883.388	22375
883.514	22485
883.64	22516
883.766	22500
883.892	22261
884.018	22348
884.143	22504
884.269	22599
884.395	22261
884.52	22116
884.646	22200
884.772	22051
884.897	21991
885.023	22204
885.148	22382
885.274	22223
885.399	22272
885.524	22105
885.65	22188
885.775	22131
885.9	22029
886.025	22329
886.15	22154
886.275	22032
886.4	22010
886.525	22086
886.65	22002
886.775	22116
886.9	22276
887.025	22356
887.149	22116
887.274	21934
887.399	21937
887.523	22013
887.648	21804
887.773	21800
887.897	21953
888.021	21949
888.146	21835
888.27	22029
888.395	22036
888.519	21987
888.643	21960
888.767	21945
888.891	21637
889.015	21660
889.139	21747
889.263	21667
889.387	21778
889.511	21846
889.635	21873
889.759	21622
889.883	21675
890.006	21675
890.13	21751
890.254	21530
890.377	21549
890.501	21428
890.624	21325
890.748	21488
890.871	21302
890.995	21294
891.118	21184
891.241	21211
891.364	21032
891.488	21321
891.611	21199
891.734	21096
891.857	21260
891.98	21287
892.103	21310
892.226	21214
892.349	21165
892.471	20975
892.594	21188
892.717	21199
892.839	21100
892.962	21207
893.085	21074
893.207	21070
893.33	21005
893.452	21051
893.575	21173
893.697	21070
893.819	21180
893.941	21321
894.064	21233
894.186	21055
894.308	21043
894.43	21176
894.552	21370
894.674	21051
894.796	20899
894.918	21119
895.04	20971
895.161	21055
895.283	21249
895.405	21081
895.526	21039
895.648	21192
895.769	21116
895.891	21138
896.012	21272
896.134	21237
896.255	21096
896.376	20998
896.498	21157
896.619	21135
896.74	21055
896.861	21214
896.982	21466
897.103	21713
897.224	21405
897.345	21355
897.466	21268
897.587	21401
897.708	21488
897.828	21268
897.949	21199
898.07	21203
898.19	21226
898.311	21389
898.431	21127
898.552	21233
898.672	21325
898.792	21317
898.913	21188
899.033	21165
899.153	21055
899.273	20891
899.393	20986
899.513	21001
899.633	21051
899.753	21077
899.873	20998
899.993	21055
900.113	21020
900.232	20963
900.352	20826
900.472	20762
900.591	20758
900.711	20758
900.83	20659
900.95	20914
901.069	20902
901.189	20765
901.308	20454
901.427	20301
901.546	20442
901.665	20400
901.784	20457
901.904	20237
902.023	20168
902.141	19837
902.26	19864
902.379	19928
902.498	19860
902.617	19765
902.735	19902
902.854	19723
902.973	19731
903.091	19529
903.21	19438
903.328	19460
903.446	19449
903.565	19308
903.683	19297
903.801	19122
903.919	19263
904.038	19103
904.156	19076
904.274	19164
904.392	18939
904.51	19053
904.627	19000
904.745	19023
904.863	19019
904.981	18776
905.098	18673
905.216	18665
905.334	18833
905.451	18673
905.569	18646
905.686	18757
905.803	18688
905.921	18559
906.038	18623
906.155	18422
906.272	18399
906.389	18315
906.506	18167
906.623	18292
906.74	18220
906.857	18076
906.974	18174
907.091	18247
907.208	18365
907.324	18186
907.441	18136
907.557	17851
907.674	17999
907.79	17836
907.907	17866
908.023	17942
908.139	17920
908.256	17935
908.372	17771
908.488	17737
908.604	17535
908.72	17596
908.836	17649
908.952	17619
909.068	17570
909.184	17707
909.3	17630
909.415	17646
909.531	17623
909.647	17280
909.762	17391
909.878	17261
909.993	17334
910.108	17330
910.224	17284
910.339	17159
910.454	17277
910.57	17166
910.685	16900
910.8	17277
910.915	17204
911.03	17132
911.145	16938
911.259	16828
911.374	16831
911.489	16858
911.604	16854
911.718	16569
911.833	16508
911.947	16615
912.062	16481
912.176	16531
912.291	16615
912.405	16679
912.519	16847
912.633	16809
912.748	16649
912.862	16470
912.976	16386
913.09	16246
913.204	16417
913.318	16344
913.431	16516
913.545	16550
913.659	16474
913.772	16348
913.886	16284
914	16230
914.113	16272
914.226	16348
914.34	16223
914.453	16112
914.566	16249
914.68	16078
914.793	16105
914.906	15838
915.019	15831
915.132	15819
915.245	15698
915.358	15835
915.47	15789
915.583	15778
915.696	15766
915.809	15911
915.921	15876
916.034	15663
916.146	15637
916.259	15679
916.371	15667
916.483	15774
916.595	15523
916.708	15557
916.82	15682
916.932	15557
917.044	15507
917.156	15538
917.268	15424
917.38	15519
917.491	15351
917.603	15519
917.715	15469
917.826	15580
917.938	15272
918.049	15222
918.161	15374
918.272	15485
918.384	15568
918.495	15389
918.606	15188
918.717	15051
918.828	15116
918.939	15154
919.05	15024
919.161	15222
919.272	14952
919.383	14933
919.494	15123
919.604	15256
919.715	15104
919.826	14948
919.936	15032
920.047	15142
920.157	15127
920.267	15249
920.378	15123
920.488	15093
920.598	15188
920.708	15363
920.818	15203
920.928	15176
921.038	15325
921.148	15340
921.258	15055
921.368	14902
921.477	14773
921.587	14823
921.697	14720
921.806	14872
921.916	14636
922.025	14511
922.134	14427
922.244	14419
922.353	14549
922.462	14324
922.571	14282
922.68	14092
922.789	14065
922.898	14115
923.007	14107
923.116	14020
923.224	14012
923.333	14054
923.442	13959
923.55	13875
923.659	13871
923.767	14008
923.876	13795
923.984	13875
924.092	13776
924.201	13799
924.309	13860
924.417	13734
924.525	13765
924.633	13731
924.741	14560
924.849	13518
924.956	13624
925.064	13419
925.172	13426
925.279	13422
925.387	13449
925.494	13453
925.602	13567
925.709	13415
925.816	13403
925.924	13362
926.031	13422
926.138	13343
926.245	13419
926.352	13320
926.459	13339
926.566	13464
926.673	13236
926.779	13137
926.886	13141
926.993	13057
927.099	12943
927.206	12966
927.312	12913
927.419	13027
927.525	12993
927.631	12970
927.737	12840
927.843	12863
927.95	12719
928.056	12745
928.162	12837
928.267	12802
928.373	13377
928.479	12772
928.585	12662
928.69	12711
928.796	12722
928.901	12722
929.007	12494
929.112	12639
929.218	12566
929.323	12551
929.428	12452
929.533	12681
929.638	12448
929.743	12452
929.848	12563
929.953	12418
930.058	12350
930.163	12273
930.267	12304
930.372	12228
930.477	12144
930.581	12399
930.685	12205
930.79	12057
930.894	12079
930.998	12015
931.103	12163
931.207	11851
931.311	11661
931.415	11680
931.519	11414
931.623	11334
