Data from test_V78500241_225.txt Node
Date: Fri Mar 25 15:43:21 CST 2022
User: usil
Spectrometer: V785-0024
Trigger mode: 0
Integration Time (sec): 4.000000E-1
Scans to average: 1
Nonlinearity correction enabled: false
Boxcar width: 0
Storing dark spectrum: false
XAxis mode: Wavelengths
Number of Pixels in Spectrum: 1024
>>>>>Begin Spectral Data<<<<<
801.071	28801
801.214	28809
801.356	28485
801.499	28382
801.641	28500
801.783	28417
801.926	28481
802.068	28246
802.211	28242
802.353	28348
802.496	27899
802.638	27945
802.78	27972
802.923	27983
803.065	27789
803.208	27968
803.35	27861
803.492	28128
803.635	28135
803.777	28093
803.919	28109
804.061	28348
804.204	28063
804.346	27953
804.488	27968
804.63	27918
804.773	27949
804.915	27945
805.057	28074
805.199	27968
805.341	28181
805.483	28158
805.626	28097
805.768	27968
805.91	28139
806.052	28112
806.194	28006
806.336	28409
806.478	28120
806.62	28101
806.762	28177
806.904	28379
807.046	28599
807.188	28462
807.33	28538
807.472	28618
807.614	28432
807.756	28451
807.898	28443
808.04	28333
808.182	28272
808.324	28348
808.465	28394
808.607	28440
808.749	28527
808.891	28847
809.033	28820
809.174	28675
809.316	28786
809.458	28793
809.6	28535
809.741	28805
809.883	28854
810.025	28915
810.166	28801
810.308	28877
810.45	28850
810.591	28961
810.733	28694
810.875	28634
811.016	28546
811.158	28569
811.299	28786
811.441	28733
811.582	28835
811.724	28710
811.865	28500
812.007	28573
812.148	28592
812.29	28603
812.431	28831
812.573	29022
812.714	29006
812.855	29124
812.997	29162
813.138	29341
813.279	29246
813.421	29197
813.562	28980
813.703	28919
813.845	28831
813.986	28535
814.127	28325
814.268	28249
814.41	28272
814.551	28082
814.692	28379
814.833	28265
814.974	28230
815.115	28131
815.256	28093
815.397	28063
815.539	28105
815.68	27994
815.821	27831
815.962	28070
816.103	28090
816.244	27975
816.385	27720
816.526	27800
816.666	27534
816.807	27382
816.948	27412
817.089	27667
817.23	27526
817.371	27386
817.512	27249
817.653	27466
817.793	27260
817.934	27412
818.075	27363
818.216	27447
818.356	27401
818.497	27260
818.638	27043
818.778	27161
818.919	27127
819.06	27184
819.2	27268
819.341	27348
819.481	27264
819.622	27519
819.762	27728
819.903	27675
820.043	27317
820.184	27431
820.324	27389
820.465	27435
820.605	27420
820.746	27454
820.886	27325
821.026	27329
821.167	27359
821.307	27382
821.447	27291
821.588	27222
821.728	27036
821.868	26906
822.008	26785
822.149	26823
822.289	26678
822.429	26552
822.569	26537
822.709	26503
822.849	26313
822.99	26187
823.13	26259
823.27	26149
823.41	26077
823.55	26005
823.69	26195
823.83	26035
823.97	25841
824.11	25803
824.25	25826
824.389	25811
824.529	25837
824.669	25856
824.809	25887
824.949	25803
825.089	25951
825.228	25860
825.368	25677
825.508	25681
825.648	25750
825.787	25776
825.927	25814
826.067	25647
826.206	25601
826.346	25738
826.485	25681
826.625	25674
826.765	25757
826.904	25700
827.044	25339
827.183	25343
827.323	25202
827.462	25373
827.601	25384
827.741	25320
827.88	25419
828.02	25251
828.159	25202
828.298	25225
828.437	25251
828.577	25354
828.716	25400
828.855	25346
828.994	25038
829.134	24970
829.273	25206
829.412	25004
829.551	24966
829.69	24932
829.829	24981
829.968	24882
830.107	25057
830.246	24992
830.385	24954
830.524	24886
830.663	24760
830.802	24715
830.941	24597
831.08	24566
831.219	24589
831.357	24661
831.496	24753
831.635	24540
831.774	24525
831.913	24365
832.051	24353
832.19	24311
832.329	24330
832.467	24235
832.606	24155
832.744	24041
832.883	24300
833.022	24167
833.16	24159
833.299	24281
833.437	24121
833.576	24346
833.714	24235
833.852	24239
833.991	24273
834.129	24384
834.267	24281
834.406	24281
834.544	24209
834.682	24205
834.821	24148
834.959	24357
835.097	24102
835.235	24296
835.373	24281
835.511	24258
835.65	24015
835.788	24076
835.926	24015
836.064	23836
836.202	23912
836.34	24003
836.478	24174
836.615	24034
836.753	24049
836.891	24239
837.029	24159
837.167	23992
837.305	23882
837.443	23840
837.58	23707
837.718	24018
837.856	23885
837.993	23882
838.131	23874
838.269	23687
838.406	23748
838.544	23676
838.681	23459
838.819	23505
838.956	23360
839.094	23341
839.231	23353
839.369	23379
839.506	23646
839.643	23440
839.781	23299
839.918	23223
840.055	23311
840.193	23162
840.33	23162
840.467	23204
840.604	23246
840.742	23512
840.879	23094
841.016	23105
841.153	23159
841.29	23334
841.427	23113
841.564	23067
841.701	23124
841.838	23083
841.975	23124
842.112	22968
842.249	22972
842.385	22957
842.522	23204
842.659	23006
842.796	22843
842.933	22908
843.069	22797
843.206	22816
843.343	22961
843.479	22854
843.616	22908
843.752	22702
843.889	22580
844.025	22809
844.162	22649
844.298	22713
844.435	22656
844.571	22645
844.708	22721
844.844	22885
844.98	22687
845.117	22763
845.253	22656
845.389	22554
845.525	22474
845.661	22615
845.798	22299
845.934	22421
846.07	22356
846.206	22405
846.342	22577
846.478	22337
846.614	22147
846.75	22025
846.886	22139
847.022	22135
847.158	21934
847.294	22219
847.429	22036
847.565	22044
847.701	22272
847.837	21751
847.972	21781
848.108	21934
848.244	21892
848.379	21637
848.515	21564
848.65	21599
848.786	21599
848.921	21743
849.057	21705
849.192	21747
849.328	21720
849.463	21781
849.598	21561
849.734	21504
849.869	21454
850.004	21344
850.14	21458
850.275	21294
850.41	21401
850.545	21340
850.68	21424
850.815	21237
850.95	21291
851.085	21519
851.22	21420
851.355	21374
851.49	21386
851.625	21359
851.76	21245
851.895	21245
852.03	21370
852.165	21348
852.299	21378
852.434	21412
852.569	21351
852.703	21348
852.838	21310
852.973	21401
853.107	21473
853.242	21268
853.376	21226
853.511	21070
853.645	21188
853.78	21176
853.914	21199
854.048	21138
854.183	21138
854.317	21184
854.451	21329
854.585	21131
854.72	21180
854.854	21203
854.988	21047
855.122	21093
855.256	20979
855.39	21154
855.524	21195
855.658	21131
855.792	21089
855.926	21184
856.06	21131
856.194	21252
856.327	21089
856.461	21024
856.595	21230
856.729	21100
856.862	21260
856.996	21108
857.13	21306
857.263	21230
857.397	21218
857.53	21184
857.664	21214
857.797	21264
857.931	21256
858.064	21222
858.197	21192
858.331	21051
858.464	21024
858.597	21116
858.731	21184
858.864	21089
858.997	21096
859.13	21138
859.263	21036
859.396	21131
859.529	21077
859.662	21020
859.795	21009
859.928	21104
860.061	21195
860.194	21355
860.327	21108
860.46	21192
860.592	21230
860.725	21192
860.858	21268
860.99	21028
861.123	20952
861.256	21074
861.388	21116
861.521	21800
861.653	20975
861.786	20887
861.918	20883
862.05	20963
862.183	20990
862.315	21192
862.447	21154
862.58	21070
862.712	20834
862.844	20830
862.976	20853
863.108	20857
863.24	21195
863.372	20788
863.504	20842
863.636	20712
863.768	20876
863.9	20773
864.032	20678
864.164	20686
864.296	20815
864.428	20982
864.559	20864
864.691	20773
864.823	20754
864.954	20773
865.086	20746
865.217	20640
865.349	20613
865.48	20663
865.612	20636
865.743	20842
865.875	20708
866.006	20724
866.137	20678
866.269	20705
866.4	20568
866.531	20636
866.662	20682
866.793	20617
866.924	20609
867.055	20693
867.186	20629
867.317	20667
867.448	20503
867.579	20602
867.71	20446
867.841	20556
867.972	20560
868.103	20606
868.233	20575
868.364	20663
868.495	20674
868.625	20853
868.756	21013
868.886	20826
869.017	20857
869.147	21020
869.278	20952
869.408	20902
869.539	20807
869.669	20952
869.799	20857
869.929	20941
870.06	20921
870.19	21211
870.32	21188
870.45	21123
870.58	21211
870.71	21329
870.84	21268
870.97	21218
871.1	21325
871.23	21370
871.36	21466
871.489	21408
871.619	21469
871.749	21450
871.879	21416
872.008	21412
872.138	21507
872.267	21481
872.397	21298
872.526	21279
872.656	21302
872.785	21332
872.915	21568
873.044	21606
873.173	21389
873.303	21473
873.432	21526
873.561	21595
873.69	21428
873.819	21443
873.948	21530
874.077	21507
874.206	21458
874.335	21469
874.464	21530
874.593	21766
874.722	21720
874.851	21797
874.979	21709
875.108	21808
875.237	21648
875.365	21603
875.494	21709
875.623	21797
875.751	21656
875.88	21785
876.008	21842
876.136	21953
876.265	22082
876.393	22280
876.521	22173
876.65	22116
876.778	22135
876.906	22029
877.034	21979
877.162	22139
877.29	22032
877.418	22181
877.546	22086
877.674	22070
877.802	22017
877.93	22063
878.058	22032
878.185	21899
878.313	21945
878.441	21991
878.568	21918
878.696	22059
878.824	22173
878.951	22162
879.079	22215
879.206	22200
879.333	22268
879.461	22055
879.588	22249
879.715	22192
879.842	22337
879.97	22040
880.097	21937
880.224	21793
880.351	21930
880.478	21827
880.605	21770
880.732	21915
880.859	22051
880.986	21827
881.112	21895
881.239	21728
881.366	21682
881.493	21614
881.619	21454
881.746	21515
881.872	21420
881.999	21622
882.125	21488
882.252	21477
882.378	21435
882.505	21568
882.631	21325
882.757	21180
882.883	21268
883.01	21291
883.136	21173
883.262	21039
883.388	21154
883.514	21283
883.64	21256
883.766	21089
883.892	20933
884.018	21081
884.143	21116
884.269	21207
884.395	20971
884.52	20716
884.646	20944
884.772	20769
884.897	20693
885.023	20826
885.148	20956
885.274	20971
885.399	20914
885.524	20788
885.65	20765
885.775	20830
885.9	20796
886.025	21001
886.15	20861
886.275	20743
886.4	20636
886.525	20765
886.65	20925
886.775	20804
886.9	20800
887.025	21058
887.149	20758
887.274	20674
887.399	20571
887.523	20549
887.648	20629
887.773	20484
887.897	20625
888.021	20590
888.146	20480
888.27	20686
888.395	20575
888.519	20568
888.643	20518
888.767	20533
888.891	20549
889.015	20503
889.139	20412
889.263	20320
889.387	20545
889.511	20545
889.635	20503
889.759	20324
889.883	20317
890.006	20355
890.13	20522
890.254	20324
890.377	20206
890.501	20168
890.624	20100
890.748	20153
890.871	20016
890.995	19955
891.118	19811
891.241	19864
891.364	19963
891.488	20092
891.611	19989
891.734	19989
891.857	19963
891.98	19963
892.103	19856
892.226	20031
892.349	19944
892.471	19811
892.594	19803
892.717	19864
892.839	19890
892.962	19875
893.085	19986
893.207	19944
893.33	19742
893.452	19655
893.575	20039
893.697	19906
893.819	20012
893.941	20153
894.064	19970
894.186	19772
894.308	19685
894.43	19978
894.552	19917
894.674	20005
894.796	19795
894.918	19757
895.04	19864
895.161	19970
895.283	19841
895.405	19639
895.526	19917
895.648	19852
895.769	19932
895.891	19875
896.012	19951
896.134	19871
896.255	19864
896.376	19883
896.498	20016
896.619	19936
896.74	19750
896.861	20088
896.982	20199
897.103	20450
897.224	20157
897.345	20214
897.466	20054
897.587	20149
897.708	20240
897.828	20126
897.949	20005
898.07	19887
898.19	20073
898.311	20161
898.431	20115
898.552	20168
898.672	20153
898.792	20233
898.913	20149
899.033	19989
899.153	19807
899.273	19780
899.393	19887
899.513	19906
899.633	19826
899.753	19864
899.873	19776
899.993	19879
900.113	19791
900.232	19963
900.352	19715
900.472	19689
900.591	19514
900.711	19666
900.83	19544
900.95	19700
901.069	19814
901.189	19556
901.308	19304
901.427	19209
901.546	19213
901.665	19141
901.784	19213
901.904	19137
902.023	18943
902.141	18871
902.26	18639
902.379	18776
902.498	18650
902.617	18570
902.735	18631
902.854	18688
902.973	18620
903.091	18441
903.21	18281
903.328	18304
903.446	18144
903.565	18098
903.683	18243
903.801	18057
903.919	18041
904.038	18243
904.156	18003
904.274	17999
904.392	17958
904.51	17942
904.627	17843
904.745	17946
904.863	18007
904.981	17699
905.098	17710
905.216	17657
905.334	17589
905.451	17627
905.569	17577
905.686	17642
905.803	17562
905.921	17303
906.038	17554
906.155	17395
906.272	17303
906.389	17250
906.506	17155
906.623	17006
906.74	17079
906.857	17048
906.974	16915
907.091	17098
907.208	17147
907.324	17128
907.441	16972
907.557	16850
907.674	16835
907.79	16759
907.907	16713
908.023	16850
908.139	16816
908.256	16645
908.372	16645
908.488	16656
908.604	16485
908.72	16481
908.836	16588
908.952	16432
909.068	16478
909.184	16611
909.3	16527
909.415	16535
909.531	16558
909.647	16204
909.762	16257
909.878	16211
909.993	16169
910.108	16177
910.224	16196
910.339	16112
910.454	16067
910.57	16036
910.685	15899
910.8	16230
910.915	16051
911.03	16032
911.145	15789
911.259	15781
911.374	15846
911.489	15717
911.604	15610
911.718	15420
911.833	15545
911.947	15526
912.062	15389
912.176	15610
912.291	15530
912.405	15667
912.519	15804
912.633	15625
912.748	15622
912.862	15496
912.976	15264
913.09	15279
913.204	15325
913.318	15313
913.431	15447
913.545	15351
913.659	15439
913.772	15207
913.886	15195
914	15123
914.113	15329
914.226	15214
914.34	15161
914.453	15032
914.566	15131
914.68	15058
914.793	15081
914.906	14933
915.019	14701
915.132	14693
915.245	14773
915.358	14826
915.47	14739
915.583	14735
915.696	14895
915.809	14811
915.921	14849
916.034	14731
916.146	14678
916.259	14613
916.371	14800
916.483	14834
916.595	14571
916.708	14579
916.82	14568
916.932	14632
917.044	14610
917.156	14507
917.268	14423
917.38	14317
917.491	14381
917.603	14415
917.715	14495
917.826	14423
917.938	14317
918.049	14282
918.161	14324
918.272	14442
918.384	14461
918.495	14404
918.606	14259
918.717	14199
918.828	14142
918.939	14210
919.05	14145
919.161	14157
919.272	13947
919.383	14065
919.494	14142
919.604	14320
919.715	14206
919.826	14077
919.936	14149
920.047	14157
920.157	14126
920.267	14385
920.378	14202
920.488	14199
920.598	14355
920.708	14385
920.818	14320
920.928	14183
921.038	14419
921.148	14351
921.258	14073
921.368	13955
921.477	13917
921.587	13791
921.697	13677
921.806	13879
921.916	13636
922.025	13563
922.134	13514
922.244	13502
922.353	13586
922.462	13495
922.571	13308
922.68	13126
922.789	13118
922.898	13247
923.007	13053
923.116	13183
923.224	13118
923.333	13133
923.442	12958
923.55	12954
923.659	12875
923.767	13076
923.876	12951
923.984	13027
924.092	12867
924.201	12973
924.309	12943
924.417	12867
924.525	12905
924.633	12753
924.741	13578
924.849	12589
924.956	12791
925.064	12623
925.172	12506
925.279	12494
925.387	12555
925.494	12646
925.602	12696
925.709	12703
925.816	12483
925.924	12566
926.031	12601
926.138	12502
926.245	12502
926.352	12498
926.459	12570
926.566	12551
926.673	12456
926.779	12346
926.886	12346
926.993	12186
927.099	12197
927.206	12072
927.312	12072
927.419	12201
927.525	12194
927.631	12194
927.737	12098
927.843	12068
927.95	11870
928.056	11980
928.162	12007
928.267	12034
928.373	12631
928.479	12049
928.585	11767
928.69	11885
928.796	12026
928.901	11916
929.007	11688
929.112	11843
929.218	11843
929.323	11752
929.428	11688
929.533	11786
929.638	11680
929.743	11699
929.848	11646
929.953	11649
930.058	11596
930.163	11391
930.267	11429
930.372	11490
930.477	11421
930.581	11589
930.685	11410
930.79	11330
930.894	11273
930.998	11391
931.103	11425
931.207	11113
931.311	10965
931.415	10877
931.519	10660
931.623	10656
