Data from test_V78500241_1457.txt Node
Date: Fri Mar 25 15:51:53 CST 2022
User: usil
Spectrometer: V785-0024
Trigger mode: 0
Integration Time (sec): 4.000000E-1
Scans to average: 1
Nonlinearity correction enabled: false
Boxcar width: 0
Storing dark spectrum: false
XAxis mode: Wavelengths
Number of Pixels in Spectrum: 1024
>>>>>Begin Spectral Data<<<<<
801.071	27340
801.214	27515
801.356	27222
801.499	27096
801.641	26918
801.783	26918
801.926	27089
802.068	26971
802.211	26906
802.353	26914
802.496	26609
802.638	26629
802.78	26609
802.923	26499
803.065	26606
803.208	26644
803.35	26640
803.492	26838
803.635	26727
803.777	26750
803.919	26838
804.061	27230
804.204	26899
804.346	26686
804.488	26765
804.63	26758
804.773	26727
804.915	26868
805.057	26826
805.199	26845
805.341	26880
805.483	27077
805.626	26982
805.768	26864
805.91	26902
806.052	26956
806.194	26868
806.336	27138
806.478	27070
806.62	26990
806.762	27127
806.904	27203
807.046	27397
807.188	27237
807.33	27272
807.472	27424
807.614	27340
807.756	27245
807.898	27116
808.04	27085
808.182	27173
808.324	27237
808.465	27268
808.607	27439
808.749	27591
808.891	27629
809.033	27785
809.174	27736
809.316	27534
809.458	27439
809.6	27599
809.741	27663
809.883	27667
810.025	27945
810.166	27793
810.308	27953
810.45	27876
810.591	27781
810.733	27686
810.875	27477
811.016	27530
811.158	27412
811.299	27618
811.441	27682
811.582	27663
811.724	27439
811.865	27568
812.007	27492
812.148	27580
812.29	27511
812.431	27690
812.573	27899
812.714	27888
812.855	28101
812.997	28230
813.138	28223
813.279	28204
813.421	27983
813.562	28006
813.703	27778
813.845	27717
813.986	27420
814.127	27302
814.268	27157
814.41	27188
814.551	27207
814.692	27192
814.833	27161
814.974	27165
815.115	27230
815.256	27032
815.397	27150
815.539	27074
815.68	26979
815.821	27017
815.962	27047
816.103	26948
816.244	26864
816.385	26769
816.526	26872
816.666	26587
816.807	26461
816.948	26503
817.089	26659
817.23	26461
817.371	26457
817.512	26469
817.653	26453
817.793	26275
817.934	26518
818.075	26480
818.216	26461
818.356	26522
818.497	26438
818.638	26214
818.778	26233
818.919	26320
819.06	26332
819.2	26336
819.341	26419
819.481	26381
819.622	26556
819.762	26804
819.903	26682
820.043	26552
820.184	26636
820.324	26522
820.465	26625
820.605	26530
820.746	26651
820.886	26431
821.026	26552
821.167	26568
821.307	26613
821.447	26415
821.588	26457
821.728	26294
821.868	26088
822.008	25951
822.149	26031
822.289	26020
822.429	25693
822.569	25704
822.709	25590
822.849	25327
822.99	25441
823.13	25487
823.27	25354
823.41	25270
823.55	25088
823.69	25316
823.83	25369
823.97	25095
824.11	25038
824.25	25129
824.389	25019
824.529	25152
824.669	25069
824.809	25202
824.949	25133
825.089	25308
825.228	25209
825.368	24958
825.508	25027
825.648	24932
825.787	25088
825.927	24947
826.067	24905
826.206	24837
826.346	24970
826.485	25038
826.625	24932
826.765	25057
826.904	24973
827.044	24764
827.183	24692
827.323	24734
827.462	24741
827.601	24585
827.741	24635
827.88	24578
828.02	24433
828.159	24719
828.298	24650
828.437	24601
828.577	24661
828.716	24726
828.855	24528
828.994	24350
829.134	24544
829.273	24391
829.412	24311
829.551	24247
829.69	24353
829.829	24315
829.968	24509
830.107	24361
830.246	24372
830.385	24308
830.524	24220
830.663	24098
830.802	24060
830.941	24011
831.08	23821
831.219	23973
831.357	23946
831.496	24152
831.635	23961
831.774	23885
831.913	23729
832.051	23714
832.19	23653
832.329	23653
832.467	23661
832.606	23619
832.744	23562
832.883	23638
833.022	23741
833.16	23585
833.299	23653
833.437	23596
833.576	23570
833.714	23760
833.852	23726
833.991	23718
834.129	23847
834.267	23729
834.406	23756
834.544	23649
834.682	23756
834.821	23611
834.959	23802
835.097	23596
835.235	23752
835.373	23634
835.511	23592
835.65	23562
835.788	23551
835.926	23440
836.064	23433
836.202	23353
836.34	23433
836.478	23615
836.615	23490
836.753	23585
836.891	23585
837.029	23592
837.167	23353
837.305	23512
837.443	23280
837.58	23395
837.718	23337
837.856	23433
837.993	23254
838.131	23322
838.269	23223
838.406	23193
838.544	23261
838.681	23044
838.819	22949
838.956	22919
839.094	22889
839.231	22805
839.369	22961
839.506	23170
839.643	23105
839.781	22786
839.918	22744
840.055	22816
840.193	22812
840.33	22649
840.467	22801
840.604	22820
840.742	22995
840.879	22618
841.016	22706
841.153	22615
841.29	22687
841.427	22683
841.564	22649
841.701	22744
841.838	22675
841.975	22596
842.112	22618
842.249	22424
842.385	22592
842.522	22615
842.659	22588
842.796	22508
842.933	22447
843.069	22371
843.206	22489
843.343	22542
843.479	22523
843.616	22557
843.752	22219
843.889	22230
844.025	22382
844.162	22394
844.298	22284
844.435	22268
844.571	22314
844.708	22295
844.844	22485
844.98	22485
845.117	22371
845.253	22204
845.389	22070
845.525	22147
845.661	22173
845.798	22032
845.934	21979
846.07	21949
846.206	21930
846.342	22040
846.478	21926
846.614	21816
846.75	21682
846.886	21724
847.022	21800
847.158	21816
847.294	21736
847.429	21774
847.565	21739
847.701	21823
847.837	21443
847.972	21412
848.108	21614
848.244	21583
848.379	21462
848.515	21348
848.65	21241
848.786	21370
848.921	21412
849.057	21447
849.192	21496
849.328	21264
849.463	21226
849.598	21386
849.734	21287
849.869	21226
850.004	21169
850.14	21192
850.275	21131
850.41	21043
850.545	21051
850.68	21032
850.815	21131
850.95	21039
851.085	21203
851.22	21142
851.355	21077
851.49	21070
851.625	20967
851.76	21252
851.895	21062
852.03	20933
852.165	21123
852.299	21119
852.434	21180
852.569	21066
852.703	21077
852.838	21176
852.973	21184
853.107	21062
853.242	21119
853.376	21024
853.511	20910
853.645	20914
853.78	21116
853.914	20979
854.048	20937
854.183	20937
854.317	20906
854.451	21058
854.585	20906
854.72	20864
854.854	20937
854.988	20887
855.122	21062
855.256	20773
855.39	20895
855.524	21005
855.658	20963
855.792	20956
855.926	20823
856.06	21165
856.194	20994
856.327	20982
856.461	20819
856.595	20861
856.729	20967
856.862	20998
856.996	20960
857.13	21009
857.263	21013
857.397	21074
857.53	21051
857.664	20952
857.797	21036
857.931	20944
858.064	20895
858.197	21108
858.331	20845
858.464	20724
858.597	20765
858.731	21024
858.864	20872
858.997	20857
859.13	20842
859.263	20895
859.396	21047
859.529	20864
859.662	20864
859.795	20868
859.928	20826
860.061	21108
860.194	21165
860.327	20921
860.46	20994
860.592	21085
860.725	21085
860.858	20994
860.99	20929
861.123	20914
861.256	20781
861.388	20887
861.521	21800
861.653	20830
861.786	20815
861.918	20644
862.05	20861
862.183	20830
862.315	20914
862.447	21039
862.58	20857
862.712	20667
862.844	20552
862.976	20720
863.108	20587
863.24	21157
863.372	20648
863.504	20632
863.636	20640
863.768	20640
863.9	20617
864.032	20526
864.164	20667
864.296	20765
864.428	20800
864.559	20651
864.691	20712
864.823	20678
864.954	20674
865.086	20705
865.217	20560
865.349	20389
865.48	20648
865.612	20522
865.743	20739
865.875	20530
866.006	20587
866.137	20568
866.269	20526
866.4	20514
866.531	20469
866.662	20290
866.793	20526
866.924	20530
867.055	20507
867.186	20560
867.317	20530
867.448	20434
867.579	20393
867.71	20446
867.841	20301
867.972	20370
868.103	20381
868.233	20514
868.364	20476
868.495	20663
868.625	20754
868.756	20842
868.886	20587
869.017	20644
869.147	20838
869.278	20800
869.408	20762
869.539	20727
869.669	20807
869.799	20762
869.929	20830
870.06	20864
870.19	20937
870.32	21043
870.45	21058
870.58	21199
870.71	21188
870.84	21313
870.97	21131
871.1	21135
871.23	21370
871.36	21332
871.489	21165
871.619	21393
871.749	21294
871.879	21329
872.008	21340
872.138	21359
872.267	21325
872.397	21275
872.526	21214
872.656	21081
872.785	21237
872.915	21367
873.044	21424
873.173	21363
873.303	21344
873.432	21389
873.561	21450
873.69	21435
873.819	21424
873.948	21420
874.077	21374
874.206	21370
874.335	21359
874.464	21519
874.593	21519
874.722	21648
874.851	21549
874.979	21648
875.108	21568
875.237	21564
875.365	21469
875.494	21561
875.623	21622
875.751	21553
875.88	21709
876.008	21694
876.136	21774
876.265	21911
876.393	22070
876.521	22055
876.65	21964
876.778	21911
876.906	21979
877.034	21956
877.162	21945
877.29	21869
877.418	21937
877.546	22013
877.674	22013
877.802	21762
877.93	21953
878.058	21964
878.185	21842
878.313	21827
878.441	21827
878.568	21762
878.696	21819
878.824	22067
878.951	22036
879.079	22090
879.206	22234
879.333	22086
879.461	21998
879.588	22070
879.715	22173
879.842	22116
879.97	21956
880.097	21903
880.224	21789
880.351	21869
880.478	21739
880.605	21747
880.732	21797
880.859	22074
880.986	21747
881.112	21808
881.239	21701
881.366	21481
881.493	21492
881.619	21340
881.746	21256
881.872	21287
881.999	21310
882.125	21245
882.252	21412
882.378	21268
882.505	21462
882.631	21233
882.757	21066
882.883	21116
883.01	21127
883.136	20994
883.262	20902
883.388	20906
883.514	21093
883.64	21123
883.766	20941
883.892	20746
884.018	20830
884.143	21024
884.269	21154
884.395	20754
884.52	20739
884.646	20667
884.772	20682
884.897	20659
885.023	20674
885.148	20769
885.274	20807
885.399	20815
885.524	20678
885.65	20746
885.775	20667
885.9	20781
886.025	20754
886.15	20876
886.275	20644
886.4	20587
886.525	20659
886.65	20583
886.775	20594
886.9	20739
887.025	20887
887.149	20743
887.274	20556
887.399	20473
887.523	20404
887.648	20332
887.773	20309
887.897	20545
888.021	20427
888.146	20503
888.27	20537
888.395	20590
888.519	20571
888.643	20465
888.767	20454
888.891	20362
889.015	20358
889.139	20343
889.263	20332
889.387	20343
889.511	20461
889.635	20351
889.759	20317
889.883	20153
890.006	20434
890.13	20400
890.254	20164
890.377	20256
890.501	20027
890.624	19940
890.748	20107
890.871	19967
890.995	19807
891.118	19887
891.241	19807
891.364	19932
891.488	19986
891.611	19879
891.734	19883
891.857	19936
891.98	19742
892.103	19883
892.226	19898
892.349	19674
892.471	19784
892.594	19769
892.717	19860
892.839	19712
892.962	19761
893.085	19833
893.207	19727
893.33	19609
893.452	19708
893.575	19814
893.697	19658
893.819	19890
893.941	19959
894.064	19822
894.186	19765
894.308	19620
894.43	19871
894.552	19909
894.674	19776
894.796	19734
894.918	19742
895.04	19769
895.161	19799
895.283	19822
895.405	19609
895.526	19712
895.648	19753
895.769	19830
895.891	19696
896.012	19883
896.134	19811
896.255	19822
896.376	19772
896.498	19727
896.619	19658
896.74	19719
896.861	19902
896.982	20084
897.103	20282
897.224	20138
897.345	19989
897.466	20020
897.587	20035
897.708	20088
897.828	19970
897.949	20122
898.07	19928
898.19	19883
898.311	20081
898.431	19986
898.552	19963
898.672	20100
898.792	20081
898.913	19963
899.033	19989
899.153	19769
899.273	19784
899.393	19662
899.513	19803
899.633	19871
899.753	19734
899.873	19734
899.993	19795
900.113	19791
900.232	19639
900.352	19677
900.472	19575
900.591	19510
900.711	19476
900.83	19460
900.95	19655
901.069	19609
901.189	19422
901.308	19168
901.427	19213
901.546	19194
901.665	19179
901.784	19190
901.904	18977
902.023	18932
902.141	18806
902.26	18623
902.379	18757
902.498	18570
902.617	18608
902.735	18764
902.854	18597
902.973	18574
903.091	18384
903.21	18251
903.328	18334
903.446	18270
903.565	18167
903.683	18110
903.801	18030
903.919	18110
904.038	18098
904.156	17889
904.274	17912
904.392	17878
904.51	17824
904.627	17851
904.745	17897
904.863	17912
904.981	17756
905.098	17566
905.216	17630
905.334	17589
905.451	17581
905.569	17497
905.686	17554
905.803	17600
905.921	17284
906.038	17417
906.155	17452
906.272	17322
906.389	17334
906.506	17174
906.623	17166
906.74	17102
906.857	17090
906.974	16987
907.091	17121
907.208	17132
907.324	17178
907.441	17003
907.557	16831
907.674	16812
907.79	16774
907.907	16755
908.023	16869
908.139	16839
908.256	16763
908.372	16672
908.488	16706
908.604	16588
908.72	16504
908.836	16535
908.952	16500
909.068	16489
909.184	16603
909.3	16535
909.415	16569
909.531	16653
909.647	16200
909.762	16299
909.878	16303
909.993	16242
910.108	16253
910.224	16230
910.339	16207
910.454	16105
910.57	16063
910.685	15998
910.8	16185
910.915	16234
911.03	16109
911.145	15846
911.259	15949
911.374	15751
911.489	15800
911.604	15656
911.718	15515
911.833	15576
911.947	15568
912.062	15439
912.176	15606
912.291	15671
912.405	15610
912.519	15774
912.633	15755
912.748	15641
912.862	15549
912.976	15458
913.09	15325
913.204	15264
913.318	15462
913.431	15477
913.545	15473
913.659	15458
913.772	15408
913.886	15306
914	15237
914.113	15275
914.226	15317
914.34	15127
914.453	15112
914.566	15241
914.68	15142
914.793	15100
914.906	14929
915.019	14876
915.132	14705
915.245	14845
915.358	14857
915.47	14906
915.583	14842
915.696	14853
915.809	14994
915.921	15001
916.034	14807
916.146	14674
916.259	14845
916.371	14773
916.483	14883
916.595	14667
916.708	14739
916.82	14598
916.932	14678
917.044	14663
917.156	14571
917.268	14385
917.38	14537
917.491	14427
917.603	14499
917.715	14598
917.826	14579
917.938	14469
918.049	14282
918.161	14488
918.272	14632
918.384	14507
918.495	14454
918.606	14355
918.717	14202
918.828	14298
918.939	14362
919.05	14195
919.161	14130
919.272	14065
919.383	14126
919.494	14225
919.604	14419
919.715	14419
919.826	14233
919.936	14225
920.047	14237
920.157	14290
920.267	14339
920.378	14142
920.488	14286
920.598	14381
920.708	14568
920.818	14408
920.928	14275
921.038	14469
921.148	14385
921.258	14263
921.368	14084
921.477	14024
921.587	13959
921.697	13868
921.806	13928
921.916	13917
922.025	13670
922.134	13571
922.244	13616
922.353	13632
922.462	13430
922.571	13441
922.68	13255
922.789	13301
922.898	13270
923.007	13217
923.116	13331
923.224	13251
923.333	13152
923.442	13137
923.55	13103
923.659	13156
923.767	13217
923.876	12970
923.984	13095
924.092	12993
924.201	13015
924.309	12928
924.417	13050
924.525	12985
924.633	12928
924.741	13791
924.849	12768
924.956	12943
925.064	12814
925.172	12673
925.279	12642
925.387	12719
925.494	12688
925.602	12882
925.709	12677
925.816	12593
925.924	12658
926.031	12715
926.138	12604
926.245	12658
926.352	12475
926.459	12677
926.566	12688
926.673	12540
926.779	12475
926.886	12445
926.993	12403
927.099	12296
927.206	12213
927.312	12243
927.419	12300
927.525	12266
927.631	12258
927.737	12167
927.843	12209
927.95	12007
928.056	12057
928.162	12114
928.267	12148
928.373	12684
928.479	12224
928.585	11969
928.69	12053
928.796	12087
928.901	11954
929.007	11916
929.112	12034
929.218	11950
929.323	11859
929.428	11897
929.533	11946
929.638	11809
929.743	11783
929.848	11817
929.953	11748
930.058	11722
930.163	11558
930.267	11608
930.372	11707
930.477	11589
930.581	11722
930.685	11611
930.79	11482
930.894	11535
930.998	11398
931.103	11592
931.207	11250
931.311	11124
931.415	10995
931.519	10809
931.623	10679
