Data from test_V78500241_3480.txt Node
Date: Fri Mar 25 16:05:54 CST 2022
User: usil
Spectrometer: V785-0024
Trigger mode: 0
Integration Time (sec): 4.000000E-1
Scans to average: 1
Nonlinearity correction enabled: false
Boxcar width: 0
Storing dark spectrum: false
XAxis mode: Wavelengths
Number of Pixels in Spectrum: 1024
>>>>>Begin Spectral Data<<<<<
801.071	29197
801.214	29086
801.356	28809
801.499	28782
801.641	28516
801.783	28664
801.926	28702
802.068	28831
802.211	28508
802.353	28645
802.496	28462
802.638	28280
802.78	28268
802.923	28242
803.065	28295
803.208	28341
803.35	28485
803.492	28672
803.635	28618
803.777	28573
803.919	28645
804.061	28923
804.204	28656
804.346	28603
804.488	28519
804.63	28565
804.773	28508
804.915	28748
805.057	28873
805.199	28752
805.341	28778
805.483	28729
805.626	28763
805.768	28691
805.91	28927
806.052	28763
806.194	28660
806.336	29006
806.478	28949
806.62	28839
806.762	28957
806.904	29265
807.046	29292
807.188	29231
807.33	29296
807.472	29277
807.614	29140
807.756	29105
807.898	29098
808.04	29060
808.182	29075
808.324	29155
808.465	29151
808.607	29318
808.749	29547
808.891	29547
809.033	29699
809.174	29581
809.316	29596
809.458	29589
809.6	29455
809.741	29623
809.883	29657
810.025	29665
810.166	29786
810.308	29893
810.45	29741
810.591	29684
810.733	29581
810.875	29585
811.016	29570
811.158	29528
811.299	29585
811.441	29733
811.582	29817
811.724	29573
811.865	29699
812.007	29474
812.148	29649
812.29	29558
812.431	29824
812.573	29847
812.714	29912
812.855	29946
812.997	30194
813.138	30353
813.279	30034
813.421	30136
813.562	29999
813.703	29859
813.845	29798
813.986	29585
814.127	29375
814.268	29292
814.41	29223
814.551	29231
814.692	29341
814.833	29364
814.974	29406
815.115	29273
815.256	29109
815.397	29155
815.539	29128
815.68	29098
815.821	29037
815.962	29079
816.103	29079
816.244	28854
816.385	28892
816.526	28873
816.666	28702
816.807	28538
816.948	28702
817.089	28687
817.23	28691
817.371	28557
817.512	28611
817.653	28717
817.793	28459
817.934	28615
818.075	28653
818.216	28672
818.356	28618
818.497	28512
818.638	28390
818.778	28310
818.919	28375
819.06	28398
819.2	28421
819.341	28733
819.481	28637
819.622	28820
819.762	29071
819.903	28797
820.043	28847
820.184	28881
820.324	28934
820.465	28892
820.605	28767
820.746	28656
820.886	28660
821.026	28790
821.167	28577
821.307	28668
821.447	28645
821.588	28569
821.728	28485
821.868	28276
822.008	28150
822.149	28090
822.289	28150
822.429	27850
822.569	27800
822.709	27842
822.849	27717
822.99	27660
823.13	27515
823.27	27500
823.41	27492
823.55	27287
823.69	27393
823.83	27443
823.97	27374
824.11	27291
824.25	27150
824.389	27176
824.529	27336
824.669	27237
824.809	27504
824.949	27329
825.089	27321
825.228	27154
825.368	27135
825.508	27249
825.648	27180
825.787	27123
825.927	27211
826.067	27321
826.206	27161
826.346	27214
826.485	27157
826.625	27237
826.765	27237
826.904	27116
827.044	26960
827.183	26918
827.323	26819
827.462	26887
827.601	26868
827.741	26712
827.88	26849
828.02	26750
828.159	26796
828.298	26880
828.437	27036
828.577	26773
828.716	26861
828.855	26811
828.994	26648
829.134	26625
829.273	26583
829.412	26492
829.551	26560
829.69	26453
829.829	26465
829.968	26461
830.107	26590
830.246	26530
830.385	26552
830.524	26370
830.663	26484
830.802	26206
830.941	26142
831.08	26119
831.219	26130
831.357	26233
831.496	26320
831.635	26142
831.774	26062
831.913	26046
832.051	25966
832.19	25875
832.329	25868
832.467	25868
832.606	25807
832.744	25715
832.883	25814
833.022	25849
833.16	25917
833.299	25852
833.437	25803
833.576	25868
833.714	25890
833.852	26024
833.991	25947
834.129	25963
834.267	26016
834.406	25932
834.544	25978
834.682	25887
834.821	25841
834.959	26069
835.097	25849
835.235	25986
835.373	25875
835.511	25883
835.65	25772
835.788	25738
835.926	25571
836.064	25704
836.202	25624
836.34	25647
836.478	25685
836.615	25628
836.753	25708
836.891	25742
837.029	25700
837.167	25643
837.305	25696
837.443	25662
837.58	25518
837.718	25479
837.856	25559
837.993	25537
838.131	25582
838.269	25354
838.406	25419
838.544	25384
838.681	25198
838.819	25137
838.956	24958
839.094	24966
839.231	25103
839.369	25133
839.506	25430
839.643	25285
839.781	25031
839.918	24894
840.055	24951
840.193	24943
840.33	24924
840.467	24989
840.604	24882
840.742	25160
840.879	24825
841.016	24958
841.153	24719
841.29	25129
841.427	24848
841.564	24970
841.701	24825
841.838	24905
841.975	24779
842.112	24768
842.249	24639
842.385	24730
842.522	24829
842.659	24673
842.796	24696
842.933	24772
843.069	24555
843.206	24505
843.343	24677
843.479	24684
843.616	24513
843.752	24380
843.889	24460
844.025	24536
844.162	24395
844.298	24509
844.435	24338
844.571	24365
844.708	24578
844.844	24585
844.98	24589
845.117	24521
845.253	24361
845.389	24205
845.525	24365
845.661	24292
845.798	24140
845.934	24174
846.07	24186
846.206	24106
846.342	24323
846.478	24117
846.614	23950
846.75	23741
846.886	23817
847.022	23977
847.158	23935
847.294	23866
847.429	23809
847.565	23851
847.701	24136
847.837	23687
847.972	23608
848.108	23691
848.244	23703
848.379	23334
848.515	23486
848.65	23372
848.786	23463
848.921	23520
849.057	23554
849.192	23520
849.328	23482
849.463	23395
849.598	23433
849.734	23376
849.869	23261
850.004	23155
850.14	23296
850.275	23288
850.41	23022
850.545	23037
850.68	23261
850.815	23117
850.95	23189
851.085	23433
851.22	23387
851.355	23326
851.49	23189
851.625	23204
851.76	23216
851.895	23166
852.03	23060
852.165	23174
852.299	23235
852.434	23284
852.569	23284
852.703	23223
852.838	23273
852.973	23322
853.107	23322
853.242	23155
853.376	23064
853.511	22961
853.645	22919
853.78	23090
853.914	23048
854.048	22869
854.183	23094
854.317	23098
854.451	23147
854.585	23018
854.72	22972
854.854	23121
854.988	23041
855.122	23025
855.256	22839
855.39	23025
855.524	23166
855.658	23075
855.792	23041
855.926	23124
856.06	23189
856.194	23151
856.327	23113
856.461	23022
856.595	23033
856.729	22991
856.862	23159
856.996	23102
857.13	23014
857.263	23239
857.397	23162
857.53	23041
857.664	22999
857.797	23079
857.931	23067
858.064	23121
858.197	23250
858.331	22965
858.464	23143
858.597	22934
858.731	22908
858.864	23044
858.997	22949
859.13	23018
859.263	23067
859.396	23067
859.529	23048
859.662	22987
859.795	23086
859.928	23048
860.061	23254
860.194	23242
860.327	23083
860.46	23029
860.592	23174
860.725	23170
860.858	23181
860.99	23105
861.123	23060
861.256	22968
861.388	23132
861.521	23726
861.653	22809
861.786	22786
861.918	22862
862.05	22980
862.183	22976
862.315	22976
862.447	22972
862.58	22881
862.712	22774
862.844	22596
862.976	22782
863.108	22771
863.24	23185
863.372	22733
863.504	22713
863.636	22702
863.768	22748
863.9	22736
864.032	22577
864.164	22755
864.296	22691
864.428	22847
864.559	22786
864.691	22729
864.823	22866
864.954	22694
865.086	22793
865.217	22634
865.349	22569
865.48	22622
865.612	22656
865.743	22691
865.875	22561
866.006	22577
866.137	22725
866.269	22546
866.4	22634
866.531	22497
866.662	22512
866.793	22493
866.924	22447
867.055	22599
867.186	22618
867.317	22599
867.448	22462
867.579	22626
867.71	22390
867.841	22447
867.972	22497
868.103	22470
868.233	22577
868.364	22466
868.495	22641
868.625	22763
868.756	22850
868.886	22672
869.017	22885
869.147	22961
869.278	22877
869.408	22976
869.539	22679
869.669	22854
869.799	22889
869.929	22809
870.06	22877
870.19	23052
870.32	23109
870.45	23025
870.58	23284
870.71	23136
870.84	23212
870.97	23155
871.1	23124
871.23	23444
871.36	23356
871.489	23265
871.619	23322
871.749	23311
871.879	23307
872.008	23566
872.138	23410
872.267	23398
872.397	23231
872.526	23242
872.656	23231
872.785	23315
872.915	23391
873.044	23436
873.173	23376
873.303	23410
873.432	23448
873.561	23505
873.69	23501
873.819	23429
873.948	23410
874.077	23425
874.206	23280
874.335	23391
874.464	23528
874.593	23623
874.722	23691
874.851	23539
874.979	23665
875.108	23638
875.237	23387
875.365	23535
875.494	23695
875.623	23684
875.751	23486
875.88	23551
876.008	23691
876.136	23687
876.265	23912
876.393	24026
876.521	24072
876.65	24083
876.778	23996
876.906	23901
877.034	23920
877.162	23893
877.29	23866
877.418	23935
877.546	23920
877.674	23843
877.802	23980
877.93	23870
878.058	23843
878.185	23790
878.313	23821
878.441	23946
878.568	23687
878.696	23779
878.824	23855
878.951	24034
879.079	24194
879.206	24292
879.333	24159
879.461	23923
879.588	23980
879.715	24003
879.842	24311
879.97	23980
880.097	23646
880.224	23783
880.351	23741
880.478	23771
880.605	23668
880.732	23805
880.859	23999
880.986	23748
881.112	23809
881.239	23562
881.366	23490
881.493	23379
881.619	23379
881.746	23379
881.872	23471
881.999	23151
882.125	23254
882.252	23284
882.378	23239
882.505	23235
882.631	23258
882.757	22911
882.883	23010
883.01	23056
883.136	22938
883.262	22782
883.388	22816
883.514	22934
883.64	22908
883.766	22896
883.892	22603
884.018	22694
884.143	22953
884.269	23014
884.395	22664
884.52	22660
884.646	22561
884.772	22451
884.897	22455
885.023	22561
885.148	22645
885.274	22805
885.399	22675
885.524	22596
885.65	22554
885.775	22443
885.9	22607
886.025	22660
886.15	22637
886.275	22573
886.4	22512
886.525	22569
886.65	22470
886.775	22493
886.9	22679
887.025	22782
887.149	22622
887.274	22424
887.399	22265
887.523	22348
887.648	22200
887.773	22192
887.897	22341
888.021	22428
888.146	22143
888.27	22466
888.395	22375
888.519	22459
888.643	22363
888.767	22363
888.891	22344
889.015	22344
889.139	22272
889.263	22086
889.387	22219
889.511	22287
889.635	22291
889.759	22124
889.883	22044
890.006	22097
890.13	22177
890.254	22143
890.377	22112
890.501	21808
890.624	21800
890.748	21812
890.871	21755
890.995	21652
891.118	21561
891.241	21694
891.364	21755
891.488	21747
891.611	21663
891.734	21622
891.857	21648
891.98	21663
892.103	21728
892.226	21595
892.349	21572
892.471	21534
892.594	21698
892.717	21523
892.839	21622
892.962	21549
893.085	21671
893.207	21618
893.33	21408
893.452	21500
893.575	21618
893.697	21545
893.819	21603
893.941	21564
894.064	21705
894.186	21469
894.308	21545
894.43	21606
894.552	21698
894.674	21690
894.796	21412
894.918	21416
895.04	21378
895.161	21591
895.283	21583
895.405	21397
895.526	21485
895.648	21576
895.769	21511
895.891	21469
896.012	21591
896.134	21660
896.255	21492
896.376	21443
896.498	21485
896.619	21492
896.74	21447
896.861	21576
896.982	21880
897.103	22006
897.224	21713
897.345	21568
897.466	21591
897.587	21789
897.708	21892
897.828	21766
897.949	21679
898.07	21606
898.19	21614
898.311	21686
898.431	21648
898.552	21633
898.672	21762
898.792	21781
898.913	21736
899.033	21545
899.153	21549
899.273	21420
899.393	21412
899.513	21538
899.633	21477
899.753	21496
899.873	21416
899.993	21420
900.113	21420
900.232	21492
900.352	21302
900.472	21275
900.591	21043
900.711	21127
900.83	21100
900.95	21279
901.069	21321
901.189	21005
901.308	20777
901.427	20743
901.546	20769
901.665	20804
901.784	20636
901.904	20674
902.023	20495
902.141	20267
902.26	20263
902.379	20427
902.498	20290
902.617	20126
902.735	20339
902.854	20161
902.973	20096
903.091	20035
903.21	19856
903.328	19894
903.446	19761
903.565	19845
903.683	19803
903.801	19552
903.919	19689
904.038	19734
904.156	19480
904.274	19624
904.392	19525
904.51	19415
904.627	19339
904.745	19419
904.863	19457
904.981	19282
905.098	19148
905.216	19107
905.334	19209
905.451	19129
905.569	19107
905.686	19080
905.803	19187
905.921	18886
906.038	18920
906.155	19000
906.272	18829
906.389	18692
906.506	18707
906.623	18696
906.74	18673
906.857	18441
906.974	18566
907.091	18677
907.208	18734
907.324	18681
907.441	18536
907.557	18289
907.674	18338
907.79	18190
907.907	18311
908.023	18357
908.139	18369
908.256	18296
908.372	18209
908.488	18171
908.604	18076
908.72	18011
908.836	18148
908.952	18110
909.068	18079
909.184	18144
909.3	18110
909.415	18003
909.531	18064
909.647	17904
909.762	17821
909.878	17699
909.993	17756
910.108	17687
910.224	17756
910.339	17722
910.454	17577
910.57	17570
910.685	17467
910.8	17649
910.915	17653
911.03	17520
911.145	17322
911.259	17398
911.374	17364
911.489	17212
911.604	17223
911.718	17033
911.833	17022
911.947	17010
912.062	16957
912.176	17041
912.291	17003
912.405	17227
912.519	17242
912.633	17174
912.748	17200
912.862	17105
912.976	16843
913.09	16839
913.204	16896
913.318	16892
913.431	16972
913.545	16961
913.659	16919
913.772	16771
913.886	16725
914	16664
914.113	16755
914.226	16793
914.34	16634
914.453	16466
914.566	16660
914.68	16508
914.793	16478
914.906	16367
915.019	16284
915.132	16185
915.245	16234
915.358	16249
915.47	16246
915.583	16223
915.696	16128
915.809	16318
915.921	16371
916.034	16071
916.146	16109
916.259	16063
916.371	16131
916.483	16124
916.595	15983
916.708	16021
916.82	15949
916.932	15911
917.044	16044
917.156	16040
917.268	15915
917.38	15895
917.491	15827
917.603	15854
917.715	15926
917.826	15846
917.938	15720
918.049	15663
918.161	15705
918.272	15819
918.384	15816
918.495	15808
918.606	15652
918.717	15511
918.828	15584
918.939	15637
919.05	15538
919.161	15504
919.272	15344
919.383	15401
919.494	15530
919.604	15705
919.715	15671
919.826	15473
919.936	15511
920.047	15644
920.157	15561
920.267	15694
920.378	15542
920.488	15450
920.598	15694
920.708	15778
920.818	15682
920.928	15671
921.038	15816
921.148	15694
921.258	15450
921.368	15302
921.477	15256
921.587	15207
921.697	15119
921.806	15321
921.916	15089
922.025	14986
922.134	14834
922.244	14883
922.353	14868
922.462	14701
922.571	14651
922.68	14583
922.789	14484
922.898	14415
923.007	14343
923.116	14541
923.224	14355
923.333	14503
923.442	14362
923.55	14317
923.659	14423
923.767	14355
923.876	14332
923.984	14389
924.092	14176
924.201	14199
924.309	14153
924.417	14145
924.525	14115
924.633	14088
924.741	14826
924.849	13974
924.956	14069
925.064	13947
925.172	13814
925.279	13860
925.387	13974
925.494	13849
925.602	13947
925.709	13936
925.816	13738
925.924	13868
926.031	13849
926.138	13833
926.245	13795
926.352	13677
926.459	13791
926.566	13818
926.673	13655
926.779	13578
926.886	13616
926.993	13415
927.099	13381
927.206	13407
927.312	13263
927.419	13388
927.525	13331
927.631	13480
927.737	13278
927.843	13179
927.95	13072
928.056	13076
928.162	13236
928.267	13255
928.373	13784
928.479	13259
928.585	12951
928.69	13126
928.796	13114
928.901	13046
929.007	12894
929.112	13061
929.218	13008
929.323	12909
929.428	12985
929.533	13034
929.638	12776
929.743	12810
929.848	12890
929.953	12757
930.058	12798
930.163	12506
930.267	12597
930.372	12719
930.477	12521
930.581	12764
930.685	12612
930.79	12422
930.894	12536
930.998	12418
931.103	12635
931.207	12197
931.311	12019
931.415	11843
931.519	11851
931.623	11745
