Data from test_V78500241_1605.txt Node
Date: Fri Mar 25 15:52:55 CST 2022
User: usil
Spectrometer: V785-0024
Trigger mode: 0
Integration Time (sec): 4.000000E-1
Scans to average: 1
Nonlinearity correction enabled: false
Boxcar width: 0
Storing dark spectrum: false
XAxis mode: Wavelengths
Number of Pixels in Spectrum: 1024
>>>>>Begin Spectral Data<<<<<
801.071	27880
801.214	27827
801.356	27500
801.499	27705
801.641	27515
801.783	27420
801.926	27485
802.068	27519
802.211	27466
802.353	27256
802.496	27093
802.638	27100
802.78	27123
802.923	27077
803.065	27001
803.208	26990
803.35	27157
803.492	27325
803.635	27412
803.777	27203
803.919	27367
804.061	27671
804.204	27424
804.346	27222
804.488	27249
804.63	27264
804.773	27294
804.915	27382
805.057	27420
805.199	27363
805.341	27538
805.483	27447
805.626	27572
805.768	27511
805.91	27374
806.052	27515
806.194	27420
806.336	27564
806.478	27450
806.62	27450
806.762	27660
806.904	27762
807.046	27880
807.188	27679
807.33	28029
807.472	27941
807.614	27880
807.756	27781
807.898	27739
808.04	27667
808.182	27755
808.324	27865
808.465	27743
808.607	28131
808.749	28185
808.891	28185
809.033	28405
809.174	28109
809.316	28120
809.458	27994
809.6	28128
809.741	28067
809.883	28238
810.025	28386
810.166	28409
810.308	28462
810.45	28478
810.591	28325
810.733	28131
810.875	28101
811.016	28067
811.158	27991
811.299	28032
811.441	28219
811.582	28417
811.724	28139
811.865	28017
812.007	28223
812.148	28093
812.29	28025
812.431	28253
812.573	28531
812.714	28485
812.855	28630
812.997	28782
813.138	28908
813.279	28725
813.421	28584
813.562	28527
813.703	28516
813.845	28265
813.986	28059
814.127	28055
814.268	27835
814.41	27808
814.551	27759
814.692	27956
814.833	27861
814.974	27770
815.115	27850
815.256	27595
815.397	27667
815.539	27618
815.68	27614
815.821	27610
815.962	27538
816.103	27481
816.244	27424
816.385	27405
816.526	27363
816.666	27241
816.807	27066
816.948	27131
817.089	27180
817.23	27256
817.371	27055
817.512	27096
817.653	27192
817.793	26906
817.934	27214
818.075	26998
818.216	26956
818.356	27051
818.497	26887
818.638	26746
818.778	26796
818.919	26963
819.06	26899
819.2	26937
819.341	27116
819.481	27089
819.622	27325
819.762	27492
819.903	27325
820.043	27249
820.184	27214
820.324	27226
820.465	27184
820.605	27252
820.746	27127
820.886	27176
821.026	27241
821.167	27188
821.307	27173
821.447	27146
821.588	27001
821.728	26990
821.868	26842
822.008	26670
822.149	26590
822.289	26564
822.429	26305
822.569	26343
822.709	26199
822.849	26191
822.99	26195
823.13	26062
823.27	26001
823.41	25906
823.55	25856
823.69	25925
823.83	25936
823.97	25845
824.11	25563
824.25	25624
824.389	25731
824.529	25765
824.669	25761
824.809	25830
824.949	25803
825.089	25837
825.228	25818
825.368	25548
825.508	25567
825.648	25674
825.787	25540
825.927	25647
826.067	25514
826.206	25647
826.346	25685
826.485	25601
826.625	25479
826.765	25723
826.904	25563
827.044	25403
827.183	25407
827.323	25453
827.462	25278
827.601	25358
827.741	25304
827.88	25335
828.02	25251
828.159	25324
828.298	25301
828.437	25365
828.577	25282
828.716	25236
828.855	25091
828.994	25126
829.134	25042
829.273	24958
829.412	24924
829.551	25069
829.69	25038
829.829	24996
829.968	25145
830.107	25088
830.246	24989
830.385	25031
830.524	24909
830.663	24962
830.802	24719
830.941	24555
831.08	24563
831.219	24787
831.357	24658
831.496	24878
831.635	24593
831.774	24528
831.913	24525
832.051	24490
832.19	24464
832.329	24407
832.467	24330
832.606	24178
832.744	24251
832.883	24209
833.022	24194
833.16	24247
833.299	24327
833.437	24281
833.576	24281
833.714	24350
833.852	24353
833.991	24403
834.129	24464
834.267	24494
834.406	24273
834.544	24338
834.682	24296
834.821	24445
834.959	24471
835.097	24213
835.235	24296
835.373	24395
835.511	24414
835.65	24190
835.788	24171
835.926	24148
836.064	23908
836.202	24121
836.34	24220
836.478	24350
836.615	24114
836.753	24110
836.891	24350
837.029	24114
837.167	24178
837.305	24018
837.443	23996
837.58	23988
837.718	24102
837.856	23828
837.993	23889
838.131	23893
838.269	23874
838.406	23931
838.544	23824
838.681	23608
838.819	23714
838.956	23421
839.094	23417
839.231	23547
839.369	23684
839.506	23779
839.643	23760
839.781	23509
839.918	23330
840.055	23501
840.193	23433
840.33	23387
840.467	23307
840.604	23387
840.742	23718
840.879	23311
841.016	23440
841.153	23353
841.29	23440
841.427	23368
841.564	23429
841.701	23402
841.838	23387
841.975	23269
842.112	23322
842.249	23326
842.385	23136
842.522	23356
842.659	23284
842.796	23162
842.933	23018
843.069	23105
843.206	23136
843.343	23162
843.479	23166
843.616	23181
843.752	22782
843.889	22957
844.025	22900
844.162	22927
844.298	23086
844.435	22911
844.571	22778
844.708	22965
844.844	23079
844.98	23075
845.117	22984
845.253	22858
845.389	22816
845.525	22843
845.661	22877
845.798	22675
845.934	22752
846.07	22557
846.206	22653
846.342	22873
846.478	22721
846.614	22367
846.75	22265
846.886	22413
847.022	22386
847.158	22421
847.294	22394
847.429	22451
847.565	22424
847.701	22588
847.837	22177
847.972	22105
848.108	22333
848.244	22211
848.379	22017
848.515	21972
848.65	21964
848.786	22048
848.921	21975
849.057	22101
849.192	22040
849.328	22040
849.463	22013
849.598	21838
849.734	21865
849.869	21808
850.004	21660
850.14	21762
850.275	21800
850.41	21743
850.545	21663
850.68	21644
850.815	21793
850.95	21781
851.085	21850
851.22	21838
851.355	21819
851.49	21739
851.625	21667
851.76	21698
851.895	21690
852.03	21656
852.165	21736
852.299	21743
852.434	21816
852.569	21812
852.703	21797
852.838	21785
852.973	21827
853.107	21884
853.242	21781
853.376	21595
853.511	21462
853.645	21564
853.78	21732
853.914	21469
854.048	21572
854.183	21492
854.317	21603
854.451	21789
854.585	21648
854.72	21519
854.854	21641
854.988	21534
855.122	21587
855.256	21412
855.39	21439
855.524	21739
855.658	21660
855.792	21553
855.926	21526
856.06	21656
856.194	21652
856.327	21606
856.461	21526
856.595	21709
856.729	21610
856.862	21622
856.996	21587
857.13	21606
857.263	21660
857.397	21698
857.53	21591
857.664	21625
857.797	21713
857.931	21618
858.064	21618
858.197	21625
858.331	21591
858.464	21492
858.597	21515
858.731	21610
858.864	21481
858.997	21561
859.13	21557
859.263	21610
859.396	21583
859.529	21633
859.662	21515
859.795	21515
859.928	21557
860.061	21648
860.194	21743
860.327	21595
860.46	21572
860.592	21770
860.725	21587
860.858	21644
860.99	21580
861.123	21477
861.256	21523
861.388	21473
861.521	22223
861.653	21511
861.786	21310
861.918	21420
862.05	21507
862.183	21511
862.315	21492
862.447	21553
862.58	21424
862.712	21287
862.844	21214
862.976	21359
863.108	21405
863.24	21709
863.372	21283
863.504	21260
863.636	21241
863.768	21321
863.9	21096
864.032	21218
864.164	21241
864.296	21348
864.428	21264
864.559	21310
864.691	21424
864.823	21287
864.954	21222
865.086	21325
865.217	21176
865.349	21161
865.48	21123
865.612	21173
865.743	21252
865.875	21184
866.006	21207
866.137	21176
866.269	21077
866.4	21195
866.531	21173
866.662	21184
866.793	21108
866.924	21074
867.055	21074
867.186	21108
867.317	21013
867.448	20994
867.579	20929
867.71	20990
867.841	21001
867.972	21146
868.103	21043
868.233	21096
868.364	21039
868.495	21313
868.625	21439
868.756	21393
868.886	21291
869.017	21188
869.147	21469
869.278	21450
869.408	21298
869.539	21367
869.669	21431
869.799	21496
869.929	21405
870.06	21401
870.19	21717
870.32	21595
870.45	21720
870.58	21842
870.71	21857
870.84	21850
870.97	21667
871.1	21690
871.23	21892
871.36	22059
871.489	21895
871.619	21930
871.749	21926
871.879	21945
872.008	22029
872.138	21857
872.267	21918
872.397	21838
872.526	21690
872.656	21739
872.785	21827
872.915	22040
873.044	21941
873.173	21895
873.303	22040
873.432	21892
873.561	22082
873.69	21979
873.819	21915
873.948	22093
874.077	22021
874.206	21949
874.335	21937
874.464	22105
874.593	22112
874.722	22166
874.851	22287
874.979	22185
875.108	22238
875.237	22063
875.365	22086
875.494	22029
875.623	22306
875.751	22116
875.88	22211
876.008	22352
876.136	22432
876.265	22607
876.393	22786
876.521	22584
876.65	22672
876.778	22557
876.906	22615
877.034	22592
877.162	22565
877.29	22516
877.418	22565
877.546	22527
877.674	22630
877.802	22470
877.93	22493
878.058	22470
878.185	22303
878.313	22360
878.441	22550
878.568	22394
878.696	22443
878.824	22550
878.951	22615
879.079	22687
879.206	22850
879.333	22649
879.461	22519
879.588	22618
879.715	22668
879.842	22786
879.97	22519
880.097	22276
880.224	22265
880.351	22341
880.478	22367
880.605	22390
880.732	22314
880.859	22531
880.986	22413
881.112	22329
881.239	22211
881.366	22006
881.493	21964
881.619	21911
881.746	21926
881.872	21884
881.999	21930
882.125	21842
882.252	21937
882.378	21869
882.505	21930
882.631	21774
882.757	21587
882.883	21739
883.01	21610
883.136	21667
883.262	21397
883.388	21428
883.514	21568
883.64	21576
883.766	21519
883.892	21310
884.018	21431
884.143	21686
884.269	21675
884.395	21485
884.52	21317
884.646	21306
884.772	21287
884.897	21154
885.023	21325
885.148	21283
885.274	21389
885.399	21348
885.524	21085
885.65	21344
885.775	21359
885.9	21245
886.025	21313
886.15	21321
886.275	21252
886.4	21123
886.525	21150
886.65	21222
886.775	21100
886.9	21325
887.025	21294
887.149	21203
887.274	21066
887.399	21039
887.523	21081
887.648	20960
887.773	21013
887.897	21055
888.021	20986
888.146	20849
888.27	21039
888.395	21096
888.519	21043
888.643	21013
888.767	20967
888.891	20853
889.015	20815
889.139	20868
889.263	20811
889.387	20864
889.511	20998
889.635	20944
889.759	20762
889.883	20708
890.006	20746
890.13	20876
890.254	20804
890.377	20792
890.501	20560
890.624	20579
890.748	20705
890.871	20476
890.995	20324
891.118	20393
891.241	20366
891.364	20298
891.488	20423
891.611	20377
891.734	20317
891.857	20351
891.98	20355
892.103	20381
892.226	20362
892.349	20252
892.471	20187
892.594	20225
892.717	20278
892.839	20183
892.962	20286
893.085	20423
893.207	20347
893.33	20164
893.452	20214
893.575	20271
893.697	20275
893.819	20465
893.941	20518
894.064	20461
894.186	20259
894.308	20187
894.43	20377
894.552	20377
894.674	20286
894.796	20062
894.918	20233
895.04	20180
895.161	20271
895.283	20488
895.405	20240
895.526	20248
895.648	20290
895.769	20351
895.891	20290
896.012	20427
896.134	20355
896.255	20237
896.376	20172
896.498	20336
896.619	20358
896.74	20134
896.861	20290
896.982	20533
897.103	20762
897.224	20575
897.345	20495
897.466	20377
897.587	20594
897.708	20644
897.828	20469
897.949	20446
898.07	20351
898.19	20267
898.311	20484
898.431	20408
898.552	20457
898.672	20629
898.792	20598
898.913	20560
899.033	20336
899.153	20183
899.273	20248
899.393	20191
899.513	20263
899.633	20252
899.753	20187
899.873	20126
899.993	20214
900.113	20081
900.232	20221
900.352	20210
900.472	20210
900.591	20046
900.711	19978
900.83	19978
900.95	20065
901.069	20187
901.189	19947
901.308	19700
901.427	19525
901.546	19635
901.665	19700
901.784	19506
901.904	19422
902.023	19354
902.141	19171
902.26	19099
902.379	19164
902.498	19095
902.617	19065
902.735	19221
902.854	19015
902.973	18954
903.091	18783
903.21	18878
903.328	18810
903.446	18642
903.565	18528
903.683	18578
903.801	18509
903.919	18684
904.038	18525
904.156	18300
904.274	18365
904.392	18353
904.51	18380
904.627	18251
904.745	18471
904.863	18403
904.981	18144
905.098	17992
905.216	18083
905.334	18003
905.451	18140
905.569	18015
905.686	18155
905.803	17984
905.921	17836
906.038	17927
906.155	17916
906.272	17752
906.389	17821
906.506	17570
906.623	17551
906.74	17577
906.857	17391
906.974	17334
907.091	17592
907.208	17729
907.324	17646
907.441	17482
907.557	17284
907.674	17212
907.79	17208
907.907	17258
908.023	17296
908.139	17284
908.256	17189
908.372	17204
908.488	17090
908.604	17071
908.72	16946
908.836	16961
908.952	16972
909.068	16968
909.184	17162
909.3	16999
909.415	16923
909.531	16999
909.647	16797
909.762	16828
909.878	16767
909.993	16687
910.108	16774
910.224	16478
910.339	16615
910.454	16558
910.57	16462
910.685	16531
910.8	16790
910.915	16573
911.03	16432
911.145	16348
911.259	16207
911.374	16299
911.489	16242
911.604	16204
911.718	16082
911.833	16086
911.947	15949
912.062	15876
912.176	16048
912.291	16086
912.405	16055
912.519	16257
912.633	16166
912.748	16124
912.862	15987
912.976	15812
913.09	15701
913.204	15713
913.318	15827
913.431	15934
913.545	15983
913.659	15873
913.772	15804
913.886	15686
914	15648
914.113	15671
914.226	15713
914.34	15690
914.453	15526
914.566	15686
914.68	15530
914.793	15469
914.906	15252
915.019	15291
915.132	15192
915.245	15184
915.358	15283
915.47	15245
915.583	15291
915.696	15291
915.809	15317
915.921	15428
916.034	15230
916.146	15127
916.259	15051
916.371	15302
916.483	15207
916.595	15070
916.708	15161
916.82	15119
916.932	15024
917.044	15032
917.156	14941
917.268	14914
917.38	14914
917.491	14864
917.603	14807
917.715	14849
917.826	14979
917.938	14834
918.049	14712
918.161	14906
918.272	14971
918.384	14944
918.495	14819
918.606	14697
918.717	14617
918.828	14746
918.939	14632
919.05	14598
919.161	14598
919.272	14400
919.383	14461
919.494	14621
919.604	14739
919.715	14678
919.826	14530
919.936	14617
920.047	14648
920.157	14644
920.267	14754
920.378	14617
920.488	14552
920.598	14724
920.708	14857
920.818	14826
920.928	14678
921.038	14883
921.148	14754
921.258	14640
921.368	14556
921.477	14347
921.587	14412
921.697	14214
921.806	14339
921.916	14248
922.025	14005
922.134	13925
922.244	13898
922.353	14035
922.462	13875
922.571	13719
922.68	13681
922.789	13624
922.898	13655
923.007	13559
923.116	13662
923.224	13628
923.333	13518
923.442	13525
923.55	13400
923.659	13563
923.767	13499
923.876	13403
923.984	13438
924.092	13335
924.201	13381
924.309	13335
924.417	13411
924.525	13289
924.633	13217
924.741	14286
924.849	13008
924.956	13152
925.064	13084
925.172	13019
925.279	13061
925.387	13091
925.494	13038
925.602	13107
925.709	13141
925.816	12989
925.924	12970
926.031	13141
926.138	12989
926.245	12973
926.352	12871
926.459	12928
926.566	13004
926.673	12859
926.779	12719
926.886	12768
926.993	12753
927.099	12570
927.206	12544
927.312	12570
927.419	12677
927.525	12642
927.631	12654
927.737	12479
927.843	12475
927.95	12281
928.056	12445
928.162	12433
928.267	12475
928.373	13110
928.479	12509
928.585	12247
928.69	12346
928.796	12327
928.901	12209
929.007	12117
929.112	12365
929.218	12216
929.323	12178
929.428	12144
929.533	12296
929.638	11999
929.743	12095
929.848	12228
929.953	12049
930.058	12011
930.163	11809
930.267	11824
930.372	12026
930.477	11805
930.581	12038
930.685	11904
930.79	11737
930.894	11760
930.998	11703
931.103	11805
931.207	11486
931.311	11391
931.415	11349
931.519	11128
931.623	11022
