Data from test_V78500241_36.txt Node
Date: Fri Mar 25 15:42:03 CST 2022
User: usil
Spectrometer: V785-0024
Trigger mode: 0
Integration Time (sec): 4.000000E-1
Scans to average: 1
Nonlinearity correction enabled: false
Boxcar width: 0
Storing dark spectrum: false
XAxis mode: Wavelengths
Number of Pixels in Spectrum: 1024
>>>>>Begin Spectral Data<<<<<
801.071	28276
801.214	28166
801.356	28002
801.499	27930
801.641	27770
801.783	27888
801.926	27800
802.068	27816
802.211	27705
802.353	27724
802.496	27424
802.638	27412
802.78	27367
802.923	27386
803.065	27207
803.208	27230
803.35	27279
803.492	27405
803.635	27568
803.777	27344
803.919	27519
804.061	27804
804.204	27576
804.346	27393
804.488	27416
804.63	27382
804.773	27245
804.915	27283
805.057	27405
805.199	27245
805.341	27424
805.483	27393
805.626	27568
805.768	27454
805.91	27564
806.052	27686
806.194	27389
806.336	27682
806.478	27420
806.62	27439
806.762	27496
806.904	27660
807.046	27865
807.188	27819
807.33	27774
807.472	27854
807.614	27835
807.756	27736
807.898	27705
808.04	27580
808.182	27568
808.324	27568
808.465	27675
808.607	27709
808.749	27759
808.891	27907
809.033	28112
809.174	27918
809.316	28040
809.458	27960
809.6	27953
809.741	27953
809.883	27945
810.025	28169
810.166	28188
810.308	28154
810.45	28150
810.591	27941
810.733	27934
810.875	27781
811.016	27583
811.158	27660
811.299	27960
811.441	28025
811.582	28002
811.724	27781
811.865	27827
812.007	27793
812.148	27823
812.29	27774
812.431	27983
812.573	28124
812.714	28261
812.855	28242
812.997	28474
813.138	28519
813.279	28375
813.421	28394
813.562	28200
813.703	27972
813.845	27975
813.986	27488
814.127	27515
814.268	27424
814.41	27321
814.551	27317
814.692	27416
814.833	27302
814.974	27173
815.115	27252
815.256	27146
815.397	27176
815.539	27226
815.68	27142
815.821	26967
815.962	27001
816.103	26990
816.244	26929
816.385	26746
816.526	26746
816.666	26644
816.807	26568
816.948	26579
817.089	26537
817.23	26469
817.371	26484
817.512	26412
817.653	26366
817.793	26305
817.934	26431
818.075	26480
818.216	26347
818.356	26237
818.497	26172
818.638	25955
818.778	26058
818.919	26043
819.06	26172
819.2	26313
819.341	26336
819.481	26294
819.622	26434
819.762	26625
819.903	26587
820.043	26476
820.184	26320
820.324	26480
820.465	26492
820.605	26419
820.746	26343
820.886	26157
821.026	26423
821.167	26278
821.307	26461
821.447	26282
821.588	26237
821.728	25963
821.868	25898
822.008	25826
822.149	25841
822.289	25765
822.429	25529
822.569	25388
822.709	25373
822.849	25164
822.99	25270
823.13	25354
823.27	25190
823.41	25122
823.55	24924
823.69	24935
823.83	24973
823.97	24947
824.11	24726
824.25	24589
824.389	24734
824.529	24814
824.669	24582
824.809	24696
824.949	24741
825.089	24882
825.228	24688
825.368	24570
825.508	24513
825.648	24517
825.787	24589
825.927	24547
826.067	24574
826.206	24490
826.346	24631
826.485	24509
826.625	24494
826.765	24620
826.904	24452
827.044	24235
827.183	24239
827.323	24216
827.462	24243
827.601	24121
827.741	24289
827.88	24247
828.02	24091
828.159	24159
828.298	24133
828.437	24194
828.577	24110
828.716	24395
828.855	24159
828.994	23954
829.134	23779
829.273	23965
829.412	23710
829.551	23767
829.69	23874
829.829	23798
829.968	23828
830.107	23935
830.246	23935
830.385	23821
830.524	23767
830.663	23634
830.802	23524
830.941	23299
831.08	23429
831.219	23471
831.357	23406
831.496	23649
831.635	23379
831.774	23250
831.913	23193
832.051	23121
832.19	23132
832.329	23166
832.467	23029
832.606	22972
832.744	22961
832.883	23094
833.022	23102
833.16	23048
833.299	22995
833.437	23064
833.576	23162
833.714	22938
833.852	23025
833.991	23037
834.129	23181
834.267	23067
834.406	23029
834.544	23033
834.682	22869
834.821	22976
834.959	23143
835.097	22824
835.235	23102
835.373	22904
835.511	22915
835.65	22858
835.788	22869
835.926	22710
836.064	22641
836.202	22710
836.34	22843
836.478	22919
836.615	22771
836.753	22843
836.891	22946
837.029	22786
837.167	22717
837.305	22736
837.443	22706
837.58	22577
837.718	22710
837.856	22748
837.993	22481
838.131	22618
838.269	22573
838.406	22626
838.544	22481
838.681	22443
838.819	22303
838.956	22154
839.094	22185
839.231	22131
839.369	22223
839.506	22455
839.643	22322
839.781	22097
839.918	22097
840.055	21884
840.193	22010
840.33	21968
840.467	22021
840.604	22086
840.742	22299
840.879	21876
841.016	21899
841.153	21876
841.29	21994
841.427	21991
841.564	22002
841.701	21880
841.838	21949
841.975	21911
842.112	21736
842.249	21717
842.385	21690
842.522	21876
842.659	21915
842.796	21603
842.933	21572
843.069	21618
843.206	21553
843.343	21523
843.479	21542
843.616	21667
843.752	21363
843.889	21279
844.025	21663
844.162	21348
844.298	21450
844.435	21431
844.571	21287
844.708	21549
844.844	21549
844.98	21504
845.117	21393
845.253	21302
845.389	21222
845.525	21252
845.661	21230
845.798	21104
845.934	21161
846.07	20994
846.206	21070
846.342	21252
846.478	21119
846.614	20883
846.75	20796
846.886	20792
847.022	20967
847.158	20785
847.294	20785
847.429	20720
847.565	20796
847.701	20921
847.837	20640
847.972	20541
848.108	20667
848.244	20625
848.379	20465
848.515	20313
848.65	20351
848.786	20324
848.921	20324
849.057	20492
849.192	20484
849.328	20362
849.463	20263
849.598	20298
849.734	20271
849.869	20206
850.004	20107
850.14	20153
850.275	20046
850.41	20035
850.545	20065
850.68	20103
850.815	20046
850.95	20031
851.085	20206
851.22	20122
851.355	20020
851.49	20016
851.625	20043
851.76	19970
851.895	20012
852.03	20005
852.165	20046
852.299	20103
852.434	20111
852.569	20035
852.703	20001
852.838	20050
852.973	20214
853.107	20229
853.242	19928
853.376	19963
853.511	19822
853.645	19826
853.78	20008
853.914	19902
854.048	19807
854.183	19864
854.317	19811
854.451	20096
854.585	19784
854.72	19841
854.854	19864
854.988	19902
855.122	19887
855.256	19772
855.39	19921
855.524	19909
855.658	19936
855.792	19883
855.926	19860
856.06	19906
856.194	20050
856.327	19879
856.461	19803
856.595	19788
856.729	19795
856.862	19860
856.996	19860
857.13	19833
857.263	19986
857.397	19909
857.53	19776
857.664	19906
857.797	19833
857.931	19902
858.064	19826
858.197	19917
858.331	19780
858.464	19776
858.597	19666
858.731	19731
858.864	19837
858.997	19731
859.13	19765
859.263	19852
859.396	19871
859.529	19712
859.662	19666
859.795	19731
859.928	19799
860.061	19902
860.194	20008
860.327	19761
860.46	19803
860.592	19849
860.725	19940
860.858	19879
860.99	19742
861.123	19643
861.256	19685
861.388	19556
861.521	20282
861.653	19643
861.786	19632
861.918	19658
862.05	19727
862.183	19685
862.315	19917
862.447	19883
862.58	19753
862.712	19518
862.844	19377
862.976	19613
863.108	19544
863.24	19890
863.372	19350
863.504	19495
863.636	19388
863.768	19476
863.9	19487
864.032	19381
864.164	19388
864.296	19472
864.428	19567
864.559	19529
864.691	19624
864.823	19495
864.954	19537
865.086	19468
865.217	19312
865.349	19320
865.48	19358
865.612	19415
865.743	19491
865.875	19445
866.006	19415
866.137	19445
866.269	19415
866.4	19445
866.531	19324
866.662	19263
866.793	19346
866.924	19434
867.055	19415
867.186	19282
867.317	19324
867.448	19194
867.579	19373
867.71	19236
867.841	19152
867.972	19377
868.103	19282
868.233	19278
868.364	19266
868.495	19476
868.625	19510
868.756	19552
868.886	19381
869.017	19544
869.147	19616
869.278	19666
869.408	19632
869.539	19514
869.669	19662
869.799	19628
869.929	19594
870.06	19674
870.19	19875
870.32	19852
870.45	19784
870.58	19974
870.71	19951
870.84	19951
870.97	19944
871.1	19879
871.23	20157
871.36	20142
871.489	19993
871.619	20107
871.749	20145
871.879	20107
872.008	20267
872.138	20168
872.267	20191
872.397	20122
872.526	19997
872.656	20024
872.785	20039
872.915	20145
873.044	20210
873.173	20218
873.303	20328
873.432	20267
873.561	20324
873.69	20134
873.819	20259
873.948	20240
874.077	20145
874.206	20065
874.335	20142
874.464	20339
874.593	20423
874.722	20476
874.851	20381
874.979	20461
875.108	20560
875.237	20358
875.365	20317
875.494	20434
875.623	20530
875.751	20457
875.88	20423
876.008	20552
876.136	20583
876.265	20826
876.393	20853
876.521	20948
876.65	20887
876.778	20769
876.906	20880
877.034	20678
877.162	20796
877.29	20701
877.418	20796
877.546	20868
877.674	20750
877.802	20735
877.93	20800
878.058	20735
878.185	20640
878.313	20712
878.441	20777
878.568	20632
878.696	20663
878.824	20887
878.951	20804
879.079	20960
879.206	20990
879.333	20975
879.461	20842
879.588	20933
879.715	21032
879.842	21013
879.97	20826
880.097	20590
880.224	20674
880.351	20594
880.478	20609
880.605	20484
880.732	20674
880.859	20906
880.986	20587
881.112	20731
881.239	20598
881.366	20450
881.493	20389
881.619	20145
881.746	20313
881.872	20244
881.999	20153
882.125	20229
882.252	20248
882.378	20191
882.505	20339
882.631	20077
882.757	19986
882.883	20062
883.01	20084
883.136	20001
883.262	19887
883.388	19772
883.514	20058
883.64	20062
883.766	19970
883.892	19731
884.018	19849
884.143	19940
884.269	20039
884.395	19658
884.52	19681
884.646	19590
884.772	19594
884.897	19567
885.023	19639
885.148	19738
885.274	19643
885.399	19788
885.524	19632
885.65	19651
885.775	19643
885.9	19609
886.025	19784
886.15	19639
886.275	19620
886.4	19548
886.525	19567
886.65	19533
886.775	19430
886.9	19765
887.025	19811
887.149	19537
887.274	19411
887.399	19327
887.523	19266
887.648	19320
887.773	19232
887.897	19396
888.021	19396
888.146	19377
888.27	19506
888.395	19548
888.519	19346
888.643	19453
888.767	19460
888.891	19327
889.015	19232
889.139	19183
889.263	19179
889.387	19175
889.511	19472
889.635	19282
889.759	19099
889.883	19190
890.006	19088
890.13	19274
890.254	19122
890.377	19015
890.501	18958
890.624	18920
890.748	19038
890.871	18871
890.995	18760
891.118	18734
891.241	18863
891.364	18848
891.488	18802
891.611	18764
891.734	18738
891.857	18776
891.98	18837
892.103	18897
892.226	18817
892.349	18661
892.471	18585
892.594	18639
892.717	18817
892.839	18658
892.962	18745
893.085	18692
893.207	18684
893.33	18456
893.452	18654
893.575	18882
893.697	18654
893.819	18848
893.941	18962
894.064	18791
894.186	18620
894.308	18661
894.43	18867
894.552	18875
894.674	18776
894.796	18616
894.918	18665
895.04	18677
895.161	18840
895.283	18768
895.405	18719
895.526	18772
895.648	18783
895.769	18760
895.891	18806
896.012	18810
896.134	18738
896.255	18802
896.376	18738
896.498	18783
896.619	18852
896.74	18768
896.861	18913
896.982	19168
897.103	19289
897.224	19187
897.345	19221
897.466	18932
897.587	19088
897.708	19118
897.828	18958
897.949	18890
898.07	18810
898.19	18970
898.311	19008
898.431	18932
898.552	19023
898.672	19122
898.792	18935
898.913	18985
899.033	18871
899.153	18681
899.273	18585
899.393	18650
899.513	18700
899.633	18810
899.753	18798
899.873	18677
899.993	18620
900.113	18536
900.232	18772
900.352	18631
900.472	18658
900.591	18445
900.711	18540
900.83	18414
900.95	18601
901.069	18677
901.189	18456
901.308	18239
901.427	18163
901.546	18129
901.665	18197
901.784	18064
901.904	18015
902.023	17984
902.141	17672
902.26	17676
902.379	17665
902.498	17680
902.617	17581
902.735	17687
902.854	17722
902.973	17608
903.091	17326
903.21	17250
903.328	17303
903.446	17284
903.565	17178
903.683	17109
903.801	17117
903.919	17090
904.038	16968
904.156	16877
904.274	17006
904.392	16961
904.51	16850
904.627	16850
904.745	16949
904.863	16767
904.981	16744
905.098	16683
905.216	16481
905.334	16687
905.451	16535
905.569	16508
905.686	16535
905.803	16542
905.921	16360
906.038	16417
906.155	16337
906.272	16333
906.389	16348
906.506	16109
906.623	16109
906.74	16139
906.857	15949
906.974	15979
907.091	16101
907.208	16242
907.324	16204
907.441	15953
907.557	15911
907.674	15641
907.79	15701
907.907	15808
908.023	15892
908.139	15785
908.256	15747
908.372	15690
908.488	15686
908.604	15576
908.72	15485
908.836	15545
908.952	15458
909.068	15504
909.184	15606
909.3	15557
909.415	15614
909.531	15447
909.647	15184
909.762	15184
909.878	15192
909.993	15203
910.108	15150
910.224	15058
910.339	15097
910.454	14887
910.57	14952
910.685	14963
910.8	15161
910.915	15146
911.03	14967
911.145	14845
911.259	14670
911.374	14830
911.489	14659
911.604	14625
911.718	14499
911.833	14621
911.947	14507
912.062	14427
912.176	14598
912.291	14537
912.405	14549
912.519	14705
912.633	14724
912.748	14564
912.862	14480
912.976	14332
913.09	14218
913.204	14339
913.318	14347
913.431	14431
913.545	14503
913.659	14522
913.772	14282
913.886	14088
914	14123
914.113	14248
914.226	14244
914.34	14263
914.453	14073
914.566	14202
914.68	14024
914.793	14088
914.906	13868
915.019	13830
915.132	13788
915.245	13822
915.358	13852
915.47	13921
915.583	13780
915.696	13868
915.809	14024
915.921	13925
916.034	13738
916.146	13742
916.259	13731
916.371	13814
916.483	13780
916.595	13677
916.708	13753
916.82	13666
916.932	13590
917.044	13700
917.156	13594
917.268	13518
917.38	13578
917.491	13552
917.603	13582
917.715	13586
917.826	13628
917.938	13430
918.049	13381
918.161	13495
918.272	13681
918.384	13651
918.495	13415
918.606	13282
918.717	13251
918.828	13369
918.939	13396
919.05	13198
919.161	13263
919.272	13110
919.383	13202
919.494	13407
919.604	13369
919.715	13312
919.826	13232
919.936	13312
920.047	13255
920.157	13247
920.267	13476
920.378	13251
920.488	13179
920.598	13434
920.708	13495
920.818	13396
920.928	13335
921.038	13567
921.148	13457
921.258	13190
921.368	13164
921.477	13012
921.587	12954
921.697	12878
921.806	12947
921.916	12787
922.025	12745
922.134	12669
922.244	12593
922.353	12749
922.462	12486
922.571	12441
922.68	12334
922.789	12311
922.898	12292
923.007	12224
923.116	12357
923.224	12266
923.333	12311
923.442	12194
923.55	12144
923.659	12144
923.767	12266
923.876	12125
923.984	12136
924.092	12076
924.201	12163
924.309	12095
924.417	12030
924.525	12003
924.633	11916
924.741	12882
924.849	11790
924.956	11961
925.064	11855
925.172	11745
925.279	11756
925.387	11855
925.494	11805
925.602	11980
925.709	11923
925.816	11642
925.924	11745
926.031	11752
926.138	11695
926.245	11843
926.352	11608
926.459	11813
926.566	11828
926.673	11665
926.779	11512
926.886	11512
926.993	11520
927.099	11486
927.206	11353
927.312	11436
927.419	11512
927.525	11398
927.631	11535
927.737	11277
927.843	11208
927.95	11094
928.056	11216
928.162	11288
928.267	11212
928.373	11870
928.479	11334
928.585	11029
928.69	11269
928.796	11261
928.901	11083
929.007	11056
929.112	11151
929.218	11029
929.323	11033
929.428	10991
929.533	11060
929.638	10908
929.743	10953
929.848	10984
929.953	10965
930.058	10824
930.163	10653
930.267	10733
930.372	10885
930.477	10622
930.581	10892
930.685	10797
930.79	10603
930.894	10637
930.998	10558
931.103	10752
931.207	10341
931.311	10276
931.415	10192
931.519	10048
931.623	10078
