Data from test_V78500241_3255.txt Node
Date: Fri Mar 25 16:04:20 CST 2022
User: usil
Spectrometer: V785-0024
Trigger mode: 0
Integration Time (sec): 4.000000E-1
Scans to average: 1
Nonlinearity correction enabled: false
Boxcar width: 0
Storing dark spectrum: false
XAxis mode: Wavelengths
Number of Pixels in Spectrum: 1024
>>>>>Begin Spectral Data<<<<<
801.071	28809
801.214	28748
801.356	28538
801.499	28497
801.641	28386
801.783	28348
801.926	28432
802.068	28325
802.211	28451
802.353	28310
802.496	28078
802.638	28143
802.78	27991
802.923	27994
803.065	27907
803.208	28048
803.35	28078
803.492	28147
803.635	28246
803.777	28238
803.919	28360
804.061	28550
804.204	28367
804.346	28295
804.488	28188
804.63	28200
804.773	28226
804.915	28272
805.057	28584
805.199	28356
805.341	28413
805.483	28371
805.626	28512
805.768	28413
805.91	28580
806.052	28607
806.194	28428
806.336	28698
806.478	28478
806.62	28656
806.762	28763
806.904	28801
807.046	29140
807.188	28839
807.33	28972
807.472	29041
807.614	28748
807.756	28915
807.898	28949
808.04	28721
808.182	28767
808.324	28934
808.465	28888
808.607	29223
808.749	29235
808.891	29330
809.033	29375
809.174	29307
809.316	29174
809.458	29246
809.6	29140
809.741	29288
809.883	29440
810.025	29395
810.166	29448
810.308	29520
810.45	29353
810.591	29402
810.733	29128
810.875	29170
811.016	29280
811.158	29254
811.299	29223
811.441	29356
811.582	29391
811.724	29208
811.865	29140
812.007	29318
812.148	29246
812.29	29292
812.431	29360
812.573	29448
812.714	29615
812.855	29741
812.997	29794
813.138	29977
813.279	29752
813.421	29733
813.562	29703
813.703	29642
813.845	29448
813.986	29124
814.127	28953
814.268	28793
814.41	28866
814.551	28953
814.692	29033
814.833	28809
814.974	28858
815.115	28839
815.256	28904
815.397	28957
815.539	28797
815.68	28858
815.821	28683
815.962	28710
816.103	28691
816.244	28504
816.385	28557
816.526	28478
816.666	28272
816.807	28067
816.948	28318
817.089	28291
817.23	28196
817.371	28249
817.512	28188
817.653	28329
817.793	28173
817.934	28246
818.075	28242
818.216	28303
818.356	28196
818.497	28097
818.638	28032
818.778	27994
818.919	27972
819.06	28086
819.2	28090
819.341	28375
819.481	28325
819.622	28462
819.762	28554
819.903	28603
820.043	28401
820.184	28470
820.324	28398
820.465	28668
820.605	28417
820.746	28409
820.886	28280
821.026	28375
821.167	28390
821.307	28322
821.447	28329
821.588	28139
821.728	28036
821.868	27880
822.008	27789
822.149	27652
822.289	27709
822.429	27507
822.569	27367
822.709	27363
822.849	27310
822.99	27420
823.13	27283
823.27	27051
823.41	27089
823.55	26929
823.69	27017
823.83	27047
823.97	27036
824.11	26739
824.25	26876
824.389	26990
824.529	26986
824.669	26830
824.809	26914
824.949	26868
825.089	26902
825.228	26880
825.368	26754
825.508	26834
825.648	26853
825.787	26796
825.927	26720
826.067	26731
826.206	26708
826.346	26819
826.485	26785
826.625	26819
826.765	26963
826.904	26788
827.044	26602
827.183	26583
827.323	26412
827.462	26674
827.601	26568
827.741	26526
827.88	26503
828.02	26385
828.159	26419
828.298	26499
828.437	26587
828.577	26453
828.716	26629
828.855	26412
828.994	26164
829.134	26210
829.273	26294
829.412	26046
829.551	26240
829.69	26187
829.829	26183
829.968	26305
830.107	26138
830.246	26180
830.385	26115
830.524	26050
830.663	25997
830.802	25997
830.941	25780
831.08	25784
831.219	25784
831.357	25871
831.496	25913
831.635	25750
831.774	25769
831.913	25624
832.051	25552
832.19	25582
832.329	25544
832.467	25430
832.606	25289
832.744	25419
832.883	25388
833.022	25449
833.16	25487
833.299	25472
833.437	25369
833.576	25632
833.714	25487
833.852	25491
833.991	25472
834.129	25483
834.267	25559
834.406	25521
834.544	25594
834.682	25472
834.821	25544
834.959	25734
835.097	25479
835.235	25472
835.373	25605
835.511	25419
835.65	25438
835.788	25415
835.926	25198
836.064	25099
836.202	25084
836.34	25312
836.478	25441
836.615	25282
836.753	25312
836.891	25327
837.029	25369
837.167	25160
837.305	25236
837.443	25190
837.58	25053
837.718	25259
837.856	25240
837.993	25107
838.131	25259
838.269	24996
838.406	25080
838.544	25000
838.681	24935
838.819	24913
838.956	24639
839.094	24555
839.231	24707
839.369	24901
839.506	25072
839.643	24772
839.781	24479
839.918	24445
840.055	24665
840.193	24604
840.33	24563
840.467	24544
840.604	24589
840.742	24856
840.879	24475
841.016	24429
841.153	24395
841.29	24673
841.427	24559
841.564	24528
841.701	24433
841.838	24429
841.975	24429
842.112	24437
842.249	24388
842.385	24323
842.522	24517
842.659	24311
842.796	24136
842.933	24319
843.069	24350
843.206	24224
843.343	24350
843.479	24357
843.616	24270
843.752	24167
843.889	24018
844.025	24232
844.162	24087
844.298	24197
844.435	24140
844.571	24015
844.708	24098
844.844	24323
844.98	24117
845.117	24186
845.253	24003
845.389	23958
845.525	24007
845.661	23809
845.798	23703
845.934	23882
846.07	23783
846.206	23767
846.342	24022
846.478	23775
846.614	23524
846.75	23379
846.886	23440
847.022	23608
847.158	23547
847.294	23421
847.429	23657
847.565	23551
847.701	23722
847.837	23353
847.972	23258
848.108	23200
848.244	23356
848.379	23067
848.515	23109
848.65	23151
848.786	23284
848.921	23170
849.057	23159
849.192	23064
849.328	23174
849.463	23143
849.598	23098
849.734	23006
849.869	23010
850.004	22953
850.14	22919
850.275	22904
850.41	22831
850.545	22824
850.68	22866
850.815	22896
850.95	22877
851.085	23010
851.22	22984
851.355	22908
851.49	22949
851.625	22904
851.76	22984
851.895	22759
852.03	22744
852.165	22809
852.299	22892
852.434	23025
852.569	22881
852.703	22927
852.838	22911
852.973	23090
853.107	22976
853.242	22771
853.376	22645
853.511	22535
853.645	22649
853.78	22790
853.914	22668
854.048	22706
854.183	22755
854.317	22626
854.451	22953
854.585	22740
854.72	22702
854.854	22778
854.988	22565
855.122	22725
855.256	22531
855.39	22580
855.524	22733
855.658	22694
855.792	22778
855.926	22691
856.06	22744
856.194	22816
856.327	22816
856.461	22603
856.595	22542
856.729	22706
856.862	22850
856.996	22786
857.13	22805
857.263	22755
857.397	22839
857.53	22691
857.664	22740
857.797	22774
857.931	22725
858.064	22679
858.197	22793
858.331	22725
858.464	22649
858.597	22531
858.731	22573
858.864	22656
858.997	22645
859.13	22645
859.263	22630
859.396	22805
859.529	22664
859.662	22679
859.795	22664
859.928	22649
860.061	22850
860.194	22900
860.327	22881
860.46	22599
860.592	22679
860.725	22835
860.858	22892
860.99	22691
861.123	22656
861.256	22710
861.388	22752
861.521	23490
861.653	22645
861.786	22459
861.918	22447
862.05	22721
862.183	22694
862.315	22561
862.447	22702
862.58	22554
862.712	22462
862.844	22352
862.976	22512
863.108	22504
863.24	22824
863.372	22459
863.504	22363
863.636	22424
863.768	22459
863.9	22379
864.032	22474
864.164	22272
864.296	22375
864.428	22535
864.559	22459
864.691	22436
864.823	22284
864.954	22443
865.086	22318
865.217	22329
865.349	22223
865.48	22253
865.612	22306
865.743	22382
865.875	22299
866.006	22219
866.137	22219
866.269	22238
866.4	22272
866.531	22280
866.662	22196
866.793	22211
866.924	22169
867.055	22219
867.186	22257
867.317	22188
867.448	22059
867.579	22120
867.71	22036
867.841	22188
867.972	22226
868.103	22226
868.233	22276
868.364	22166
868.495	22371
868.625	22405
868.756	22626
868.886	22329
869.017	22489
869.147	22656
869.278	22626
869.408	22451
869.539	22443
869.669	22504
869.799	22538
869.929	22569
870.06	22421
870.19	22831
870.32	22656
870.45	22717
870.58	22816
870.71	22858
870.84	22953
870.97	22733
871.1	22881
871.23	23018
871.36	23033
871.489	22873
871.619	22984
871.749	23083
871.879	23025
872.008	23200
872.138	23090
872.267	23079
872.397	22968
872.526	22839
872.656	22881
872.785	22809
872.915	23006
873.044	23010
873.173	23166
873.303	23083
873.432	23121
873.561	23067
873.69	23014
873.819	23174
873.948	23197
874.077	23022
874.206	23064
874.335	23071
874.464	23277
874.593	23273
874.722	23258
874.851	23349
874.979	23250
875.108	23246
875.237	23239
875.365	23147
875.494	23277
875.623	23353
875.751	23280
875.88	23254
876.008	23478
876.136	23391
876.265	23653
876.393	23824
876.521	23992
876.65	23786
876.778	23665
876.906	23619
877.034	23554
877.162	23634
877.29	23608
877.418	23634
877.546	23665
877.674	23608
877.802	23566
877.93	23691
878.058	23493
878.185	23524
878.313	23562
878.441	23551
878.568	23406
878.696	23630
878.824	23729
878.951	23767
879.079	23901
879.206	23980
879.333	23843
879.461	23623
879.588	23695
879.715	23699
879.842	23984
879.97	23714
880.097	23467
880.224	23436
880.351	23497
880.478	23433
880.605	23425
880.732	23421
880.859	23630
880.986	23505
881.112	23516
881.239	23376
881.366	23227
881.493	23075
881.619	23064
881.746	23006
881.872	22984
881.999	22873
882.125	22847
882.252	23094
882.378	23010
882.505	23162
882.631	22908
882.757	22637
882.883	22713
883.01	22630
883.136	22653
883.262	22550
883.388	22371
883.514	22607
883.64	22660
883.766	22508
883.892	22360
884.018	22485
884.143	22611
884.269	22706
884.395	22402
884.52	22299
884.646	22276
884.772	22211
884.897	22105
885.023	22386
885.148	22360
885.274	22344
885.399	22394
885.524	22367
885.65	22333
885.775	22348
885.9	22147
886.025	22382
886.15	22421
886.275	22234
886.4	22223
886.525	22299
886.65	22162
886.775	22215
886.9	22371
887.025	22489
887.149	22238
887.274	21991
887.399	21960
887.523	22048
887.648	21941
887.773	21907
887.897	22097
888.021	22025
888.146	22021
888.27	22063
888.395	22158
888.519	22112
888.643	22055
888.767	22070
888.891	22002
889.015	21713
889.139	21804
889.263	21785
889.387	21930
889.511	22105
889.635	22025
889.759	21770
889.883	21915
890.006	21755
890.13	21857
890.254	21690
890.377	21842
890.501	21507
890.624	21542
890.748	21694
890.871	21469
890.995	21412
891.118	21279
891.241	21355
891.364	21386
891.488	21648
891.611	21473
891.734	21344
891.857	21469
891.98	21378
892.103	21496
892.226	21412
892.349	21264
892.471	21173
892.594	21157
892.717	21230
892.839	21165
892.962	21313
893.085	21313
893.207	21237
893.33	21142
893.452	21157
893.575	21302
893.697	21249
893.819	21363
893.941	21515
894.064	21469
894.186	21302
894.308	21131
894.43	21306
894.552	21389
894.674	21302
894.796	21100
894.918	21405
895.04	21119
895.161	21321
895.283	21211
895.405	21123
895.526	21233
895.648	21150
895.769	21321
895.891	21245
896.012	21275
896.134	21317
896.255	21256
896.376	21157
896.498	21252
896.619	21241
896.74	21275
896.861	21298
896.982	21542
897.103	21656
897.224	21526
897.345	21454
897.466	21405
897.587	21428
897.708	21553
897.828	21481
897.949	21416
898.07	21302
898.19	21485
898.311	21591
898.431	21336
898.552	21408
898.672	21496
898.792	21545
898.913	21420
899.033	21408
899.153	21306
899.273	21089
899.393	21150
899.513	21306
899.633	21252
899.753	21260
899.873	21157
899.993	21146
900.113	21062
900.232	21047
900.352	21043
900.472	21112
900.591	20902
900.711	20906
900.83	20853
900.95	20994
901.069	21024
901.189	20804
901.308	20568
901.427	20617
901.546	20503
901.665	20457
901.784	20530
901.904	20362
902.023	20320
902.141	20176
902.26	20126
902.379	20062
902.498	20001
902.617	20092
902.735	20016
902.854	19986
902.973	19963
903.091	19746
903.21	19685
903.328	19655
903.446	19632
903.565	19491
903.683	19411
903.801	19468
903.919	19400
904.038	19365
904.156	19236
904.274	19365
904.392	19266
904.51	19156
904.627	19274
904.745	19255
904.863	19206
904.981	19031
905.098	18810
905.216	18859
905.334	18932
905.451	18977
905.569	18798
905.686	18833
905.803	18993
905.921	18661
906.038	18798
906.155	18700
906.272	18536
906.389	18513
906.506	18479
906.623	18475
906.74	18296
906.857	18281
906.974	18315
907.091	18391
907.208	18433
907.324	18361
907.441	18281
907.557	18007
907.674	18079
907.79	17984
907.907	18114
908.023	18034
908.139	18159
908.256	17988
908.372	18057
908.488	17942
908.604	17863
908.72	17745
908.836	17847
908.952	17783
909.068	17775
909.184	17988
909.3	17878
909.415	17802
909.531	17672
909.647	17471
909.762	17600
909.878	17524
909.993	17573
910.108	17444
910.224	17482
910.339	17501
910.454	17368
910.57	17273
910.685	17322
910.8	17524
910.915	17360
911.03	17258
911.145	17155
911.259	17083
911.374	17064
911.489	17041
911.604	17033
911.718	16843
911.833	16854
911.947	16767
912.062	16748
912.176	16790
912.291	16869
912.405	16839
912.519	16980
912.633	17033
912.748	16801
912.862	16805
912.976	16626
913.09	16588
913.204	16656
913.318	16653
913.431	16607
913.545	16755
913.659	16706
913.772	16649
913.886	16455
914	16341
914.113	16466
914.226	16512
914.34	16447
914.453	16382
914.566	16436
914.68	16329
914.793	16246
914.906	16055
915.019	15930
915.132	16002
915.245	16105
915.358	16063
915.47	15994
915.583	15987
915.696	15930
915.809	16143
915.921	16173
916.034	15895
916.146	15895
916.259	15876
916.371	15960
916.483	15854
916.595	15819
916.708	15911
916.82	15793
916.932	15793
917.044	15808
917.156	15778
917.268	15652
917.38	15656
917.491	15728
917.603	15667
917.715	15686
917.826	15667
917.938	15618
918.049	15523
918.161	15485
918.272	15671
918.384	15762
918.495	15534
918.606	15374
918.717	15321
918.828	15386
918.939	15397
919.05	15317
919.161	15317
919.272	15161
919.383	15161
919.494	15310
919.604	15637
919.715	15287
919.826	15195
919.936	15298
920.047	15382
920.157	15302
920.267	15507
920.378	15218
920.488	15192
920.598	15504
920.708	15462
920.818	15458
920.928	15397
921.038	15523
921.148	15469
921.258	15218
921.368	15131
921.477	15100
921.587	15020
921.697	14948
921.806	14982
921.916	14781
922.025	14678
922.134	14735
922.244	14682
922.353	14758
922.462	14575
922.571	14427
922.68	14370
922.789	14324
922.898	14248
923.007	14248
923.116	14282
923.224	14362
923.333	14233
923.442	14084
923.55	14123
923.659	14263
923.767	14157
923.876	14024
923.984	14130
924.092	13993
924.201	14035
924.309	14043
924.417	14073
924.525	13951
924.633	13978
924.741	14823
924.849	13757
924.956	13917
925.064	13689
925.172	13594
925.279	13643
925.387	13742
925.494	13658
925.602	13818
925.709	13742
925.816	13502
925.924	13620
926.031	13731
926.138	13624
926.245	13647
926.352	13460
926.459	13590
926.566	13685
926.673	13525
926.779	13403
926.886	13388
926.993	13308
927.099	13145
927.206	13149
927.312	13133
927.419	13232
927.525	13225
927.631	13217
927.737	13050
927.843	13008
927.95	12920
928.056	12951
928.162	13012
928.267	13046
928.373	13525
928.479	13114
928.585	12890
928.69	12939
928.796	13046
928.901	12772
929.007	12745
929.112	12829
929.218	12798
929.323	12677
929.428	12776
929.533	12913
929.638	12650
929.743	12616
929.848	12726
929.953	12734
930.058	12521
930.163	12372
930.267	12311
930.372	12467
930.477	12395
930.581	12506
930.685	12464
930.79	12239
930.894	12300
930.998	12247
931.103	12296
931.207	12011
931.311	11870
931.415	11840
931.519	11649
931.623	11627
