Data from test_V78500241_2534.txt Node
Date: Fri Mar 25 15:59:21 CST 2022
User: usil
Spectrometer: V785-0024
Trigger mode: 0
Integration Time (sec): 4.000000E-1
Scans to average: 1
Nonlinearity correction enabled: false
Boxcar width: 0
Storing dark spectrum: false
XAxis mode: Wavelengths
Number of Pixels in Spectrum: 1024
>>>>>Begin Spectral Data<<<<<
801.071	28242
801.214	28002
801.356	28055
801.499	27854
801.641	27926
801.783	27679
801.926	27842
802.068	27732
802.211	27599
802.353	27755
802.496	27625
802.638	27443
802.78	27431
802.923	27408
803.065	27211
803.208	27401
803.35	27477
803.492	27644
803.635	27656
803.777	27603
803.919	27682
804.061	27953
804.204	27709
804.346	27572
804.488	27557
804.63	27804
804.773	27545
804.915	27675
805.057	27667
805.199	27648
805.341	27823
805.483	27823
805.626	27869
805.768	27778
805.91	27781
806.052	27717
806.194	27785
806.336	27956
806.478	27739
806.62	27823
806.762	28074
806.904	28112
807.046	28249
807.188	28219
807.33	28253
807.472	28276
807.614	28101
807.756	28116
807.898	28067
808.04	28025
808.182	28006
808.324	28055
808.465	28139
808.607	28356
808.749	28508
808.891	28538
809.033	28634
809.174	28538
809.316	28428
809.458	28516
809.6	28375
809.741	28618
809.883	28626
810.025	28881
810.166	28691
810.308	28664
810.45	28653
810.591	28809
810.733	28550
810.875	28478
811.016	28352
811.158	28348
811.299	28379
811.441	28489
811.582	28637
811.724	28356
811.865	28405
812.007	28531
812.148	28489
812.29	28554
812.431	28630
812.573	28892
812.714	28927
812.855	28987
812.997	29105
813.138	29200
813.279	29052
813.421	29044
813.562	28908
813.703	28691
813.845	28508
813.986	28352
814.127	28303
814.268	28112
814.41	28169
814.551	28006
814.692	28162
814.833	28055
814.974	28112
815.115	28204
815.256	28048
815.397	28044
815.539	27998
815.68	27983
815.821	27899
815.962	28135
816.103	27991
816.244	27804
816.385	27667
816.526	27686
816.666	27705
816.807	27329
816.948	27542
817.089	27439
817.23	27412
817.371	27435
817.512	27378
817.653	27420
817.793	27351
817.934	27401
818.075	27466
818.216	27439
818.356	27378
818.497	27367
818.638	27100
818.778	27249
818.919	27188
819.06	27313
819.2	27348
819.341	27450
819.481	27439
819.622	27534
819.762	27698
819.903	27606
820.043	27675
820.184	27549
820.324	27675
820.465	27656
820.605	27610
820.746	27469
820.886	27397
821.026	27591
821.167	27545
821.307	27656
821.447	27462
821.588	27439
821.728	27264
821.868	27222
822.008	26914
822.149	26975
822.289	27055
822.429	26693
822.569	26674
822.709	26549
822.849	26301
822.99	26408
823.13	26450
823.27	26446
823.41	26195
823.55	26218
823.69	26271
823.83	26389
823.97	26062
824.11	26092
824.25	25928
824.389	26195
824.529	26084
824.669	26005
824.809	26073
824.949	26008
825.089	26180
825.228	26115
825.368	25940
825.508	25875
825.648	25974
825.787	25841
825.927	26039
826.067	25978
826.206	25986
826.346	26005
826.485	25879
826.625	25993
826.765	26069
826.904	25883
827.044	25795
827.183	25746
827.323	25624
827.462	25662
827.601	25628
827.741	25674
827.88	25666
828.02	25445
828.159	25578
828.298	25731
828.437	25761
828.577	25533
828.716	25677
828.855	25666
828.994	25320
829.134	25369
829.273	25400
829.412	25339
829.551	25293
829.69	25198
829.829	25278
829.968	25476
830.107	25491
830.246	25411
830.385	25263
830.524	25240
830.663	25076
830.802	25057
830.941	24981
831.08	24859
831.219	25164
831.357	25065
831.496	25000
831.635	24962
831.774	24730
831.913	24825
832.051	24757
832.19	24825
832.329	24681
832.467	24582
832.606	24570
832.744	24532
832.883	24597
833.022	24566
833.16	24612
833.299	24700
833.437	24639
833.576	24707
833.714	24711
833.852	24711
833.991	24772
834.129	24681
834.267	24722
834.406	24715
834.544	24783
834.682	24673
834.821	24665
834.959	24745
835.097	24669
835.235	24559
835.373	24711
835.511	24544
835.65	24574
835.788	24601
835.926	24372
836.064	24422
836.202	24350
836.34	24589
836.478	24551
836.615	24509
836.753	24532
836.891	24544
837.029	24502
837.167	24536
837.305	24380
837.443	24384
837.58	24254
837.718	24422
837.856	24353
837.993	24357
838.131	24323
838.269	24133
838.406	24197
838.544	24087
838.681	23999
838.819	24064
838.956	23676
839.094	23859
839.231	23779
839.369	24095
839.506	24186
839.643	23878
839.781	23817
839.918	23794
840.055	23836
840.193	23805
840.33	23684
840.467	23821
840.604	23722
840.742	23920
840.879	23638
841.016	23592
841.153	23608
841.29	23733
841.427	23646
841.564	23756
841.701	23767
841.838	23680
841.975	23551
842.112	23558
842.249	23581
842.385	23353
842.522	23790
842.659	23528
842.796	23452
842.933	23459
843.069	23395
843.206	23421
843.343	23364
843.479	23452
843.616	23490
843.752	23159
843.889	23391
844.025	23372
844.162	23181
844.298	23349
844.435	23208
844.571	23174
844.708	23311
844.844	23379
844.98	23334
845.117	23315
845.253	23143
845.389	23140
845.525	23185
845.661	23029
845.798	22942
845.934	23189
846.07	23041
846.206	23003
846.342	23204
846.478	22900
846.614	22710
846.75	22588
846.886	22615
847.022	22729
847.158	22710
847.294	22729
847.429	22717
847.565	22675
847.701	23029
847.837	22535
847.972	22409
848.108	22413
848.244	22557
848.379	22314
848.515	22325
848.65	22295
848.786	22291
848.921	22344
849.057	22489
849.192	22230
849.328	22310
849.463	22185
849.598	22242
849.734	22139
849.869	22204
850.004	22067
850.14	22154
850.275	22139
850.41	22070
850.545	22048
850.68	22013
850.815	22093
850.95	22055
851.085	22272
851.22	22207
851.355	22116
851.49	21991
851.625	21968
851.76	22036
851.895	22078
852.03	22013
852.165	22067
852.299	22109
852.434	22173
852.569	22147
852.703	22116
852.838	22070
852.973	22074
853.107	22185
853.242	22059
853.376	21873
853.511	21861
853.645	21895
853.78	21991
853.914	21979
854.048	21816
854.183	21915
854.317	21888
854.451	22147
854.585	21850
854.72	21819
854.854	22025
854.988	21804
855.122	21850
855.256	21812
855.39	21972
855.524	21899
855.658	21964
855.792	21937
855.926	21808
856.06	21998
856.194	21968
856.327	21895
856.461	21793
856.595	21804
856.729	21835
856.862	22017
856.996	21994
857.13	21892
857.263	21892
857.397	22002
857.53	21850
857.664	21922
857.797	21994
857.931	21945
858.064	21983
858.197	21960
858.331	21869
858.464	22013
858.597	21827
858.731	21736
858.864	21709
858.997	21918
859.13	21918
859.263	21827
859.396	21983
859.529	21816
859.662	21930
859.795	21698
859.928	21823
860.061	22109
860.194	22139
860.327	21907
860.46	21827
860.592	22086
860.725	21968
860.858	21998
860.99	21994
861.123	21785
861.256	21770
861.388	21968
861.521	22679
861.653	21755
861.786	21595
861.918	21747
862.05	21739
862.183	21964
862.315	21854
862.447	21953
862.58	21800
862.712	21485
862.844	21583
862.976	21652
863.108	21625
863.24	21953
863.372	21530
863.504	21633
863.636	21534
863.768	21652
863.9	21717
864.032	21397
864.164	21477
864.296	21519
864.428	21736
864.559	21618
864.691	21610
864.823	21614
864.954	21534
865.086	21553
865.217	21447
865.349	21344
865.48	21500
865.612	21428
865.743	21587
865.875	21568
866.006	21306
866.137	21450
866.269	21485
866.4	21523
866.531	21473
866.662	21355
866.793	21370
866.924	21317
867.055	21416
867.186	21473
867.317	21359
867.448	21325
867.579	21348
867.71	21294
867.841	21382
867.972	21386
868.103	21405
868.233	21367
868.364	21386
868.495	21447
868.625	21641
868.756	21637
868.886	21641
869.017	21648
869.147	21739
869.278	21675
869.408	21732
869.539	21739
869.669	21667
869.799	21698
869.929	21846
870.06	21831
870.19	21911
870.32	21998
870.45	22048
870.58	22010
870.71	22086
870.84	22150
870.97	22017
871.1	22158
871.23	22230
871.36	22200
871.489	22223
871.619	22177
871.749	22287
871.879	22291
872.008	22386
872.138	22249
872.267	22310
872.397	22067
872.526	22135
872.656	22078
872.785	22177
872.915	22253
873.044	22394
873.173	22390
873.303	22303
873.432	22287
873.561	22459
873.69	22249
873.819	22318
873.948	22352
874.077	22261
874.206	22246
874.335	22154
874.464	22360
874.593	22493
874.722	22356
874.851	22497
874.979	22500
875.108	22584
875.237	22379
875.365	22398
875.494	22504
875.623	22641
875.751	22421
875.88	22554
876.008	22580
876.136	22694
876.265	22919
876.393	23079
876.521	22949
876.65	22968
876.778	22885
876.906	22873
877.034	22786
877.162	22908
877.29	22755
877.418	22736
877.546	22824
877.674	22881
877.802	22793
877.93	22862
878.058	22793
878.185	22755
878.313	22641
878.441	22797
878.568	22721
878.696	22698
878.824	22965
878.951	23037
879.079	23086
879.206	23117
879.333	23006
879.461	22759
879.588	22938
879.715	22968
879.842	23136
879.97	22904
880.097	22850
880.224	22782
880.351	22733
880.478	22611
880.605	22721
880.732	22691
880.859	22820
880.986	22664
881.112	22672
881.239	22596
881.366	22329
881.493	22318
881.619	22196
881.746	22348
881.872	22150
881.999	22265
882.125	22177
882.252	22162
882.378	22284
882.505	22375
882.631	22029
882.757	21983
882.883	22074
883.01	21979
883.136	21884
883.262	21949
883.388	21797
883.514	22025
883.64	21861
883.766	21823
883.892	21701
884.018	21747
884.143	21827
884.269	21835
884.395	21629
884.52	21595
884.646	21732
884.772	21576
884.897	21485
885.023	21564
885.148	21675
885.274	21736
885.399	21663
885.524	21515
885.65	21450
885.775	21538
885.9	21485
886.025	21698
886.15	21606
886.275	21648
886.4	21435
886.525	21599
886.65	21549
886.775	21450
886.9	21580
887.025	21770
887.149	21545
887.274	21450
887.399	21298
887.523	21336
887.648	21348
887.773	21283
887.897	21367
888.021	21359
888.146	21283
888.27	21397
888.395	21401
888.519	21405
888.643	21310
888.767	21405
888.891	21207
889.015	21146
889.139	21089
889.263	21047
889.387	21214
889.511	21439
889.635	21188
889.759	21066
889.883	21138
890.006	21066
890.13	21222
890.254	21047
890.377	21135
890.501	20918
890.624	20910
890.748	20891
890.871	20746
890.995	20629
891.118	20648
891.241	20754
891.364	20746
891.488	20788
891.611	20663
891.734	20705
891.857	20849
891.98	20693
892.103	20743
892.226	20659
892.349	20632
892.471	20461
892.594	20621
892.717	20800
892.839	20606
892.962	20602
893.085	20632
893.207	20750
893.33	20503
893.452	20545
893.575	20590
893.697	20632
893.819	20739
893.941	20750
894.064	20682
894.186	20503
894.308	20488
894.43	20609
894.552	20788
894.674	20701
894.796	20590
894.918	20590
895.04	20613
895.161	20678
895.283	20727
895.405	20396
895.526	20651
895.648	20575
895.769	20476
895.891	20541
896.012	20697
896.134	20552
896.255	20583
896.376	20583
896.498	20579
896.619	20518
896.74	20590
896.861	20720
896.982	20914
897.103	21039
897.224	21009
897.345	20902
897.466	20792
897.587	20762
897.708	20815
897.828	20815
897.949	20876
898.07	20629
898.19	20739
898.311	20845
898.431	20724
898.552	20944
898.672	20773
898.792	20792
898.913	20815
899.033	20735
899.153	20640
899.273	20594
899.393	20511
899.513	20629
899.633	20613
899.753	20571
899.873	20446
899.993	20594
900.113	20457
900.232	20480
900.352	20522
900.472	20286
900.591	20298
900.711	20446
900.83	20275
900.95	20526
901.069	20385
901.189	20221
901.308	20039
901.427	19970
901.546	19913
901.665	19921
901.784	19890
901.904	19803
902.023	19708
902.141	19491
902.26	19438
902.379	19426
902.498	19434
902.617	19358
902.735	19316
902.854	19343
902.973	19362
903.091	19095
903.21	19015
903.328	19023
903.446	18905
903.565	18798
903.683	18920
903.801	18734
903.919	18871
904.038	18840
904.156	18741
904.274	18707
904.392	18585
904.51	18604
904.627	18566
904.745	18627
904.863	18616
904.981	18418
905.098	18380
905.216	18361
905.334	18323
905.451	18311
905.569	18346
905.686	18338
905.803	18384
905.921	18110
906.038	18220
906.155	18057
906.272	17912
906.389	18083
906.506	17851
906.623	17935
906.74	17710
906.857	17672
906.974	17649
907.091	17851
907.208	17973
907.324	17847
907.441	17722
907.557	17577
907.674	17543
907.79	17547
907.907	17611
908.023	17474
908.139	17608
908.256	17520
908.372	17444
908.488	17406
908.604	17307
908.72	17326
908.836	17307
908.952	17216
909.068	17273
909.184	17425
909.3	17273
909.415	17231
909.531	17223
909.647	17037
909.762	17098
909.878	16816
909.993	16946
910.108	17014
910.224	16892
910.339	16877
910.454	16904
910.57	16683
910.685	16698
910.8	16953
910.915	16862
911.03	16740
911.145	16626
911.259	16508
911.374	16459
911.489	16500
911.604	16329
911.718	16226
911.833	16348
911.947	16135
912.062	16135
912.176	16284
912.291	16310
912.405	16265
912.519	16504
912.633	16527
912.748	16440
912.862	16348
912.976	16112
913.09	16086
913.204	16131
913.318	16147
913.431	16120
913.545	16154
913.659	16284
913.772	16120
913.886	15998
914	15884
914.113	15937
914.226	16021
914.34	16010
914.453	15755
914.566	15873
914.68	15842
914.793	15736
914.906	15622
915.019	15587
915.132	15435
915.245	15519
915.358	15538
915.47	15534
915.583	15515
915.696	15481
915.809	15587
915.921	15629
916.034	15408
916.146	15405
916.259	15340
916.371	15393
916.483	15500
916.595	15397
916.708	15313
916.82	15275
916.932	15283
917.044	15283
917.156	15233
917.268	15214
917.38	15222
917.491	15051
917.603	15173
917.715	15142
917.826	15245
917.938	15070
918.049	14944
918.161	15104
918.272	15184
918.384	15237
918.495	15104
918.606	14921
918.717	14800
918.828	14861
918.939	15009
919.05	14883
919.161	14864
919.272	14686
919.383	14659
919.494	14925
919.604	15074
919.715	14925
919.826	14804
919.936	14804
920.047	14834
920.157	14880
920.267	14918
920.378	14830
920.488	14868
920.598	14906
920.708	15184
920.818	15047
920.928	15055
921.038	15116
921.148	15013
921.258	14777
921.368	14720
921.477	14621
921.587	14541
921.697	14396
921.806	14507
921.916	14438
922.025	14301
922.134	14282
922.244	14195
922.353	14229
922.462	14005
922.571	14024
922.68	13906
922.789	13849
922.898	13906
923.007	13814
923.116	13864
923.224	13803
923.333	13875
923.442	13727
923.55	13746
923.659	13780
923.767	13761
923.876	13708
923.984	13674
924.092	13540
924.201	13674
924.309	13556
924.417	13605
924.525	13476
924.633	13540
924.741	14195
924.849	13308
924.956	13468
925.064	13304
925.172	13179
925.279	13236
925.387	13297
925.494	13198
925.602	13411
925.709	13320
925.816	13149
925.924	13225
926.031	13312
926.138	13213
926.245	13278
926.352	13149
926.459	13301
926.566	13240
926.673	13072
926.779	13031
926.886	12943
926.993	12954
927.099	12825
927.206	12730
927.312	12810
927.419	12764
927.525	12817
927.631	12848
927.737	12715
927.843	12639
927.95	12597
928.056	12642
928.162	12578
928.267	12700
928.373	13240
928.479	12734
928.585	12429
928.69	12585
928.796	12650
928.901	12509
929.007	12292
929.112	12452
929.218	12330
929.323	12369
929.428	12281
929.533	12498
929.638	12266
929.743	12254
929.848	12330
929.953	12315
930.058	12209
930.163	11988
930.267	12133
930.372	12106
930.477	11920
930.581	12213
930.685	12102
930.79	11965
930.894	11904
930.998	11851
931.103	11961
931.207	11668
931.311	11520
931.415	11532
931.519	11284
931.623	11296
