Data from test_V78500241_3294.txt Node
Date: Fri Mar 25 16:04:37 CST 2022
User: usil
Spectrometer: V785-0024
Trigger mode: 0
Integration Time (sec): 4.000000E-1
Scans to average: 1
Nonlinearity correction enabled: false
Boxcar width: 0
Storing dark spectrum: false
XAxis mode: Wavelengths
Number of Pixels in Spectrum: 1024
>>>>>Begin Spectral Data<<<<<
801.071	28980
801.214	28972
801.356	28596
801.499	28653
801.641	28535
801.783	28512
801.926	28550
802.068	28603
802.211	28424
802.353	28443
802.496	28223
802.638	28268
802.78	28154
802.923	28120
803.065	27975
803.208	28200
803.35	28158
803.492	28268
803.635	28360
803.777	28318
803.919	28382
804.061	28668
804.204	28561
804.346	28352
804.488	28169
804.63	28550
804.773	28424
804.915	28455
805.057	28656
805.199	28474
805.341	28474
805.483	28550
805.626	28596
805.768	28436
805.91	28443
806.052	28637
806.194	28630
806.336	28645
806.478	28660
806.62	28641
806.762	28919
806.904	28938
807.046	29151
807.188	29033
807.33	28965
807.472	29170
807.614	28934
807.756	29056
807.898	28972
808.04	28820
808.182	28774
808.324	28843
808.465	28904
808.607	29075
808.749	29288
808.891	29395
809.033	29516
809.174	29372
809.316	29269
809.458	29273
809.6	29330
809.741	29406
809.883	29402
810.025	29551
810.166	29676
810.308	29520
810.45	29421
810.591	29528
810.733	29326
810.875	29474
811.016	29239
811.158	29220
811.299	29303
811.441	29433
811.582	29509
811.724	29417
811.865	29269
812.007	29395
812.148	29277
812.29	29410
812.431	29497
812.573	29627
812.714	29726
812.855	29630
812.997	29908
813.138	30152
813.279	29961
813.421	29790
813.562	29885
813.703	29748
813.845	29722
813.986	29292
814.127	29166
814.268	28946
814.41	29010
814.551	29029
814.692	29117
814.833	28885
814.974	29227
815.115	29109
815.256	28957
815.397	28873
815.539	28980
815.68	28873
815.821	28866
815.962	28744
816.103	28672
816.244	28740
816.385	28656
816.526	28679
816.666	28466
816.807	28303
816.948	28386
817.089	28462
817.23	28440
817.371	28379
817.512	28314
817.653	28356
817.793	28303
817.934	28310
818.075	28242
818.216	28367
818.356	28440
818.497	28318
818.638	27934
818.778	28112
818.919	28150
819.06	28124
819.2	28299
819.341	28379
819.481	28417
819.622	28786
819.762	28782
819.903	28930
820.043	28611
820.184	28569
820.324	28504
820.465	28565
820.605	28554
820.746	28512
820.886	28333
821.026	28379
821.167	28413
821.307	28588
821.447	28284
821.588	28322
821.728	28230
821.868	28044
822.008	27911
822.149	27880
822.289	27747
822.429	27724
822.569	27568
822.709	27481
822.849	27401
822.99	27473
823.13	27351
823.27	27408
823.41	27279
823.55	27146
823.69	27184
823.83	27222
823.97	27180
824.11	27077
824.25	26937
824.389	27085
824.529	27089
824.669	27116
824.809	27055
824.949	27100
825.089	27123
825.228	27001
825.368	26842
825.508	26826
825.648	26861
825.787	27009
825.927	27058
826.067	26910
826.206	26929
826.346	26979
826.485	26982
826.625	26952
826.765	27100
826.904	26956
827.044	26670
827.183	26716
827.323	26670
827.462	26686
827.601	26724
827.741	26739
827.88	26606
828.02	26434
828.159	26636
828.298	26598
828.437	26693
828.577	26598
828.716	26762
828.855	26613
828.994	26419
829.134	26343
829.273	26396
829.412	26271
829.551	26286
829.69	26240
829.829	26404
829.968	26412
830.107	26259
830.246	26206
830.385	26366
830.524	26107
830.663	26115
830.802	26005
830.941	25811
831.08	25852
831.219	25955
831.357	26062
831.496	26111
831.635	25997
831.774	25906
831.913	25879
832.051	25788
832.19	25639
832.329	25772
832.467	25753
832.606	25544
832.744	25620
832.883	25632
833.022	25632
833.16	25639
833.299	25635
833.437	25567
833.576	25624
833.714	25575
833.852	25772
833.991	25582
834.129	25696
834.267	25757
834.406	25495
834.544	25727
834.682	25712
834.821	25639
834.959	25818
835.097	25605
835.235	25753
835.373	25727
835.511	25681
835.65	25438
835.788	25540
835.926	25327
836.064	25320
836.202	25259
836.34	25502
836.478	25510
836.615	25426
836.753	25362
836.891	25521
837.029	25559
837.167	25449
837.305	25388
837.443	25384
837.58	25274
837.718	25282
837.856	25544
837.993	25343
838.131	25392
838.269	25202
838.406	25099
838.544	25027
838.681	25057
838.819	25061
838.956	24814
839.094	24817
839.231	24909
839.369	25000
839.506	25160
839.643	24973
839.781	24730
839.918	24604
840.055	24760
840.193	24753
840.33	24627
840.467	24635
840.604	24574
840.742	24958
840.879	24391
841.016	24623
841.153	24616
841.29	24540
841.427	24700
841.564	24738
841.701	24642
841.838	24623
841.975	24547
842.112	24566
842.249	24486
842.385	24570
842.522	24521
842.659	24525
842.796	24369
842.933	24410
843.069	24334
843.206	24384
843.343	24403
843.479	24369
843.616	24346
843.752	24262
843.889	24190
844.025	24342
844.162	24140
844.298	24323
844.435	24114
844.571	24285
844.708	24232
844.844	24277
844.98	24456
845.117	24353
845.253	24076
845.389	23992
845.525	24125
845.661	24136
845.798	23904
845.934	23901
846.07	24034
846.206	24011
846.342	24034
846.478	23961
846.614	23695
846.75	23554
846.886	23627
847.022	23726
847.158	23638
847.294	23760
847.429	23592
847.565	23699
847.701	24034
847.837	23440
847.972	23410
848.108	23398
848.244	23558
848.379	23326
848.515	23258
848.65	23166
848.786	23288
848.921	23318
849.057	23444
849.192	23444
849.328	23330
849.463	23185
849.598	23216
849.734	23193
849.869	23136
850.004	23105
850.14	23075
850.275	22927
850.41	22915
850.545	23006
850.68	22961
850.815	23117
850.95	23029
851.085	23178
851.22	23048
851.355	23060
851.49	23029
851.625	22904
851.76	22896
851.895	22953
852.03	22881
852.165	22923
852.299	22965
852.434	23048
852.569	23075
852.703	23033
852.838	23060
852.973	23075
853.107	23155
853.242	22919
853.376	22854
853.511	22767
853.645	22733
853.78	22835
853.914	22816
854.048	22835
854.183	22683
854.317	22755
854.451	23029
854.585	22896
854.72	22835
854.854	22938
854.988	22904
855.122	22866
855.256	22748
855.39	22835
855.524	22858
855.658	22721
855.792	22942
855.926	22820
856.06	22664
856.194	22991
856.327	22729
856.461	22668
856.595	22759
856.729	22938
856.862	23010
856.996	22858
857.13	22908
857.263	22908
857.397	22854
857.53	22786
857.664	22953
857.797	22877
857.931	22991
858.064	22850
858.197	22919
858.331	22885
858.464	22672
858.597	22710
858.731	22889
858.864	22710
858.997	22904
859.13	22885
859.263	22858
859.396	22915
859.529	22809
859.662	22908
859.795	22790
859.928	22816
860.061	23025
860.194	23025
860.327	22908
860.46	22927
860.592	22923
860.725	22957
860.858	23071
860.99	22873
861.123	22713
861.256	22790
861.388	22786
861.521	23493
861.653	22584
861.786	22675
861.918	22592
862.05	22637
862.183	22733
862.315	22645
862.447	22672
862.58	22691
862.712	22580
862.844	22462
862.976	22622
863.108	22527
863.24	22892
863.372	22493
863.504	22546
863.636	22481
863.768	22592
863.9	22474
864.032	22611
864.164	22508
864.296	22557
864.428	22603
864.559	22584
864.691	22557
864.823	22523
864.954	22455
865.086	22424
865.217	22466
865.349	22314
865.48	22402
865.612	22386
865.743	22478
865.875	22462
866.006	22382
866.137	22337
866.269	22367
866.4	22344
866.531	22284
866.662	22314
866.793	22382
866.924	22257
867.055	22310
867.186	22337
867.317	22276
867.448	22204
867.579	22280
867.71	22272
867.841	22284
867.972	22306
868.103	22246
868.233	22242
868.364	22382
868.495	22497
868.625	22493
868.756	22626
868.886	22542
869.017	22527
869.147	22596
869.278	22500
869.408	22569
869.539	22672
869.669	22615
869.799	22634
869.929	22774
870.06	22736
870.19	22911
870.32	22881
870.45	22869
870.58	23044
870.71	23079
870.84	23010
870.97	22942
871.1	23113
871.23	23128
871.36	23174
871.489	22949
871.619	23048
871.749	23151
871.879	23083
872.008	23341
872.138	23200
872.267	23147
872.397	23056
872.526	22961
872.656	23064
872.785	22995
872.915	23220
873.044	23246
873.173	23212
873.303	23189
873.432	23193
873.561	23326
873.69	23345
873.819	23124
873.948	23280
874.077	23204
874.206	23086
874.335	23261
874.464	23349
874.593	23448
874.722	23467
874.851	23349
874.979	23463
875.108	23615
875.237	23368
875.365	23288
875.494	23345
875.623	23493
875.751	23364
875.88	23402
876.008	23474
876.136	23585
876.265	23901
876.393	23893
876.521	24007
876.65	23813
876.778	23863
876.906	23745
877.034	23836
877.162	23794
877.29	23653
877.418	23707
877.546	23710
877.674	23718
877.802	23767
877.93	23699
878.058	23737
878.185	23448
878.313	23600
878.441	23703
878.568	23608
878.696	23672
878.824	23668
878.951	23809
879.079	23866
879.206	23977
879.333	23813
879.461	23821
879.588	23779
879.715	23999
879.842	24060
879.97	23794
880.097	23577
880.224	23520
880.351	23509
880.478	23585
880.605	23524
880.732	23535
880.859	23805
880.986	23539
881.112	23596
881.239	23326
881.366	23223
881.493	23140
881.619	23166
881.746	23071
881.872	23067
881.999	23041
882.125	23022
882.252	23083
882.378	23181
882.505	23174
882.631	23018
882.757	22847
882.883	22847
883.01	22790
883.136	22820
883.262	22607
883.388	22702
883.514	22816
883.64	22786
883.766	22637
883.892	22504
884.018	22497
884.143	22668
884.269	22790
884.395	22462
884.52	22299
884.646	22489
884.772	22398
884.897	22379
885.023	22405
885.148	22466
885.274	22538
885.399	22565
885.524	22402
885.65	22413
885.775	22424
885.9	22367
886.025	22451
886.15	22573
886.275	22409
886.4	22280
886.525	22360
886.65	22325
886.775	22177
886.9	22546
887.025	22550
887.149	22348
887.274	22253
887.399	22306
887.523	22246
887.648	22063
887.773	22078
887.897	22280
888.021	22116
888.146	22112
888.27	22249
888.395	22261
888.519	22272
888.643	22124
888.767	22215
888.891	22048
889.015	21968
889.139	21918
889.263	21926
889.387	22013
889.511	22200
889.635	21934
889.759	21941
889.883	21949
890.006	21907
890.13	22029
890.254	21827
890.377	21964
890.501	21690
890.624	21538
890.748	21751
890.871	21603
890.995	21530
891.118	21412
891.241	21545
891.364	21553
891.488	21610
891.611	21561
891.734	21424
891.857	21469
891.98	21576
892.103	21496
892.226	21450
892.349	21458
892.471	21230
892.594	21412
892.717	21492
892.839	21359
892.962	21374
893.085	21367
893.207	21355
893.33	21252
893.452	21260
893.575	21359
893.697	21252
893.819	21488
893.941	21515
894.064	21583
894.186	21203
894.308	21211
894.43	21382
894.552	21515
894.674	21450
894.796	21313
894.918	21412
895.04	21291
895.161	21374
895.283	21428
895.405	21340
895.526	21397
895.648	21412
895.769	21287
895.891	21317
896.012	21477
896.134	21374
896.255	21321
896.376	21382
896.498	21313
896.619	21264
896.74	21317
896.861	21302
896.982	21667
897.103	21797
897.224	21660
897.345	21572
897.466	21576
897.587	21526
897.708	21610
897.828	21443
897.949	21488
898.07	21378
898.19	21439
898.311	21523
898.431	21439
898.552	21553
898.672	21485
898.792	21580
898.913	21466
899.033	21485
899.153	21287
899.273	21233
899.393	21252
899.513	21332
899.633	21310
899.753	21302
899.873	21283
899.993	21321
900.113	21195
900.232	21363
900.352	21188
900.472	21013
900.591	21020
900.711	21100
900.83	20979
900.95	21157
901.069	21100
901.189	20986
901.308	20754
901.427	20632
901.546	20636
901.665	20701
901.784	20564
901.904	20457
902.023	20278
902.141	20271
902.26	20149
902.379	20195
902.498	19993
902.617	20054
902.735	20149
902.854	20111
902.973	20054
903.091	19708
903.21	19772
903.328	19761
903.446	19616
903.565	19510
903.683	19639
903.801	19480
903.919	19567
904.038	19540
904.156	19232
904.274	19487
904.392	19244
904.51	19247
904.627	19183
904.745	19407
904.863	19324
904.981	19122
905.098	18894
905.216	18981
905.334	19038
905.451	18951
905.569	18871
905.686	18977
905.803	19012
905.921	18741
906.038	18783
906.155	18901
906.272	18734
906.389	18665
906.506	18509
906.623	18563
906.74	18483
906.857	18372
906.974	18384
907.091	18441
907.208	18601
907.324	18582
907.441	18448
907.557	18186
907.674	18182
907.79	18201
907.907	18144
908.023	18243
908.139	18125
908.256	18038
908.372	18038
908.488	18079
908.604	17954
908.72	17828
908.836	17866
908.952	17794
909.068	18030
909.184	18102
909.3	17927
909.415	17927
909.531	17935
909.647	17570
909.762	17718
909.878	17592
909.993	17646
910.108	17581
910.224	17486
910.339	17516
910.454	17383
910.57	17337
910.685	17345
910.8	17543
910.915	17589
911.03	17307
911.145	17341
911.259	17124
911.374	17246
911.489	17174
911.604	17132
911.718	16885
911.833	16847
911.947	16786
912.062	16873
912.176	16820
912.291	16900
912.405	16862
912.519	17109
912.633	16980
912.748	17037
912.862	16911
912.976	16763
913.09	16653
913.204	16694
913.318	16774
913.431	16854
913.545	16828
913.659	16847
913.772	16675
913.886	16489
914	16459
914.113	16500
914.226	16554
914.34	16645
914.453	16318
914.566	16561
914.68	16382
914.793	16314
914.906	16188
915.019	16124
915.132	16021
915.245	16116
915.358	16128
915.47	16055
915.583	16006
915.696	16143
915.809	16207
915.921	16196
916.034	16006
916.146	16006
916.259	16082
916.371	16139
916.483	15937
916.595	15850
916.708	15907
916.82	15850
916.932	15895
917.044	15774
917.156	15846
917.268	15781
917.38	15793
917.491	15648
917.603	15736
917.715	15705
917.826	15751
917.938	15629
918.049	15545
918.161	15717
918.272	15865
918.384	15800
918.495	15606
918.606	15530
918.717	15344
918.828	15492
918.939	15382
919.05	15359
919.161	15420
919.272	15203
919.383	15321
919.494	15382
919.604	15637
919.715	15492
919.826	15287
919.936	15344
920.047	15485
920.157	15393
920.267	15515
920.378	15401
920.488	15412
920.598	15545
920.708	15732
920.818	15561
920.928	15496
921.038	15728
921.148	15625
921.258	15329
921.368	15176
921.477	15097
921.587	15017
921.697	15070
921.806	15161
921.916	14956
922.025	14762
922.134	14701
922.244	14716
922.353	14731
922.462	14594
922.571	14549
922.68	14385
922.789	14301
922.898	14328
923.007	14393
923.116	14446
923.224	14282
923.333	14332
923.442	14218
923.55	14077
923.659	14183
923.767	14237
923.876	14111
923.984	14164
924.092	14043
924.201	14172
924.309	14081
924.417	14027
924.525	13959
924.633	14001
924.741	14724
924.849	13784
924.956	13917
925.064	13799
925.172	13639
925.279	13696
925.387	13746
925.494	13833
925.602	13894
925.709	13811
925.816	13575
925.924	13712
926.031	13731
926.138	13696
926.245	13731
926.352	13556
926.459	13677
926.566	13677
926.673	13548
926.779	13426
926.886	13483
926.993	13384
927.099	13285
927.206	13236
927.312	13209
927.419	13358
927.525	13331
927.631	13213
927.737	13141
927.843	13110
927.95	12886
928.056	13110
928.162	13145
928.267	13110
928.373	13624
928.479	13270
928.585	12954
928.69	13023
928.796	13057
928.901	12901
929.007	12802
929.112	12905
929.218	12909
929.323	12757
929.428	12722
929.533	12837
929.638	12692
929.743	12700
929.848	12787
929.953	12688
930.058	12681
930.163	12498
930.267	12479
930.372	12601
930.477	12475
930.581	12635
930.685	12506
930.79	12338
930.894	12391
930.998	12361
931.103	12509
931.207	12030
931.311	12041
931.415	11946
931.519	11695
931.623	11714
