Data from test_V78500241_343.txt Node
Date: Fri Mar 25 15:44:10 CST 2022
User: usil
Spectrometer: V785-0024
Trigger mode: 0
Integration Time (sec): 4.000000E-1
Scans to average: 1
Nonlinearity correction enabled: false
Boxcar width: 0
Storing dark spectrum: false
XAxis mode: Wavelengths
Number of Pixels in Spectrum: 1024
>>>>>Begin Spectral Data<<<<<
801.071	29707
801.214	29661
801.356	29493
801.499	29551
801.641	29414
801.783	29459
801.926	29524
802.068	29421
802.211	29254
802.353	29303
802.496	29014
802.638	29075
802.78	28961
802.923	28999
803.065	29117
803.208	29044
803.35	29124
803.492	29204
803.635	29239
803.777	29003
803.919	29303
804.061	29596
804.204	29395
804.346	29170
804.488	29223
804.63	29265
804.773	29159
804.915	29326
805.057	29284
805.199	29136
805.341	29395
805.483	29292
805.626	29440
805.768	29356
805.91	29368
806.052	29509
806.194	29425
806.336	29657
806.478	29509
806.62	29273
806.762	29551
806.904	29726
807.046	30053
807.188	29707
807.33	29790
807.472	29916
807.614	29783
807.756	29847
807.898	29695
808.04	29615
808.182	29634
808.324	29828
808.465	29642
808.607	29756
808.749	30114
808.891	30152
809.033	30079
809.174	30163
809.316	30205
809.458	30068
809.6	30053
809.741	30117
809.883	30201
810.025	30338
810.166	30407
810.308	30349
810.45	30380
810.591	30334
810.733	30133
810.875	30087
811.016	30087
811.158	29977
811.299	30205
811.441	30304
811.582	30315
811.724	30098
811.865	30022
812.007	29992
812.148	29999
812.29	30095
812.431	30136
812.573	30327
812.714	30498
812.855	30604
812.997	30608
813.138	30909
813.279	30791
813.421	30597
813.562	30578
813.703	30380
813.845	30285
813.986	30121
814.127	29874
814.268	29897
814.41	29707
814.551	29623
814.692	29851
814.833	29630
814.974	29600
815.115	29775
815.256	29657
815.397	29649
815.539	29634
815.68	29493
815.821	29543
815.962	29516
816.103	29524
816.244	29364
816.385	29181
816.526	29212
816.666	28991
816.807	28946
816.948	29010
817.089	29181
817.23	28923
817.371	29041
817.512	29048
817.653	28968
817.793	28908
817.934	28980
818.075	28987
818.216	28999
818.356	28881
818.497	28809
818.638	28733
818.778	28782
818.919	28683
819.06	28748
819.2	28847
819.341	28862
819.481	28953
819.622	29044
819.762	29307
819.903	29220
820.043	29105
820.184	29086
820.324	29105
820.465	29197
820.605	29136
820.746	29048
820.886	28877
821.026	29064
821.167	29098
821.307	29056
821.447	29094
821.588	28911
821.728	28809
821.868	28607
822.008	28424
822.149	28318
822.289	28500
822.429	28268
822.569	28040
822.709	27979
822.849	28040
822.99	28013
823.13	27937
823.27	27873
823.41	27682
823.55	27542
823.69	27751
823.83	27682
823.97	27667
824.11	27363
824.25	27511
824.389	27519
824.529	27603
824.669	27496
824.809	27625
824.949	27549
825.089	27561
825.228	27439
825.368	27427
825.508	27313
825.648	27382
825.787	27302
825.927	27424
826.067	27351
826.206	27386
826.346	27431
826.485	27447
826.625	27367
826.765	27622
826.904	27310
827.044	27108
827.183	27112
827.323	27058
827.462	27119
827.601	27104
827.741	26925
827.88	27066
828.02	26948
828.159	26982
828.298	27043
828.437	27051
828.577	27085
828.716	26982
828.855	26815
828.994	26792
829.134	26796
829.273	26769
829.412	26686
829.551	26682
829.69	26788
829.829	26674
829.968	26792
830.107	26625
830.246	26720
830.385	26571
830.524	26571
830.663	26511
830.802	26518
830.941	26195
831.08	26187
831.219	26324
831.357	26332
831.496	26545
831.635	26229
831.774	26202
831.913	26149
832.051	26187
832.19	26027
832.329	26122
832.467	25898
832.606	25727
832.744	25913
832.883	25811
833.022	25845
833.16	26024
833.299	25894
833.437	25894
833.576	25944
833.714	25868
833.852	26077
833.991	25940
834.129	26054
834.267	25913
834.406	25898
834.544	26046
834.682	26001
834.821	25925
834.959	26077
835.097	25875
835.235	25898
835.373	25837
835.511	25795
835.65	25708
835.788	25670
835.926	25628
836.064	25590
836.202	25540
836.34	25765
836.478	25841
836.615	25635
836.753	25681
836.891	25715
837.029	25693
837.167	25628
837.305	25628
837.443	25746
837.58	25479
837.718	25662
837.856	25548
837.993	25460
838.131	25502
838.269	25381
838.406	25422
838.544	25339
838.681	25183
838.819	25012
838.956	25027
839.094	25103
839.231	25034
839.369	25065
839.506	25312
839.643	25179
839.781	24924
839.918	24909
840.055	25061
840.193	24833
840.33	24882
840.467	24882
840.604	24894
840.742	25061
840.879	24726
841.016	24905
841.153	24787
841.29	24871
841.427	24909
841.564	24901
841.701	24753
841.838	24840
841.975	24833
842.112	24817
842.249	24623
842.385	24639
842.522	24863
842.659	24738
842.796	24635
842.933	24460
843.069	24350
843.206	24505
843.343	24582
843.479	24517
843.616	24627
843.752	24228
843.889	24353
844.025	24384
844.162	24327
844.298	24414
844.435	24243
844.571	24209
844.708	24391
844.844	24448
844.98	24582
845.117	24304
845.253	24296
845.389	24072
845.525	24117
845.661	24171
845.798	24053
845.934	24022
846.07	23977
846.206	24121
846.342	24087
846.478	24022
846.614	23714
846.75	23786
846.886	23809
847.022	23809
847.158	23786
847.294	23668
847.429	23714
847.565	23600
847.701	23843
847.837	23379
847.972	23551
848.108	23714
848.244	23471
848.379	23345
848.515	23204
848.65	23330
848.786	23284
848.921	23356
849.057	23429
849.192	23406
849.328	23391
849.463	23364
849.598	23189
849.734	23212
849.869	23147
850.004	23075
850.14	23178
850.275	23094
850.41	22984
850.545	23060
850.68	22984
850.815	23052
850.95	22987
851.085	23299
851.22	23250
851.355	22980
851.49	23060
851.625	23052
851.76	22972
851.895	22930
852.03	22904
852.165	22987
852.299	23052
852.434	23086
852.569	23185
852.703	22968
852.838	23060
852.973	23181
853.107	23155
853.242	22911
853.376	22885
853.511	22793
853.645	22873
853.78	22854
853.914	22866
854.048	22805
854.183	22850
854.317	22843
854.451	23006
854.585	22736
854.72	22847
854.854	22824
854.988	22900
855.122	22797
855.256	22675
855.39	22854
855.524	22767
855.658	22866
855.792	22786
855.926	22900
856.06	22900
856.194	22877
856.327	22740
856.461	22748
856.595	22596
856.729	22835
856.862	22908
856.996	22911
857.13	23086
857.263	22858
857.397	22953
857.53	22736
857.664	22911
857.797	22847
857.931	22885
858.064	22771
858.197	22968
858.331	22839
858.464	22687
858.597	22706
858.731	22805
858.864	22641
858.997	22820
859.13	22816
859.263	22752
859.396	22839
859.529	22744
859.662	22634
859.795	22736
859.928	22881
860.061	22972
860.194	22862
860.327	22889
860.46	22786
860.592	22755
860.725	23048
860.858	22953
860.99	22721
861.123	22664
861.256	22653
861.388	22725
861.521	23436
861.653	22656
861.786	22599
861.918	22653
862.05	22668
862.183	22744
862.315	22820
862.447	22786
862.58	22683
862.712	22611
862.844	22421
862.976	22599
863.108	22588
863.24	22896
863.372	22424
863.504	22504
863.636	22459
863.768	22478
863.9	22580
864.032	22500
864.164	22360
864.296	22504
864.428	22440
864.559	22512
864.691	22504
864.823	22356
864.954	22466
865.086	22527
865.217	22413
865.349	22390
865.48	22314
865.612	22303
865.743	22569
865.875	22341
866.006	22341
866.137	22348
866.269	22348
866.4	22352
866.531	22284
866.662	22310
866.793	22299
866.924	22223
867.055	22291
867.186	22181
867.317	22402
867.448	22139
867.579	22253
867.71	22196
867.841	22188
867.972	22325
868.103	22230
868.233	22344
868.364	22295
868.495	22360
868.625	22386
868.756	22470
868.886	22382
869.017	22580
869.147	22580
869.278	22660
869.408	22466
869.539	22459
869.669	22596
869.799	22603
869.929	22653
870.06	22672
870.19	22736
870.32	22763
870.45	22812
870.58	22835
870.71	22980
870.84	22957
870.97	22885
871.1	22904
871.23	23029
871.36	23029
871.489	22946
871.619	23044
871.749	23083
871.879	23102
872.008	23102
872.138	23155
872.267	23041
872.397	22927
872.526	22854
872.656	22873
872.785	22927
872.915	23086
873.044	23166
873.173	23083
873.303	23117
873.432	23121
873.561	23296
873.69	23147
873.819	23086
873.948	23109
874.077	23151
874.206	22984
874.335	22995
874.464	23197
874.593	23356
874.722	23398
874.851	23395
874.979	23463
875.108	23307
875.237	23379
875.365	23166
875.494	23235
875.623	23353
875.751	23216
875.88	23334
876.008	23486
876.136	23478
876.265	23741
876.393	23874
876.521	23760
876.65	23729
876.778	23581
876.906	23703
877.034	23695
877.162	23649
877.29	23646
877.418	23676
877.546	23577
877.674	23592
877.802	23589
877.93	23680
878.058	23665
878.185	23554
878.313	23611
878.441	23634
878.568	23490
878.696	23589
878.824	23573
878.951	23760
879.079	23866
879.206	23889
879.333	23836
879.461	23718
879.588	23741
879.715	23695
879.842	23817
879.97	23600
880.097	23486
880.224	23482
880.351	23410
880.478	23528
880.605	23414
880.732	23551
880.859	23634
880.986	23463
881.112	23417
881.239	23402
881.366	23261
881.493	23174
881.619	23086
881.746	23231
881.872	22946
881.999	22915
882.125	22927
882.252	23098
882.378	23025
882.505	23136
882.631	22904
882.757	22630
882.883	22831
883.01	22755
883.136	22588
883.262	22637
883.388	22485
883.514	22759
883.64	22797
883.766	22504
883.892	22455
884.018	22470
884.143	22641
884.269	22771
884.395	22409
884.52	22398
884.646	22322
884.772	22322
884.897	22211
885.023	22299
885.148	22386
885.274	22443
885.399	22356
885.524	22318
885.65	22398
885.775	22405
885.9	22284
886.025	22402
886.15	22443
886.275	22268
886.4	22310
886.525	22257
886.65	22196
886.775	22200
886.9	22485
887.025	22603
887.149	22284
887.274	22048
887.399	22067
887.523	22101
887.648	22070
887.773	21972
887.897	22101
888.021	22196
888.146	22059
888.27	22158
888.395	22150
888.519	22112
888.643	22101
888.767	22105
888.891	22025
889.015	21743
889.139	22086
889.263	21876
889.387	21975
889.511	22055
889.635	21850
889.759	21854
889.883	21835
890.006	21797
890.13	21873
890.254	21800
890.377	21747
890.501	21610
890.624	21496
890.748	21519
890.871	21469
890.995	21321
891.118	21401
891.241	21431
891.364	21374
891.488	21477
891.611	21393
891.734	21401
891.857	21408
891.98	21431
892.103	21386
892.226	21336
892.349	21272
892.471	21245
892.594	21355
892.717	21462
892.839	21367
892.962	21241
893.085	21416
893.207	21340
893.33	21161
893.452	21146
893.575	21279
893.697	21268
893.819	21367
893.941	21561
894.064	21408
894.186	21268
894.308	21226
894.43	21355
894.552	21412
894.674	21386
894.796	21195
894.918	21386
895.04	21173
895.161	21275
895.283	21306
895.405	21036
895.526	21188
895.648	21298
895.769	21256
895.891	21401
896.012	21431
896.134	21325
896.255	21157
896.376	21332
896.498	21256
896.619	21363
896.74	21313
896.861	21283
896.982	21526
897.103	21876
897.224	21515
897.345	21526
897.466	21431
897.587	21523
897.708	21713
897.828	21523
897.949	21420
898.07	21332
898.19	21249
898.311	21443
898.431	21344
898.552	21561
898.672	21450
898.792	21443
898.913	21386
899.033	21161
899.153	21249
899.273	21207
899.393	21165
899.513	21203
899.633	21093
899.753	21321
899.873	21020
899.993	21154
900.113	20960
900.232	21199
900.352	21074
900.472	21154
900.591	20899
900.711	21043
900.83	20895
900.95	21070
901.069	20998
901.189	20895
901.308	20609
901.427	20492
901.546	20476
901.665	20408
901.784	20503
901.904	20115
902.023	20290
902.141	20172
902.26	20016
902.379	20180
902.498	20008
902.617	19967
902.735	20062
902.854	19993
902.973	19902
903.091	19712
903.21	19502
903.328	19677
903.446	19491
903.565	19460
903.683	19362
903.801	19362
903.919	19297
904.038	19419
904.156	19209
904.274	19209
904.392	19183
904.51	19076
904.627	19156
904.745	19179
904.863	19171
904.981	18928
905.098	18890
905.216	18802
905.334	18951
905.451	18856
905.569	18745
905.686	18951
905.803	18753
905.921	18623
906.038	18749
906.155	18616
906.272	18608
906.389	18612
906.506	18350
906.623	18433
906.74	18384
906.857	18213
906.974	18232
907.091	18471
907.208	18414
907.324	18456
907.441	18251
907.557	18110
907.674	18087
907.79	17916
907.907	17969
908.023	18064
908.139	17931
908.256	17984
908.372	17969
908.488	17859
908.604	17783
908.72	17687
908.836	17741
908.952	17729
909.068	17748
909.184	17699
909.3	17703
909.415	17779
909.531	17665
909.647	17497
909.762	17368
909.878	17490
909.993	17414
910.108	17402
910.224	17379
910.339	17414
910.454	17254
910.57	17200
910.685	17098
910.8	17406
910.915	17239
911.03	17216
911.145	17102
911.259	16995
911.374	16972
911.489	16850
911.604	16740
911.718	16729
911.833	16809
911.947	16649
912.062	16645
912.176	16759
912.291	16782
912.405	16713
912.519	16953
912.633	16980
912.748	16782
912.862	16634
912.976	16523
913.09	16379
913.204	16447
913.318	16504
913.431	16546
913.545	16607
913.659	16584
913.772	16459
913.886	16455
914	16356
914.113	16367
914.226	16440
914.34	16382
914.453	16162
914.566	16344
914.68	16128
914.793	16143
914.906	15987
915.019	15915
915.132	15907
915.245	15899
915.358	15873
915.47	15915
915.583	15861
915.696	15915
915.809	16090
915.921	16025
916.034	15865
916.146	15785
916.259	15766
916.371	15850
916.483	15854
916.595	15751
916.708	15701
916.82	15690
916.932	15648
917.044	15705
917.156	15652
917.268	15534
917.38	15599
917.491	15553
917.603	15511
917.715	15629
917.826	15557
917.938	15420
918.049	15310
918.161	15507
918.272	15564
918.384	15618
918.495	15450
918.606	15363
918.717	15165
918.828	15310
918.939	15355
919.05	15203
919.161	15256
919.272	14963
919.383	15058
919.494	15279
919.604	15462
919.715	15256
919.826	15142
919.936	15176
920.047	15306
920.157	15214
920.267	15355
920.378	15226
920.488	15150
920.598	15348
920.708	15473
920.818	15321
920.928	15279
921.038	15466
921.148	15473
921.258	15226
921.368	15058
921.477	14929
921.587	14910
921.697	14861
921.806	14921
921.916	14750
922.025	14549
922.134	14670
922.244	14594
922.353	14530
922.462	14446
922.571	14385
922.68	14237
922.789	14145
922.898	14134
923.007	14126
923.116	14180
923.224	14259
923.333	14138
923.442	14039
923.55	13959
923.659	14012
923.767	14035
923.876	14001
923.984	13974
924.092	13841
924.201	13826
924.309	13864
924.417	13856
924.525	13887
924.633	13898
924.741	14632
924.849	13586
924.956	13685
925.064	13567
925.172	13533
925.279	13594
925.387	13544
925.494	13502
925.602	13651
925.709	13597
925.816	13365
925.924	13487
926.031	13499
926.138	13476
926.245	13464
926.352	13289
926.459	13499
926.566	13521
926.673	13369
926.779	13362
926.886	13206
926.993	13133
927.099	13149
927.206	13004
927.312	13015
927.419	13107
927.525	12973
927.631	13099
927.737	12985
927.843	12954
927.95	12848
928.056	12966
928.162	12890
928.267	12920
928.373	13419
928.479	12962
928.585	12719
928.69	12897
928.796	12814
928.901	12745
929.007	12627
929.112	12776
929.218	12662
929.323	12642
929.428	12639
929.533	12711
929.638	12578
929.743	12555
929.848	12696
929.953	12582
930.058	12361
930.163	12167
930.267	12372
930.372	12395
930.477	12140
930.581	12471
930.685	12372
930.79	12117
930.894	12087
930.998	12117
931.103	12167
931.207	11878
931.311	11783
931.415	11699
931.519	11520
931.623	11452
