Data from test_V78500241_2793.txt Node
Date: Fri Mar 25 16:01:08 CST 2022
User: usil
Spectrometer: V785-0024
Trigger mode: 0
Integration Time (sec): 4.000000E-1
Scans to average: 1
Nonlinearity correction enabled: false
Boxcar width: 0
Storing dark spectrum: false
XAxis mode: Wavelengths
Number of Pixels in Spectrum: 1024
>>>>>Begin Spectral Data<<<<<
801.071	29124
801.214	29083
801.356	28915
801.499	28790
801.641	28801
801.783	28771
801.926	28915
802.068	28805
802.211	28713
802.353	28656
802.496	28740
802.638	28493
802.78	28291
802.923	28341
803.065	28363
803.208	28405
803.35	28447
803.492	28577
803.635	28645
803.777	28634
803.919	28637
804.061	29029
804.204	28774
804.346	28630
804.488	28603
804.63	28763
804.773	28622
804.915	28843
805.057	28919
805.199	28710
805.341	28828
805.483	28847
805.626	28987
805.768	28866
805.91	29048
806.052	28885
806.194	28729
806.336	28957
806.478	28873
806.62	28892
806.762	29064
806.904	29159
807.046	29558
807.188	29425
807.33	29315
807.472	29383
807.614	29284
807.756	29353
807.898	29235
808.04	29162
808.182	29071
808.324	29341
808.465	29246
808.607	29444
808.749	29627
808.891	29684
809.033	29786
809.174	29687
809.316	29570
809.458	29551
809.6	29577
809.741	29802
809.883	29707
810.025	29840
810.166	29999
810.308	29912
810.45	29783
810.591	29687
810.733	29756
810.875	29539
811.016	29558
811.158	29558
811.299	29722
811.441	29840
811.582	29813
811.724	29630
811.865	29752
812.007	29524
812.148	29665
812.29	29661
812.431	29748
812.573	30110
812.714	30197
812.855	30205
812.997	30323
813.138	30445
813.279	30441
813.421	30140
813.562	30091
813.703	29897
813.845	29866
813.986	29676
814.127	29463
814.268	29379
814.41	29368
814.551	29273
814.692	29379
814.833	29341
814.974	29239
815.115	29345
815.256	29322
815.397	29258
815.539	29174
815.68	29326
815.821	29140
815.962	29124
816.103	29170
816.244	28968
816.385	28919
816.526	28991
816.666	28831
816.807	28649
816.948	28843
817.089	28706
817.23	28729
817.371	28672
817.512	28797
817.653	28588
817.793	28577
817.934	28622
818.075	28653
818.216	28630
818.356	28599
818.497	28459
818.638	28451
818.778	28421
818.919	28421
819.06	28519
819.2	28531
819.341	28596
819.481	28580
819.622	28812
819.762	29162
819.903	29060
820.043	28854
820.184	28904
820.324	28949
820.465	28835
820.605	28790
820.746	28824
820.886	28668
821.026	28752
821.167	28892
821.307	28900
821.447	28736
821.588	28668
821.728	28557
821.868	28398
822.008	28200
822.149	28128
822.289	28173
822.429	28025
822.569	27945
822.709	27979
822.849	27618
822.99	27709
823.13	27648
823.27	27667
823.41	27427
823.55	27439
823.69	27454
823.83	27481
823.97	27378
824.11	27397
824.25	27245
824.389	27279
824.529	27564
824.669	27545
824.809	27545
824.949	27458
825.089	27500
825.228	27519
825.368	27116
825.508	27344
825.648	27355
825.787	27313
825.927	27351
826.067	27237
826.206	27252
826.346	27321
826.485	27397
826.625	27252
826.765	27405
826.904	27355
827.044	26998
827.183	26986
827.323	26864
827.462	27096
827.601	27020
827.741	26967
827.88	27062
828.02	26933
828.159	26933
828.298	27024
828.437	27074
828.577	26906
828.716	26982
828.855	26899
828.994	26769
829.134	26667
829.273	26712
829.412	26579
829.551	26560
829.69	26621
829.829	26640
829.968	26781
830.107	26716
830.246	26663
830.385	26564
830.524	26655
830.663	26469
830.802	26427
830.941	26172
831.08	26351
831.219	26358
831.357	26317
831.496	26480
831.635	26317
831.774	26229
831.913	26138
832.051	26043
832.19	26008
832.329	25978
832.467	25909
832.606	25841
832.744	25944
832.883	25921
833.022	25959
833.16	25917
833.299	25909
833.437	25921
833.576	26058
833.714	25925
833.852	26046
833.991	26115
834.129	26103
834.267	25978
834.406	26062
834.544	26073
834.682	25986
834.821	26035
834.959	26172
835.097	26039
835.235	25982
835.373	25936
835.511	25906
835.65	25852
835.788	25818
835.926	25780
836.064	25567
836.202	25635
836.34	25856
836.478	25928
836.615	25826
836.753	25909
836.891	25788
837.029	25906
837.167	25738
837.305	25704
837.443	25563
837.58	25700
837.718	25704
837.856	25693
837.993	25556
838.131	25613
838.269	25525
838.406	25567
838.544	25365
838.681	25312
838.819	25316
838.956	25137
839.094	25046
839.231	25137
839.369	25278
839.506	25392
839.643	25282
839.781	24985
839.918	25129
840.055	25171
840.193	25000
840.33	24958
840.467	25057
840.604	24939
840.742	25343
840.879	24962
841.016	24844
841.153	24844
841.29	25133
841.427	24848
841.564	25031
841.701	24928
841.838	25004
841.975	24753
842.112	24798
842.249	24852
842.385	24772
842.522	24935
842.659	24802
842.796	24700
842.933	24692
843.069	24601
843.206	24726
843.343	24760
843.479	24779
843.616	24726
843.752	24467
843.889	24601
844.025	24703
844.162	24437
844.298	24677
844.435	24528
844.571	24612
844.708	24669
844.844	24563
844.98	24791
845.117	24597
845.253	24490
845.389	24502
845.525	24407
845.661	24403
845.798	24285
845.934	24262
846.07	24133
846.206	24289
846.342	24262
846.478	24163
846.614	24060
846.75	23885
846.886	24038
847.022	24083
847.158	24003
847.294	24041
847.429	23980
847.565	24110
847.701	24167
847.837	23596
847.972	23570
848.108	23847
848.244	23748
848.379	23566
848.515	23535
848.65	23531
848.786	23570
848.921	23531
849.057	23672
849.192	23505
849.328	23604
849.463	23490
849.598	23554
849.734	23436
849.869	23440
850.004	23334
850.14	23364
850.275	23273
850.41	23307
850.545	23239
850.68	23246
850.815	23220
850.95	23299
851.085	23547
851.22	23440
851.355	23429
851.49	23208
851.625	23417
851.76	23288
851.895	23299
852.03	23299
852.165	23277
852.299	23387
852.434	23360
852.569	23383
852.703	23261
852.838	23356
852.973	23379
853.107	23444
853.242	23322
853.376	23288
853.511	23048
853.645	23105
853.78	23174
853.914	23181
854.048	23064
854.183	23041
854.317	23254
854.451	23368
854.585	23239
854.72	23254
854.854	23277
854.988	23075
855.122	23102
855.256	23071
855.39	23147
855.524	23147
855.658	23193
855.792	23178
855.926	23200
856.06	23265
856.194	23246
856.327	23151
856.461	23064
856.595	23132
856.729	23136
856.862	23269
856.996	23155
857.13	23216
857.263	23197
857.397	23261
857.53	23105
857.664	23296
857.797	23181
857.931	23227
858.064	23178
858.197	23178
858.331	23064
858.464	23044
858.597	23044
858.731	23098
858.864	23044
858.997	23128
859.13	23094
859.263	23056
859.396	23227
859.529	23136
859.662	23121
859.795	23010
859.928	23143
860.061	23410
860.194	23474
860.327	23216
860.46	23265
860.592	23250
860.725	23288
860.858	23216
860.99	23056
861.123	23155
861.256	23162
861.388	23159
861.521	24003
861.653	23037
861.786	22831
861.918	23003
862.05	22953
862.183	23064
862.315	23090
862.447	23086
862.58	23124
862.712	22820
862.844	22820
862.976	22892
863.108	22896
863.24	23235
863.372	22793
863.504	22862
863.636	22786
863.768	22892
863.9	23025
864.032	22740
864.164	22771
864.296	22873
864.428	22862
864.559	22866
864.691	22915
864.823	22790
864.954	22774
865.086	22889
865.217	22854
865.349	22649
865.48	22740
865.612	22774
865.743	22858
865.875	22694
866.006	22588
866.137	22702
866.269	22736
866.4	22649
866.531	22599
866.662	22626
866.793	22653
866.924	22687
867.055	22683
867.186	22649
867.317	22584
867.448	22516
867.579	22611
867.71	22535
867.841	22550
867.972	22630
868.103	22584
868.233	22736
868.364	22660
868.495	22774
868.625	22809
868.756	22961
868.886	22793
869.017	22900
869.147	22961
869.278	22987
869.408	22847
869.539	22919
869.669	22957
869.799	22980
869.929	22927
870.06	23121
870.19	23231
870.32	23258
870.45	23337
870.58	23303
870.71	23322
870.84	23436
870.97	23216
871.1	23326
871.23	23467
871.36	23448
871.489	23471
871.619	23436
871.749	23505
871.879	23455
872.008	23505
872.138	23414
872.267	23497
872.397	23322
872.526	23311
872.656	23459
872.785	23178
872.915	23444
873.044	23501
873.173	23482
873.303	23509
873.432	23577
873.561	23589
873.69	23528
873.819	23425
873.948	23551
874.077	23490
874.206	23410
874.335	23531
874.464	23535
874.593	23657
874.722	23592
874.851	23939
874.979	23745
875.108	23722
875.237	23566
875.365	23490
875.494	23630
875.623	23680
875.751	23566
875.88	23691
876.008	23752
876.136	23859
876.265	24083
876.393	24209
876.521	24197
876.65	24129
876.778	23999
876.906	24011
877.034	24057
877.162	24098
877.29	23935
877.418	24011
877.546	24007
877.674	24079
877.802	23927
877.93	23927
878.058	24007
878.185	23840
878.313	23885
878.441	23992
878.568	23866
878.696	23969
878.824	24140
878.951	24068
879.079	24296
879.206	24334
879.333	24098
879.461	24026
879.588	24114
879.715	24205
879.842	24251
879.97	24038
880.097	23771
880.224	23798
880.351	23855
880.478	23836
880.605	23707
880.732	23885
880.859	24045
880.986	23874
881.112	23840
881.239	23703
881.366	23710
881.493	23356
881.619	23459
881.746	23444
881.872	23417
881.999	23417
882.125	23322
882.252	23341
882.378	23330
882.505	23345
882.631	23170
882.757	23102
882.883	23086
883.01	23170
883.136	23113
883.262	22953
883.388	22892
883.514	23010
883.64	23105
883.766	22999
883.892	22740
884.018	22843
884.143	22961
884.269	23075
884.395	22782
884.52	22679
884.646	22702
884.772	22637
884.897	22577
885.023	22672
885.148	22809
885.274	22691
885.399	22869
885.524	22691
885.65	22622
885.775	22672
885.9	22542
886.025	22736
886.15	22759
886.275	22546
886.4	22538
886.525	22660
886.65	22489
886.775	22607
886.9	22717
887.025	22820
887.149	22622
887.274	22493
887.399	22455
887.523	22466
887.648	22344
887.773	22322
887.897	22493
888.021	22470
888.146	22291
888.27	22634
888.395	22500
888.519	22546
888.643	22424
888.767	22485
888.891	22348
889.015	22211
889.139	22291
889.263	22158
889.387	22280
889.511	22447
889.635	22253
889.759	22253
889.883	22299
890.006	22344
890.13	22314
890.254	22147
890.377	22185
890.501	21968
890.624	22032
890.748	21960
890.871	21819
890.995	21781
891.118	21637
891.241	21819
891.364	21842
891.488	21724
891.611	21838
891.734	21785
891.857	21682
891.98	21781
892.103	21873
892.226	21835
892.349	21690
892.471	21599
892.594	21679
892.717	21694
892.839	21717
892.962	21637
893.085	21682
893.207	21705
893.33	21473
893.452	21519
893.575	21789
893.697	21549
893.819	21709
893.941	21998
894.064	21599
894.186	21656
894.308	21542
894.43	21656
894.552	21865
894.674	21766
894.796	21580
894.918	21561
895.04	21450
895.161	21743
895.283	21583
895.405	21587
895.526	21625
895.648	21618
895.769	21644
895.891	21641
896.012	21747
896.134	21603
896.255	21515
896.376	21606
896.498	21553
896.619	21705
896.74	21610
896.861	21652
896.982	21918
897.103	22090
897.224	21842
897.345	21835
897.466	21728
897.587	21842
897.708	21915
897.828	21884
897.949	21667
898.07	21663
898.19	21705
898.311	21907
898.431	21743
898.552	21861
898.672	21762
898.792	21934
898.913	21865
899.033	21762
899.153	21542
899.273	21378
899.393	21469
899.513	21614
899.633	21545
899.753	21580
899.873	21428
899.993	21534
900.113	21344
900.232	21454
900.352	21359
900.472	21268
900.591	21351
900.711	21298
900.83	21192
900.95	21363
901.069	21298
901.189	21230
901.308	20880
901.427	20777
901.546	20819
901.665	20857
901.784	20834
901.904	20731
902.023	20609
902.141	20313
902.26	20381
902.379	20499
902.498	20294
902.617	20301
902.735	20419
902.854	20237
902.973	20221
903.091	19864
903.21	19955
903.328	19947
903.446	19890
903.565	19799
903.683	19738
903.801	19677
903.919	19734
904.038	19658
904.156	19586
904.274	19635
904.392	19556
904.51	19643
904.627	19521
904.745	19559
904.863	19537
904.981	19266
905.098	19346
905.216	19187
905.334	19232
905.451	19293
905.569	19148
905.686	19145
905.803	19217
905.921	18989
906.038	19050
906.155	19095
906.272	18943
906.389	18798
906.506	18768
906.623	18741
906.74	18730
906.857	18616
906.974	18654
907.091	18673
907.208	18798
907.324	18772
907.441	18692
907.557	18410
907.674	18456
907.79	18361
907.907	18395
908.023	18467
908.139	18369
908.256	18338
908.372	18304
908.488	18323
908.604	18209
908.72	18064
908.836	18178
908.952	18102
909.068	18148
909.184	18201
909.3	18045
909.415	18114
909.531	18068
909.647	17863
909.762	17885
909.878	17779
909.993	17847
910.108	17760
910.224	17748
910.339	17805
910.454	17634
910.57	17657
910.685	17474
910.8	17786
910.915	17840
911.03	17623
911.145	17444
911.259	17463
911.374	17345
911.489	17360
911.604	17174
911.718	17212
911.833	17254
911.947	17037
912.062	16953
912.176	17124
912.291	17216
912.405	17029
912.519	17376
912.633	17280
912.748	17178
912.862	17033
912.976	16957
913.09	16767
913.204	16946
913.318	16919
913.431	17037
913.545	17090
913.659	17113
913.772	16801
913.886	16687
914	16729
914.113	16778
914.226	16896
914.34	16774
914.453	16569
914.566	16691
914.68	16485
914.793	16531
914.906	16341
915.019	16295
915.132	16306
915.245	16268
915.358	16268
915.47	16295
915.583	16291
915.696	16249
915.809	16440
915.921	16440
916.034	16280
916.146	16135
916.259	16196
916.371	16314
916.483	16226
916.595	16120
916.708	16055
916.82	16128
916.932	16074
917.044	16074
917.156	16006
917.268	15937
917.38	15975
917.491	15930
917.603	15873
917.715	15934
917.826	16086
917.938	15831
918.049	15679
918.161	15816
918.272	15926
918.384	16036
918.495	15823
918.606	15739
918.717	15652
918.828	15667
918.939	15637
919.05	15507
919.161	15538
919.272	15420
919.383	15424
919.494	15644
919.604	15728
919.715	15675
919.826	15473
919.936	15507
920.047	15606
920.157	15500
920.267	15808
920.378	15561
920.488	15500
920.598	15694
920.708	15819
920.818	15644
920.928	15739
921.038	15857
921.148	15701
921.258	15462
921.368	15344
921.477	15287
921.587	15355
921.697	15218
921.806	15245
921.916	15077
922.025	15013
922.134	14960
922.244	14891
922.353	14941
922.462	14769
922.571	14781
922.68	14617
922.789	14579
922.898	14583
923.007	14480
923.116	14431
923.224	14514
923.333	14366
923.442	14343
923.55	14332
923.659	14404
923.767	14473
923.876	14210
923.984	14393
924.092	14267
924.201	14221
924.309	14286
924.417	14290
924.525	14145
924.633	14252
924.741	15081
924.849	13997
924.956	14096
925.064	13967
925.172	13864
925.279	13856
925.387	13955
925.494	13940
925.602	13986
925.709	13932
925.816	13761
925.924	13746
926.031	13814
926.138	13837
926.245	13879
926.352	13693
926.459	13818
926.566	13917
926.673	13632
926.779	13609
926.886	13620
926.993	13514
927.099	13415
927.206	13434
927.312	13316
927.419	13495
927.525	13377
927.631	13445
927.737	13339
927.843	13377
927.95	13080
928.056	13266
928.162	13194
928.267	13346
928.373	13833
928.479	13308
928.585	13046
928.69	13232
928.796	13232
928.901	13198
929.007	12886
929.112	13194
929.218	13034
929.323	12924
929.428	12928
929.533	12996
929.638	12840
929.743	12954
929.848	12966
929.953	12859
930.058	12764
930.163	12597
930.267	12703
930.372	12726
930.477	12578
930.581	12787
930.685	12654
930.79	12582
930.894	12585
930.998	12464
931.103	12688
931.207	12182
931.311	12144
931.415	11999
931.519	11863
931.623	11790
