Data from test_V78500241_1649.txt Node
Date: Fri Mar 25 15:53:13 CST 2022
User: usil
Spectrometer: V785-0024
Trigger mode: 0
Integration Time (sec): 4.000000E-1
Scans to average: 1
Nonlinearity correction enabled: false
Boxcar width: 0
Storing dark spectrum: false
XAxis mode: Wavelengths
Number of Pixels in Spectrum: 1024
>>>>>Begin Spectral Data<<<<<
801.071	27682
801.214	27671
801.356	27389
801.499	27302
801.641	27096
801.783	27161
801.926	27096
802.068	27138
802.211	27135
802.353	27077
802.496	26929
802.638	26731
802.78	26720
802.923	26564
803.065	26644
803.208	26583
803.35	26781
803.492	26842
803.635	26918
803.777	26849
803.919	27062
804.061	27351
804.204	27001
804.346	26788
804.488	26800
804.63	27089
804.773	26880
804.915	26998
805.057	27173
805.199	26933
805.341	27131
805.483	27066
805.626	27055
805.768	26982
805.91	27127
806.052	27074
806.194	26895
806.336	27329
806.478	27180
806.62	27214
806.762	27222
806.904	27386
807.046	27492
807.188	27549
807.33	27488
807.472	27572
807.614	27496
807.756	27534
807.898	27386
808.04	27439
808.182	27298
808.324	27374
808.465	27431
808.607	27591
808.749	27873
808.891	27892
809.033	27964
809.174	27804
809.316	27629
809.458	27679
809.6	27739
809.741	27888
809.883	27835
810.025	28017
810.166	28017
810.308	27994
810.45	28021
810.591	27793
810.733	27808
810.875	27747
811.016	27667
811.158	27599
811.299	27857
811.441	27960
811.582	27865
811.724	27781
811.865	27663
812.007	27652
812.148	27755
812.29	27698
812.431	27918
812.573	27979
812.714	28169
812.855	28276
812.997	28200
813.138	28443
813.279	28223
813.421	28166
813.562	28188
813.703	27983
813.845	27880
813.986	27625
814.127	27412
814.268	27370
814.41	27427
814.551	27260
814.692	27462
814.833	27241
814.974	27283
815.115	27340
815.256	27252
815.397	27241
815.539	27264
815.68	27184
815.821	27218
815.962	27100
816.103	27203
816.244	27138
816.385	26937
816.526	26918
816.666	26636
816.807	26598
816.948	26682
817.089	26868
817.23	26495
817.371	26712
817.512	26708
817.653	26689
817.793	26602
817.934	26568
818.075	26533
818.216	26845
818.356	26606
818.497	26442
818.638	26404
818.778	26480
818.919	26351
819.06	26370
819.2	26533
819.341	26613
819.481	26606
819.622	26785
819.762	27058
819.903	26864
820.043	26640
820.184	26629
820.324	26678
820.465	26716
820.605	26716
820.746	26781
820.886	26583
821.026	26720
821.167	26632
821.307	26838
821.447	26735
821.588	26602
821.728	26492
821.868	26286
822.008	26248
822.149	26202
822.289	26237
822.429	25936
822.569	25795
822.709	25849
822.849	25506
822.99	25556
823.13	25670
823.27	25575
823.41	25441
823.55	25373
823.69	25403
823.83	25320
823.97	25441
824.11	25331
824.25	25152
824.389	25331
824.529	25350
824.669	25324
824.809	25449
824.949	25225
825.089	25400
825.228	25259
825.368	25183
825.508	25129
825.648	25012
825.787	25225
825.927	25198
826.067	25088
826.206	25152
826.346	25358
826.485	25247
826.625	25046
826.765	25221
826.904	25137
827.044	24867
827.183	24989
827.323	24795
827.462	25015
827.601	24840
827.741	24760
827.88	24791
828.02	24661
828.159	24886
828.298	24886
828.437	24943
828.577	24833
828.716	24905
828.855	24707
828.994	24448
829.134	24631
829.273	24684
829.412	24521
829.551	24540
829.69	24604
829.829	24540
829.968	24639
830.107	24722
830.246	24536
830.385	24433
830.524	24452
830.663	24384
830.802	24380
830.941	24083
831.08	24095
831.219	24102
831.357	24186
831.496	24437
831.635	24220
831.774	23988
831.913	23939
832.051	24087
832.19	24007
832.329	23935
832.467	23973
832.606	23760
832.744	23741
832.883	23657
833.022	23828
833.16	23840
833.299	23794
833.437	23802
833.576	23897
833.714	23950
833.852	23969
833.991	23977
834.129	23931
834.267	23885
834.406	23923
834.544	23920
834.682	23992
834.821	23885
834.959	24117
835.097	23843
835.235	23961
835.373	23824
835.511	23798
835.65	23729
835.788	23805
835.926	23528
836.064	23490
836.202	23623
836.34	23828
836.478	23843
836.615	23703
836.753	23657
836.891	23897
837.029	23729
837.167	23573
837.305	23539
837.443	23596
837.58	23520
837.718	23680
837.856	23554
837.993	23417
838.131	23524
838.269	23387
838.406	23315
838.544	23417
838.681	23315
838.819	23181
838.956	23147
839.094	22987
839.231	23079
839.369	23277
839.506	23505
839.643	23151
839.781	22957
839.918	22957
840.055	22930
840.193	23048
840.33	22953
840.467	23010
840.604	22991
840.742	23147
840.879	22885
841.016	23071
841.153	22763
841.29	23083
841.427	23003
841.564	22915
841.701	22892
841.838	22930
841.975	22946
842.112	22771
842.249	22793
842.385	22649
842.522	22850
842.659	22679
842.796	22763
842.933	22634
843.069	22668
843.206	22668
843.343	22683
843.479	22664
843.616	22774
843.752	22580
843.889	22546
844.025	22584
844.162	22512
844.298	22508
844.435	22455
844.571	22447
844.708	22577
844.844	22607
844.98	22603
845.117	22470
845.253	22413
845.389	22443
845.525	22386
845.661	22413
845.798	22219
845.934	22242
846.07	22147
846.206	22284
846.342	22344
846.478	22154
846.614	21975
846.75	21880
846.886	21972
847.022	22090
847.158	21945
847.294	21972
847.429	21907
847.565	21880
847.701	22147
847.837	21667
847.972	21724
848.108	21751
848.244	21709
848.379	21606
848.515	21557
848.65	21496
848.786	21424
848.921	21553
849.057	21682
849.192	21545
849.328	21618
849.463	21428
849.598	21428
849.734	21428
849.869	21481
850.004	21241
850.14	21256
850.275	21386
850.41	21233
850.545	21184
850.68	21344
850.815	21317
850.95	21275
851.085	21405
851.22	21443
851.355	21245
851.49	21272
851.625	21211
851.76	21252
851.895	21226
852.03	21325
852.165	21302
852.299	21325
852.434	21401
852.569	21321
852.703	21302
852.838	21386
852.973	21481
853.107	21435
853.242	21363
853.376	21169
853.511	21043
853.645	21051
853.78	21226
853.914	21203
854.048	21085
854.183	21077
854.317	21104
854.451	21283
854.585	21180
854.72	21146
854.854	21055
854.988	21020
855.122	21112
855.256	21039
855.39	21058
855.524	21142
855.658	21131
855.792	21184
855.926	21199
856.06	21093
856.194	21157
856.327	21127
856.461	21036
856.595	21009
856.729	21184
856.862	21176
856.996	21192
857.13	21085
857.263	21218
857.397	21291
857.53	21112
857.664	21116
857.797	21252
857.931	21214
858.064	21142
858.197	21298
858.331	21131
858.464	21043
858.597	21005
858.731	21058
858.864	21028
858.997	21119
859.13	21157
859.263	21135
859.396	21203
859.529	21180
859.662	21116
859.795	21066
859.928	21108
860.061	21294
860.194	21135
860.327	21039
860.46	21150
860.592	21150
860.725	21287
860.858	21378
860.99	21108
861.123	21013
861.256	20979
861.388	21093
861.521	21827
861.653	20990
861.786	20902
861.918	21017
862.05	20937
862.183	21013
862.315	21074
862.447	21173
862.58	21066
862.712	20918
862.844	20754
862.976	20906
863.108	20857
863.24	21370
863.372	20750
863.504	20842
863.636	20849
863.768	20925
863.9	20834
864.032	20636
864.164	20826
864.296	20807
864.428	20906
864.559	20891
864.691	21036
864.823	20876
864.954	20796
865.086	20842
865.217	20781
865.349	20689
865.48	20701
865.612	20746
865.743	20796
865.875	20693
866.006	20724
866.137	20823
866.269	20781
866.4	20625
866.531	20621
866.662	20625
866.793	20667
866.924	20750
867.055	20735
867.186	20731
867.317	20629
867.448	20636
867.579	20598
867.71	20556
867.841	20663
867.972	20746
868.103	20727
868.233	20807
868.364	20560
868.495	20667
868.625	20834
868.756	20902
868.886	20823
869.017	21009
869.147	20883
869.278	21062
869.408	20986
869.539	20910
869.669	21051
869.799	20925
869.929	21055
870.06	21066
870.19	21192
870.32	21096
870.45	21291
870.58	21268
870.71	21454
870.84	21492
870.97	21431
871.1	21264
871.23	21538
871.36	21534
871.489	21469
871.619	21424
871.749	21538
871.879	21473
872.008	21663
872.138	21523
872.267	21447
872.397	21374
872.526	21268
872.656	21302
872.785	21378
872.915	21599
873.044	21667
873.173	21576
873.303	21618
873.432	21526
873.561	21523
873.69	21473
873.819	21603
873.948	21595
874.077	21568
874.206	21431
874.335	21504
874.464	21606
874.593	21774
874.722	21736
874.851	21679
874.979	21686
875.108	21751
875.237	21739
875.365	21591
875.494	21732
875.623	21835
875.751	21797
875.88	21759
876.008	21816
876.136	21895
876.265	22230
876.393	22158
876.521	22261
876.65	22280
876.778	22150
876.906	22070
877.034	22051
877.162	22166
877.29	22158
877.418	22120
877.546	22158
877.674	22124
877.802	22147
877.93	22116
878.058	22025
878.185	21964
878.313	22055
878.441	22067
878.568	22032
878.696	22074
878.824	22181
878.951	22211
879.079	22257
879.206	22519
879.333	22238
879.461	22207
879.588	22219
879.715	22386
879.842	22310
879.97	22154
880.097	21964
880.224	22013
880.351	21915
880.478	21972
880.605	21907
880.732	21888
880.859	22215
880.986	21956
881.112	21884
881.239	21793
881.366	21671
881.493	21511
881.619	21496
881.746	21637
881.872	21488
881.999	21530
882.125	21416
882.252	21454
882.378	21447
882.505	21564
882.631	21466
882.757	21199
882.883	21420
883.01	21184
883.136	21203
883.262	21100
883.388	21089
883.514	21256
883.64	21226
883.766	21142
883.892	21032
884.018	20956
884.143	21123
884.269	21279
884.395	20883
884.52	20754
884.646	20883
884.772	20777
884.897	20705
885.023	20720
885.148	20918
885.274	20899
885.399	20952
885.524	20872
885.65	20838
885.775	20792
885.9	20712
886.025	21017
886.15	21047
886.275	20773
886.4	20739
886.525	20826
886.65	20754
886.775	20819
886.9	20857
887.025	21108
887.149	20788
887.274	20697
887.399	20511
887.523	20594
887.648	20495
887.773	20583
887.897	20632
888.021	20632
888.146	20461
888.27	20689
888.395	20579
888.519	20693
888.643	20625
888.767	20724
888.891	20575
889.015	20412
889.139	20480
889.263	20347
889.387	20446
889.511	20602
889.635	20598
889.759	20434
889.883	20396
890.006	20522
890.13	20495
890.254	20328
890.377	20389
890.501	20248
890.624	20130
890.748	20259
890.871	19974
890.995	20054
891.118	19989
891.241	20103
891.364	20096
891.488	20161
891.611	20012
891.734	20012
891.857	20084
891.98	20020
892.103	20157
892.226	19856
892.349	19875
892.471	19860
892.594	20027
892.717	20054
892.839	19955
892.962	19947
893.085	19955
893.207	19856
893.33	19902
893.452	19894
893.575	19963
893.697	19860
893.819	20001
893.941	20012
894.064	20001
894.186	19780
894.308	19803
894.43	20024
894.552	19940
894.674	19902
894.796	19738
894.918	19917
895.04	19830
895.161	19940
895.283	19951
895.405	19860
895.526	19894
895.648	19921
895.769	19955
895.891	19947
896.012	19982
896.134	19947
896.255	19951
896.376	19944
896.498	19970
896.619	19940
896.74	19974
896.861	20069
896.982	20225
897.103	20396
897.224	20248
897.345	20275
897.466	20065
897.587	20149
897.708	20263
897.828	20172
897.949	20084
898.07	19913
898.19	19970
898.311	20161
898.431	20122
898.552	20077
898.672	20153
898.792	20240
898.913	20126
899.033	20043
899.153	19967
899.273	19841
899.393	19830
899.513	19917
899.633	19921
899.753	19803
899.873	19696
899.993	19970
900.113	19757
900.232	19776
900.352	19856
900.472	19750
900.591	19616
900.711	19681
900.83	19674
900.95	19841
901.069	19772
901.189	19544
901.308	19422
901.427	19240
901.546	19263
901.665	19251
901.784	19198
901.904	19221
902.023	19015
902.141	18848
902.26	18833
902.379	18867
902.498	18856
902.617	18711
902.735	18806
902.854	18795
902.973	18741
903.091	18479
903.21	18388
903.328	18513
903.446	18395
903.565	18258
903.683	18296
903.801	18129
903.919	18262
904.038	18254
904.156	17996
904.274	18038
904.392	17973
904.51	17992
904.627	18022
904.745	18121
904.863	18003
904.981	17748
905.098	17714
905.216	17668
905.334	17790
905.451	17756
905.569	17627
905.686	17756
905.803	17615
905.921	17478
906.038	17570
906.155	17589
906.272	17410
906.389	17353
906.506	17189
906.623	17307
906.74	17261
906.857	17174
906.974	17227
907.091	17208
907.208	17448
907.324	17147
907.441	17102
907.557	16995
907.674	16934
907.79	16889
907.907	16873
908.023	16965
908.139	16927
908.256	16885
908.372	16847
908.488	16843
908.604	16744
908.72	16592
908.836	16767
908.952	16725
909.068	16687
909.184	16801
909.3	16645
909.415	16649
909.531	16691
909.647	16531
909.762	16413
909.878	16379
909.993	16379
910.108	16325
910.224	16379
910.339	16325
910.454	16226
910.57	16105
910.685	16090
910.8	16356
910.915	16325
911.03	16196
911.145	16090
911.259	15949
911.374	15922
911.489	15869
911.604	15846
911.718	15747
911.833	15713
911.947	15614
912.062	15595
912.176	15747
912.291	15686
912.405	15682
912.519	15880
912.633	15888
912.748	15728
912.862	15698
912.976	15572
913.09	15317
913.204	15450
913.318	15557
913.431	15572
913.545	15568
913.659	15614
913.772	15481
913.886	15416
914	15367
914.113	15420
914.226	15389
914.34	15363
914.453	15218
914.566	15317
914.68	15321
914.793	15287
914.906	15039
915.019	14960
915.132	14982
915.245	14902
915.358	14990
915.47	14933
915.583	14910
915.696	14853
915.809	14941
915.921	15032
916.034	14853
916.146	14906
916.259	14788
916.371	14921
916.483	14834
916.595	14727
916.708	14800
916.82	14788
916.932	14788
917.044	14815
917.156	14735
917.268	14499
917.38	14659
917.491	14560
917.603	14613
917.715	14678
917.826	14735
917.938	14583
918.049	14549
918.161	14613
918.272	14701
918.384	14632
918.495	14552
918.606	14419
918.717	14278
918.828	14446
918.939	14461
919.05	14263
919.161	14381
919.272	14183
919.383	14301
919.494	14476
919.604	14625
919.715	14423
919.826	14298
919.936	14282
920.047	14488
920.157	14377
920.267	14469
920.378	14377
920.488	14271
920.598	14545
920.708	14651
920.818	14423
920.928	14476
921.038	14632
921.148	14579
921.258	14278
921.368	14199
921.477	14130
921.587	14142
921.697	13974
921.806	14069
921.916	13974
922.025	13761
922.134	13700
922.244	13689
922.353	13765
922.462	13655
922.571	13514
922.68	13419
922.789	13438
922.898	13331
923.007	13403
923.116	13510
923.224	13388
923.333	13339
923.442	13236
923.55	13183
923.659	13263
923.767	13168
923.876	13217
923.984	13206
924.092	13061
924.201	13099
924.309	13168
924.417	13110
924.525	13046
924.633	13034
924.741	13982
924.849	12787
924.956	12894
925.064	12825
925.172	12787
925.279	12726
925.387	12840
925.494	12783
925.602	12909
925.709	12852
925.816	12673
925.924	12772
926.031	12791
926.138	12722
926.245	12783
926.352	12669
926.459	12791
926.566	12852
926.673	12623
926.779	12570
926.886	12585
926.993	12327
927.099	12422
927.206	12315
927.312	12346
927.419	12365
927.525	12407
927.631	12429
927.737	12304
927.843	12235
927.95	12159
928.056	12144
928.162	12235
928.267	12273
928.373	12810
928.479	12190
928.585	11950
928.69	12205
928.796	12228
928.901	12136
929.007	11961
929.112	12076
929.218	11950
929.323	11935
929.428	11866
929.533	11977
929.638	11805
929.743	11954
929.848	11942
929.953	11939
930.058	11726
930.163	11623
930.267	11661
930.372	11752
930.477	11638
930.581	11863
930.685	11570
930.79	11524
930.894	11570
930.998	11482
931.103	11623
931.207	11178
931.311	11216
931.415	11090
931.519	10881
931.623	10885
