Data from test_V78500241_3466.txt Node
Date: Fri Mar 25 16:05:48 CST 2022
User: usil
Spectrometer: V785-0024
Trigger mode: 0
Integration Time (sec): 4.000000E-1
Scans to average: 1
Nonlinearity correction enabled: false
Boxcar width: 0
Storing dark spectrum: false
XAxis mode: Wavelengths
Number of Pixels in Spectrum: 1024
>>>>>Begin Spectral Data<<<<<
801.071	29098
801.214	28999
801.356	28729
801.499	28611
801.641	28489
801.783	28500
801.926	28694
802.068	28607
802.211	28561
802.353	28538
802.496	28318
802.638	28386
802.78	28242
802.923	28135
803.065	28166
803.208	28181
803.35	28314
803.492	28443
803.635	28542
803.777	28512
803.919	28664
804.061	28710
804.204	28440
804.346	28398
804.488	28485
804.63	28546
804.773	28424
804.915	28656
805.057	28706
805.199	28596
805.341	28630
805.483	28736
805.626	28763
805.768	28611
805.91	28668
806.052	28733
806.194	28500
806.336	28900
806.478	28782
806.62	28755
806.762	28790
806.904	29010
807.046	29258
807.188	29185
807.33	29117
807.472	29379
807.614	29056
807.756	29105
807.898	29003
808.04	29048
808.182	28915
808.324	29029
808.465	29048
808.607	29486
808.749	29444
808.891	29406
809.033	29554
809.174	29482
809.316	29349
809.458	29414
809.6	29368
809.741	29455
809.883	29577
810.025	29745
810.166	29874
810.308	29687
810.45	29634
810.591	29729
810.733	29554
810.875	29505
811.016	29497
811.158	29353
811.299	29516
811.441	29672
811.582	29665
811.724	29497
811.865	29581
812.007	29360
812.148	29482
812.29	29471
812.431	29676
812.573	29817
812.714	29745
812.855	29931
812.997	30064
813.138	30140
813.279	30091
813.421	29942
813.562	30076
813.703	29771
813.845	29710
813.986	29490
814.127	29220
814.268	29086
814.41	29242
814.551	29128
814.692	29231
814.833	29060
814.974	29105
815.115	29128
815.256	29098
815.397	29151
815.539	29052
815.68	29121
815.821	28858
815.962	29113
816.103	28957
816.244	28854
816.385	28767
816.526	28930
816.666	28527
816.807	28497
816.948	28565
817.089	28645
817.23	28379
817.371	28531
817.512	28440
817.653	28470
817.793	28398
817.934	28447
818.075	28573
818.216	28481
818.356	28466
818.497	28367
818.638	28333
818.778	28192
818.919	28249
819.06	28295
819.2	28466
819.341	28447
819.481	28531
819.622	28702
819.762	28892
819.903	28675
820.043	28782
820.184	28599
820.324	28687
820.465	28641
820.605	28531
820.746	28668
820.886	28344
821.026	28668
821.167	28702
821.307	28721
821.447	28599
821.588	28455
821.728	28455
821.868	28074
822.008	27960
822.149	28040
822.289	27953
822.429	27709
822.569	27698
822.709	27774
822.849	27557
822.99	27370
823.13	27549
823.27	27534
823.41	27370
823.55	27283
823.69	27272
823.83	27511
823.97	27374
824.11	27077
824.25	27173
824.389	27173
824.529	27329
824.669	27157
824.809	27252
824.949	27241
825.089	27226
825.228	27211
825.368	27009
825.508	27108
825.648	27085
825.787	27043
825.927	27032
826.067	27157
826.206	27180
826.346	27184
826.485	27127
826.625	27116
826.765	27150
826.904	27188
827.044	26765
827.183	26739
827.323	26667
827.462	26705
827.601	26785
827.741	26697
827.88	26796
828.02	26838
828.159	26815
828.298	26674
828.437	26880
828.577	26670
828.716	26712
828.855	26648
828.994	26526
829.134	26366
829.273	26556
829.412	26366
829.551	26423
829.69	26495
829.829	26404
829.968	26530
830.107	26613
830.246	26400
830.385	26332
830.524	26339
830.663	26336
830.802	26229
830.941	26183
831.08	25959
831.219	26161
831.357	26058
831.496	26278
831.635	26111
831.774	25864
831.913	25940
832.051	25727
832.19	25791
832.329	25738
832.467	25696
832.606	25670
832.744	25677
832.883	25639
833.022	25658
833.16	25811
833.299	25700
833.437	25647
833.576	25913
833.714	25898
833.852	25868
833.991	25860
834.129	25940
834.267	25765
834.406	25833
834.544	25791
834.682	25727
834.821	25681
834.959	26016
835.097	25651
835.235	25795
835.373	25860
835.511	25746
835.65	25597
835.788	25696
835.926	25506
836.064	25411
836.202	25487
836.34	25624
836.478	25670
836.615	25594
836.753	25689
836.891	25616
837.029	25689
837.167	25434
837.305	25582
837.443	25491
837.58	25434
837.718	25605
837.856	25483
837.993	25354
838.131	25324
838.269	25426
838.406	25373
838.544	25350
838.681	25069
838.819	25103
838.956	24913
839.094	24985
839.231	25000
839.369	25061
839.506	25148
839.643	25228
839.781	24825
839.918	24814
840.055	24913
840.193	24852
840.33	24692
840.467	24707
840.604	24916
840.742	25069
840.879	24623
841.016	24722
841.153	24764
841.29	24757
841.427	24757
841.564	24779
841.701	24840
841.838	24696
841.975	24688
842.112	24700
842.249	24582
842.385	24460
842.522	24730
842.659	24532
842.796	24483
842.933	24479
843.069	24502
843.206	24445
843.343	24654
843.479	24521
843.616	24467
843.752	24315
843.889	24338
844.025	24471
844.162	24330
844.298	24319
844.435	24353
844.571	24178
844.708	24334
844.844	24490
844.98	24407
845.117	24407
845.253	24319
845.389	24178
845.525	24247
845.661	24174
845.798	23973
845.934	24159
846.07	24110
846.206	24095
846.342	24174
846.478	24026
846.614	24018
846.75	23794
846.886	23687
847.022	23790
847.158	23813
847.294	23824
847.429	23885
847.565	23726
847.701	23954
847.837	23440
847.972	23383
848.108	23486
848.244	23524
848.379	23417
848.515	23383
848.65	23322
848.786	23345
848.921	23402
849.057	23444
849.192	23486
849.328	23493
849.463	23402
849.598	23334
849.734	23288
849.869	23254
850.004	23208
850.14	23105
850.275	23151
850.41	23083
850.545	23044
850.68	23109
850.815	23269
850.95	23109
851.085	23273
851.22	23265
851.355	23181
851.49	23178
851.625	23170
851.76	23098
851.895	22965
852.03	23071
852.165	23113
852.299	23204
852.434	23235
852.569	23181
852.703	23181
852.838	23128
852.973	23265
853.107	23311
853.242	23136
853.376	23018
853.511	22812
853.645	22873
853.78	23044
853.914	22839
854.048	22896
854.183	22896
854.317	22862
854.451	23098
854.585	22995
854.72	22904
854.854	23098
854.988	22999
855.122	22896
855.256	22793
855.39	22927
855.524	22953
855.658	23022
855.792	23121
855.926	23018
856.06	22987
856.194	23003
856.327	22999
856.461	22987
856.595	22812
856.729	23018
856.862	22980
856.996	22968
857.13	22987
857.263	23083
857.397	22930
857.53	22938
857.664	22980
857.797	23060
857.931	23029
858.064	22862
858.197	22980
858.331	22957
858.464	22908
858.597	22889
858.731	22999
858.864	22892
858.997	22866
859.13	22965
859.263	22961
859.396	23048
859.529	22892
859.662	22953
859.795	22847
859.928	22961
860.061	23147
860.194	23083
860.327	23121
860.46	22896
860.592	23029
860.725	23170
860.858	23151
860.99	23064
861.123	22972
861.256	22923
861.388	22930
861.521	23512
861.653	22862
861.786	22763
861.918	22873
862.05	22854
862.183	22839
862.315	22896
862.447	22942
862.58	23033
862.712	22653
862.844	22588
862.976	22839
863.108	22786
863.24	23052
863.372	22660
863.504	22702
863.636	22710
863.768	22664
863.9	22607
864.032	22546
864.164	22546
864.296	22694
864.428	22717
864.559	22812
864.691	22626
864.823	22656
864.954	22599
865.086	22668
865.217	22516
865.349	22318
865.48	22561
865.612	22455
865.743	22637
865.875	22367
866.006	22577
866.137	22489
866.269	22542
866.4	22512
866.531	22398
866.662	22424
866.793	22443
866.924	22428
867.055	22519
867.186	22329
867.317	22413
867.448	22310
867.579	22462
867.71	22394
867.841	22413
867.972	22409
868.103	22371
868.233	22379
868.364	22432
868.495	22584
868.625	22668
868.756	22668
868.886	22550
869.017	22687
869.147	22782
869.278	22694
869.408	22706
869.539	22580
869.669	22649
869.799	22805
869.929	22801
870.06	22797
870.19	23098
870.32	22908
870.45	23056
870.58	23105
870.71	23147
870.84	23140
870.97	23022
871.1	23098
871.23	23261
871.36	23227
871.489	23246
871.619	23246
871.749	23303
871.879	23410
872.008	23318
872.138	23398
872.267	23425
872.397	23132
872.526	23037
872.656	23220
872.785	23071
872.915	23490
873.044	23406
873.173	23277
873.303	23322
873.432	23341
873.561	23391
873.69	23208
873.819	23284
873.948	23296
874.077	23193
874.206	23204
874.335	23326
874.464	23376
874.593	23543
874.722	23501
874.851	23505
874.979	23600
875.108	23634
875.237	23452
875.365	23387
875.494	23558
875.623	23608
875.751	23471
875.88	23566
876.008	23653
876.136	23649
876.265	23908
876.393	24022
876.521	23965
876.65	24068
876.778	23916
876.906	23798
877.034	23798
877.162	23752
877.29	23885
877.418	23828
877.546	23901
877.674	23836
877.802	23923
877.93	23813
878.058	23817
878.185	23775
878.313	23718
878.441	23863
878.568	23752
878.696	23863
878.824	24026
878.951	23950
879.079	23999
879.206	24254
879.333	23920
879.461	23843
879.588	23950
879.715	24034
879.842	24072
879.97	23961
880.097	23691
880.224	23638
880.351	23623
880.478	23714
880.605	23600
880.732	23783
880.859	23958
880.986	23703
881.112	23619
881.239	23570
881.366	23372
881.493	23303
881.619	23315
881.746	23155
881.872	23216
881.999	23181
882.125	23159
882.252	23318
882.378	23128
882.505	23208
882.631	23166
882.757	22892
882.883	23029
883.01	22919
883.136	22847
883.262	22752
883.388	22603
883.514	22904
883.64	22850
883.766	22782
883.892	22694
884.018	22694
884.143	22816
884.269	22919
884.395	22637
884.52	22474
884.646	22546
884.772	22500
884.897	22181
885.023	22508
885.148	22531
885.274	22615
885.399	22660
885.524	22402
885.65	22561
885.775	22512
885.9	22470
886.025	22618
886.15	22607
886.275	22497
886.4	22398
886.525	22561
886.65	22485
886.775	22443
886.9	22683
887.025	22622
887.149	22428
887.274	22314
887.399	22223
887.523	22333
887.648	22211
887.773	22246
887.897	22295
888.021	22150
888.146	22124
888.27	22295
888.395	22276
888.519	22268
888.643	22185
888.767	22299
888.891	22166
889.015	22063
889.139	22090
889.263	21983
889.387	22234
889.511	22265
889.635	22204
889.759	22067
889.883	21972
890.006	22154
890.13	22310
890.254	21876
890.377	21865
890.501	21850
890.624	21789
890.748	21827
890.871	21759
890.995	21656
891.118	21599
891.241	21583
891.364	21614
891.488	21717
891.611	21583
891.734	21454
891.857	21660
891.98	21622
892.103	21561
892.226	21481
892.349	21538
892.471	21382
892.594	21496
892.717	21473
892.839	21439
892.962	21587
893.085	21595
893.207	21572
893.33	21431
893.452	21283
893.575	21534
893.697	21462
893.819	21720
893.941	21694
894.064	21511
894.186	21389
894.308	21389
894.43	21587
894.552	21606
894.674	21481
894.796	21405
894.918	21462
895.04	21458
895.161	21504
895.283	21496
895.405	21325
895.526	21481
895.648	21534
895.769	21458
895.891	21458
896.012	21637
896.134	21431
896.255	21370
896.376	21382
896.498	21408
896.619	21572
896.74	21291
896.861	21447
896.982	21686
897.103	21865
897.224	21728
897.345	21610
897.466	21583
897.587	21656
897.708	21762
897.828	21682
897.949	21660
898.07	21526
898.19	21496
898.311	21812
898.431	21671
898.552	21660
898.672	21690
898.792	21732
898.913	21675
899.033	21545
899.153	21340
899.273	21378
899.393	21424
899.513	21386
899.633	21359
899.753	21428
899.873	21321
899.993	21500
900.113	21298
900.232	21325
900.352	21226
900.472	21184
900.591	21116
900.711	21157
900.83	21252
900.95	21150
901.069	21203
901.189	20971
901.308	20845
901.427	20739
901.546	20693
901.665	20663
901.784	20743
901.904	20507
902.023	20522
902.141	20221
902.26	20214
902.379	20252
902.498	20214
902.617	20145
902.735	20206
902.854	20164
902.973	20119
903.091	19871
903.21	19856
903.328	19868
903.446	19708
903.565	19674
903.683	19719
903.801	19521
903.919	19540
904.038	19537
904.156	19403
904.274	19449
904.392	19365
904.51	19343
904.627	19217
904.745	19388
904.863	19434
904.981	19126
905.098	18985
905.216	19069
905.334	19091
905.451	19065
905.569	19038
905.686	19031
905.803	19023
905.921	18852
906.038	18943
906.155	18916
906.272	18787
906.389	18738
906.506	18692
906.623	18623
906.74	18597
906.857	18502
906.974	18570
907.091	18570
907.208	18688
907.324	18570
907.441	18578
907.557	18380
907.674	18304
907.79	18159
907.907	18289
908.023	18311
908.139	18273
908.256	18304
908.372	18239
908.488	18194
908.604	17984
908.72	18041
908.836	17942
908.952	18121
909.068	17958
909.184	18129
909.3	18030
909.415	18003
909.531	17916
909.647	17771
909.762	17718
909.878	17642
909.993	17623
910.108	17710
910.224	17615
910.339	17596
910.454	17512
910.57	17444
910.685	17421
910.8	17718
910.915	17714
911.03	17448
911.145	17261
911.259	17212
911.374	17220
911.489	17128
911.604	17102
911.718	16915
911.833	17010
911.947	16911
912.062	16767
912.176	16953
912.291	17033
912.405	17056
912.519	17227
912.633	17261
912.748	17102
912.862	17048
912.976	16900
913.09	16767
913.204	16839
913.318	16797
913.431	16892
913.545	16889
913.659	16908
913.772	16774
913.886	16683
914	16596
914.113	16637
914.226	16592
914.34	16611
914.453	16508
914.566	16607
914.68	16451
914.793	16405
914.906	16207
915.019	16219
915.132	16071
915.245	16147
915.358	16207
915.47	16078
915.583	16242
915.696	16204
915.809	16299
915.921	16261
916.034	16078
916.146	16090
916.259	16029
916.371	16207
916.483	16067
916.595	15945
916.708	15926
916.82	15895
916.932	15880
917.044	15968
917.156	15918
917.268	15793
917.38	15797
917.491	15705
917.603	15766
917.715	15812
917.826	15903
917.938	15679
918.049	15637
918.161	15709
918.272	15823
918.384	15785
918.495	15724
918.606	15629
918.717	15447
918.828	15580
918.939	15637
919.05	15370
919.161	15488
919.272	15222
919.383	15401
919.494	15545
919.604	15793
919.715	15511
919.826	15386
919.936	15447
920.047	15378
920.157	15428
920.267	15599
920.378	15458
920.488	15519
920.598	15679
920.708	15793
920.818	15549
920.928	15519
921.038	15709
921.148	15778
921.258	15389
921.368	15321
921.477	15104
921.587	15207
921.697	15051
921.806	15066
921.916	15074
922.025	14967
922.134	14864
922.244	14781
922.353	14883
922.462	14667
922.571	14617
922.68	14499
922.789	14427
922.898	14469
923.007	14347
923.116	14480
923.224	14484
923.333	14385
923.442	14427
923.55	14221
923.659	14366
923.767	14199
923.876	14183
923.984	14328
924.092	14149
924.201	14244
924.309	14176
924.417	14191
924.525	14054
924.633	13989
924.741	15028
924.849	13860
924.956	14043
925.064	13772
925.172	13723
925.279	13814
925.387	13879
925.494	13818
925.602	13864
925.709	13890
925.816	13712
925.924	13753
926.031	13887
926.138	13780
926.245	13780
926.352	13620
926.459	13803
926.566	13849
926.673	13689
926.779	13590
926.886	13445
926.993	13335
927.099	13354
927.206	13312
927.312	13343
927.419	13312
927.525	13377
927.631	13343
927.737	13232
927.843	13175
927.95	13069
928.056	13179
928.162	13065
928.267	13232
928.373	13776
928.479	13137
928.585	13046
928.69	13053
928.796	13141
928.901	13015
929.007	12856
929.112	12943
929.218	12996
929.323	12859
929.428	12897
929.533	13019
929.638	12779
929.743	12772
929.848	12856
929.953	12726
930.058	12650
930.163	12460
930.267	12540
930.372	12623
930.477	12388
930.581	12719
930.685	12582
930.79	12384
930.894	12486
930.998	12372
931.103	12494
931.207	12159
931.311	12053
931.415	12079
931.519	11824
931.623	11748
