Data from test_V78500241_71.txt Node
Date: Fri Mar 25 15:42:17 CST 2022
User: usil
Spectrometer: V785-0024
Trigger mode: 0
Integration Time (sec): 4.000000E-1
Scans to average: 1
Nonlinearity correction enabled: false
Boxcar width: 0
Storing dark spectrum: false
XAxis mode: Wavelengths
Number of Pixels in Spectrum: 1024
>>>>>Begin Spectral Data<<<<<
801.071	30030
801.214	29764
801.356	29771
801.499	29543
801.641	29581
801.783	29436
801.926	29417
802.068	29444
802.211	29345
802.353	29292
802.496	29121
802.638	28999
802.78	29117
802.923	29010
803.065	28839
803.208	28972
803.35	29052
803.492	29143
803.635	29372
803.777	29223
803.919	29064
804.061	29497
804.204	29231
804.346	29162
804.488	29048
804.63	29162
804.773	29022
804.915	29140
805.057	29239
805.199	29136
805.341	29128
805.483	29303
805.626	29239
805.768	29140
805.91	29197
806.052	29398
806.194	29170
806.336	29372
806.478	29223
806.62	29231
806.762	29349
806.904	29387
807.046	29775
807.188	29615
807.33	29672
807.472	29729
807.614	29570
807.756	29596
807.898	29600
808.04	29459
808.182	29410
808.324	29509
808.465	29604
808.607	29585
808.749	29653
808.891	29931
809.033	29939
809.174	29843
809.316	29783
809.458	29874
809.6	29722
809.741	29901
809.883	29889
810.025	30072
810.166	30068
810.308	30087
810.45	30114
810.591	29901
810.733	29703
810.875	29832
811.016	29649
811.158	29718
811.299	30022
811.441	30003
811.582	29897
811.724	29691
811.865	29687
812.007	29931
812.148	29802
812.29	29748
812.431	29977
812.573	30114
812.714	30076
812.855	30296
812.997	30266
813.138	30494
813.279	30441
813.421	30216
813.562	30159
813.703	29931
813.845	30026
813.986	29535
814.127	29459
814.268	29459
814.41	29436
814.551	29349
814.692	29505
814.833	29387
814.974	29379
815.115	29398
815.256	29170
815.397	29246
815.539	29254
815.68	29200
815.821	28953
815.962	29052
816.103	29174
816.244	28885
816.385	28744
816.526	28869
816.666	28618
816.807	28451
816.948	28622
817.089	28615
817.23	28417
817.371	28660
817.512	28554
817.653	28363
817.793	28322
817.934	28462
818.075	28329
818.216	28603
818.356	28497
818.497	28188
818.638	28147
818.778	28139
818.919	28139
819.06	28223
819.2	28344
819.341	28325
819.481	28287
819.622	28535
819.762	28630
819.903	28683
820.043	28557
820.184	28409
820.324	28390
820.465	28615
820.605	28577
820.746	28371
820.886	28196
821.026	28516
821.167	28310
821.307	28394
821.447	28325
821.588	28344
821.728	28158
821.868	27922
822.008	27857
822.149	27964
822.289	27869
822.429	27652
822.569	27374
822.709	27431
822.849	27241
822.99	27241
823.13	27252
823.27	27317
823.41	26994
823.55	26887
823.69	27058
823.83	27138
823.97	27005
824.11	26883
824.25	26773
824.389	26788
824.529	27039
824.669	26765
824.809	26868
824.949	26864
825.089	26781
825.228	26788
825.368	26651
825.508	26674
825.648	26640
825.787	26667
825.927	26697
826.067	26632
826.206	26659
826.346	26575
826.485	26750
826.625	26651
826.765	26640
826.904	26678
827.044	26381
827.183	26343
827.323	26290
827.462	26339
827.601	26336
827.741	26309
827.88	26320
828.02	26149
828.159	26161
828.298	26301
828.437	26393
828.577	26145
828.716	26347
828.855	26256
828.994	26077
829.134	25932
829.273	26054
829.412	25909
829.551	25788
829.69	25978
829.829	25913
829.968	26096
830.107	26012
830.246	26016
830.385	25849
830.524	25742
830.663	25731
830.802	25605
830.941	25415
831.08	25445
831.219	25495
831.357	25434
831.496	25677
831.635	25609
831.774	25343
831.913	25358
832.051	25202
832.19	25194
832.329	25278
832.467	25141
832.606	25008
832.744	24973
832.883	25031
833.022	25019
833.16	25076
833.299	25072
833.437	25000
833.576	25110
833.714	24966
833.852	25023
833.991	25145
834.129	25145
834.267	25145
834.406	25110
834.544	25259
834.682	25187
834.821	25069
834.959	25274
835.097	24973
835.235	25061
835.373	25027
835.511	25008
835.65	24909
835.788	25000
835.926	24890
836.064	24623
836.202	24726
836.34	24817
836.478	24996
836.615	24913
836.753	24783
836.891	25080
837.029	24798
837.167	24730
837.305	24844
837.443	24829
837.58	24650
837.718	24814
837.856	24791
837.993	24658
838.131	24631
838.269	24486
838.406	24669
838.544	24437
838.681	24384
838.819	24353
838.956	24220
839.094	24144
839.231	24114
839.369	24277
839.506	24703
839.643	24319
839.781	24163
839.918	23977
840.055	24144
840.193	24060
840.33	23912
840.467	23946
840.604	23969
840.742	24304
840.879	23958
841.016	23939
841.153	23832
841.29	23931
841.427	24018
841.564	23882
841.701	23920
841.838	23954
841.975	23760
842.112	23893
842.249	23760
842.385	23714
842.522	23893
842.659	23646
842.796	23703
842.933	23535
843.069	23531
843.206	23433
843.343	23859
843.479	23573
843.616	23665
843.752	23398
843.889	23383
844.025	23501
844.162	23315
844.298	23509
844.435	23406
844.571	23212
844.708	23288
844.844	23474
844.98	23520
845.117	23429
845.253	23315
845.389	23178
845.525	23220
845.661	23178
845.798	23105
845.934	23025
846.07	23056
846.206	23067
846.342	23197
846.478	23022
846.614	22908
846.75	22668
846.886	22885
847.022	23014
847.158	22778
847.294	22831
847.429	22831
847.565	22767
847.701	23029
847.837	22360
847.972	22504
848.108	22455
848.244	22432
848.379	22447
848.515	22360
848.65	22204
848.786	22261
848.921	22428
849.057	22565
849.192	22489
849.328	22413
849.463	22246
849.598	22230
849.734	22158
849.869	22067
850.004	22112
850.14	22147
850.275	21953
850.41	22021
850.545	22006
850.68	21964
850.815	21918
850.95	22044
851.085	22166
851.22	22169
851.355	21960
851.49	22013
851.625	22006
851.76	21991
851.895	21922
852.03	21892
852.165	22013
852.299	22021
852.434	22051
852.569	21994
852.703	22010
852.838	21998
852.973	22036
853.107	22063
853.242	22032
853.376	21880
853.511	21709
853.645	21755
853.78	21987
853.914	21739
854.048	21724
854.183	21808
854.317	21812
854.451	22021
854.585	21781
854.72	21895
854.854	21846
854.988	21724
855.122	21743
855.256	21660
855.39	21816
855.524	21854
855.658	21880
855.792	21793
855.926	21888
856.06	21747
856.194	21854
856.327	21781
856.461	21739
856.595	21690
856.729	21835
856.862	21816
856.996	21751
857.13	21861
857.263	21835
857.397	21892
857.53	21739
857.664	21823
857.797	21759
857.931	21842
858.064	21755
858.197	21880
858.331	21781
858.464	21717
858.597	21660
858.731	21564
858.864	21606
858.997	21709
859.13	21675
859.263	21800
859.396	21743
859.529	21625
859.662	21667
859.795	21663
859.928	21667
860.061	21720
860.194	21857
860.327	21739
860.46	21720
860.592	21869
860.725	21739
860.858	21713
860.99	21682
861.123	21713
861.256	21652
861.388	21682
861.521	22299
861.653	21736
861.786	21477
861.918	21580
862.05	21732
862.183	21785
862.315	21770
862.447	21812
862.58	21686
862.712	21519
862.844	21424
862.976	21420
863.108	21389
863.24	21766
863.372	21389
863.504	21389
863.636	21386
863.768	21557
863.9	21534
864.032	21389
864.164	21313
864.296	21428
864.428	21428
864.559	21488
864.691	21447
864.823	21405
864.954	21378
865.086	21359
865.217	21180
865.349	21272
865.48	21279
865.612	21348
865.743	21367
865.875	21370
866.006	21195
866.137	21264
866.269	21310
866.4	21272
866.531	21336
866.662	21241
866.793	21245
866.924	21150
867.055	21275
867.186	21192
867.317	21093
867.448	21256
867.579	21279
867.71	20971
867.841	21066
867.972	21279
868.103	21138
868.233	21245
868.364	21306
868.495	21313
868.625	21359
868.756	21393
868.886	21370
869.017	21389
869.147	21488
869.278	21507
869.408	21488
869.539	21401
869.669	21492
869.799	21545
869.929	21545
870.06	21466
870.19	21835
870.32	21599
870.45	21698
870.58	21739
870.71	21869
870.84	21915
870.97	21701
871.1	21720
871.23	22010
871.36	21983
871.489	21888
871.619	21907
871.749	21945
871.879	22070
872.008	22139
872.138	22002
872.267	21964
872.397	22006
872.526	21838
872.656	21804
872.785	21774
872.915	22093
873.044	22265
873.173	22017
873.303	22070
873.432	22135
873.561	22078
873.69	22135
873.819	21930
873.948	21937
874.077	22086
874.206	22112
874.335	22139
874.464	22135
874.593	22188
874.722	22109
874.851	22322
874.979	22379
875.108	22337
875.237	22185
875.365	22257
875.494	22284
875.623	22253
875.751	22166
875.88	22329
876.008	22432
876.136	22554
876.265	22641
876.393	22752
876.521	22778
876.65	22683
876.778	22569
876.906	22557
877.034	22603
877.162	22569
877.29	22516
877.418	22729
877.546	22653
877.674	22596
877.802	22557
877.93	22481
878.058	22523
878.185	22565
878.313	22478
878.441	22512
878.568	22424
878.696	22508
878.824	22630
878.951	22607
879.079	22759
879.206	22946
879.333	22786
879.461	22550
879.588	22759
879.715	22687
879.842	22873
879.97	22634
880.097	22440
880.224	22443
880.351	22504
880.478	22417
880.605	22325
880.732	22405
880.859	22637
880.986	22527
881.112	22470
881.239	22280
881.366	22192
881.493	22101
881.619	22063
881.746	22070
881.872	22124
881.999	21964
882.125	22040
882.252	22021
882.378	21979
882.505	22025
882.631	21907
882.757	21789
882.883	21892
883.01	21797
883.136	21663
883.262	21595
883.388	21595
883.514	21736
883.64	21816
883.766	21694
883.892	21511
884.018	21530
884.143	21739
884.269	21675
884.395	21447
884.52	21408
884.646	21370
884.772	21264
884.897	21150
885.023	21393
885.148	21428
885.274	21526
885.399	21382
885.524	21431
885.65	21336
885.775	21325
885.9	21401
886.025	21424
886.15	21397
886.275	21173
886.4	21294
886.525	21249
886.65	21298
886.775	21180
886.9	21408
887.025	21530
887.149	21306
887.274	21169
887.399	21036
887.523	21142
887.648	20967
887.773	20925
887.897	21188
888.021	21173
888.146	20956
888.27	21146
888.395	21298
888.519	21074
888.643	21005
888.767	21154
888.891	20975
889.015	20781
889.139	20960
889.263	20876
889.387	21036
889.511	21028
889.635	21066
889.759	20792
889.883	20746
890.006	20785
890.13	20941
890.254	20705
890.377	20724
890.501	20606
890.624	20526
890.748	20678
890.871	20522
890.995	20427
891.118	20374
891.241	20393
891.364	20545
891.488	20522
891.611	20408
891.734	20503
891.857	20503
891.98	20377
892.103	20389
892.226	20396
892.349	20393
892.471	20263
892.594	20233
892.717	20309
892.839	20278
892.962	20370
893.085	20484
893.207	20294
893.33	20180
893.452	20320
893.575	20366
893.697	20320
893.819	20450
893.941	20499
894.064	20362
894.186	20229
894.308	20244
894.43	20362
894.552	20473
894.674	20301
894.796	20278
894.918	20233
895.04	20294
895.161	20332
895.283	20336
895.405	20267
895.526	20454
895.648	20423
895.769	20263
895.891	20358
896.012	20457
896.134	20317
896.255	20267
896.376	20374
896.498	20400
896.619	20412
896.74	20313
896.861	20533
896.982	20720
897.103	20842
897.224	20579
897.345	20674
897.466	20537
897.587	20670
897.708	20712
897.828	20598
897.949	20522
898.07	20415
898.19	20526
898.311	20632
898.431	20492
898.552	20587
898.672	20575
898.792	20457
898.913	20469
899.033	20408
899.153	20358
899.273	20077
899.393	20172
899.513	20256
899.633	20050
899.753	20161
899.873	20157
899.993	20278
900.113	19970
900.232	20145
900.352	20138
900.472	20130
900.591	19917
900.711	20054
900.83	19970
900.95	20073
901.069	20206
901.189	19860
901.308	19761
901.427	19643
901.546	19643
901.665	19662
901.784	19704
901.904	19312
902.023	19278
902.141	19202
902.26	19004
902.379	19145
902.498	19061
902.617	19053
902.735	19065
902.854	19038
902.973	18928
903.091	18837
903.21	18779
903.328	18738
903.446	18654
903.565	18467
903.683	18620
903.801	18479
903.919	18631
904.038	18448
904.156	18224
904.274	18289
904.392	18353
904.51	18292
904.627	18270
904.745	18304
904.863	18304
904.981	18125
905.098	18019
905.216	17885
905.334	17923
905.451	17927
905.569	17832
905.686	18076
905.803	17942
905.921	17676
906.038	17847
906.155	17760
906.272	17661
906.389	17707
906.506	17501
906.623	17577
906.74	17520
906.857	17334
906.974	17376
907.091	17524
907.208	17547
907.324	17539
907.441	17387
907.557	17269
907.674	17200
907.79	17117
907.907	17102
908.023	17197
908.139	17098
908.256	17170
908.372	17064
908.488	16999
908.604	16904
908.72	16908
908.836	16957
908.952	16858
909.068	16854
909.184	16953
909.3	16892
909.415	16820
909.531	16801
909.647	16531
909.762	16626
909.878	16596
909.993	16664
910.108	16485
910.224	16535
910.339	16565
910.454	16451
910.57	16322
910.685	16272
910.8	16531
910.915	16466
911.03	16371
911.145	16139
911.259	16158
911.374	16124
911.489	16124
911.604	16017
911.718	15911
911.833	15960
911.947	15857
912.062	15648
912.176	16002
912.291	15922
912.405	15918
912.519	16032
912.633	16002
912.748	15846
912.862	15789
912.976	15747
913.09	15603
913.204	15648
913.318	15633
913.431	15743
913.545	15770
913.659	15812
913.772	15606
913.886	15504
914	15458
914.113	15466
914.226	15652
914.34	15469
914.453	15272
914.566	15568
914.68	15424
914.793	15450
914.906	15291
915.019	15112
915.132	14944
915.245	15157
915.358	15100
915.47	15176
915.583	15188
915.696	15142
915.809	15180
915.921	15199
916.034	15100
916.146	15047
916.259	14979
916.371	15093
916.483	15108
916.595	14910
916.708	14937
916.82	14929
916.932	14857
917.044	14937
917.156	14872
917.268	14636
917.38	14720
917.491	14838
917.603	14750
917.715	14796
917.826	14811
917.938	14750
918.049	14590
918.161	14667
918.272	14838
918.384	14830
918.495	14697
918.606	14552
918.717	14518
918.828	14587
918.939	14465
919.05	14446
919.161	14408
919.272	14252
919.383	14408
919.494	14415
919.604	14667
919.715	14381
919.826	14351
919.936	14385
920.047	14461
920.157	14328
920.267	14549
920.378	14507
920.488	14339
920.598	14571
920.708	14746
920.818	14511
920.928	14598
921.038	14731
921.148	14579
921.258	14336
921.368	14252
921.477	14092
921.587	14176
921.697	13963
921.806	14195
921.916	13959
922.025	13898
922.134	13780
922.244	13651
922.353	13868
922.462	13658
922.571	13636
922.68	13441
922.789	13438
922.898	13457
923.007	13381
923.116	13331
923.224	13430
923.333	13362
923.442	13270
923.55	13171
923.659	13225
923.767	13217
923.876	13114
923.984	13202
924.092	13141
924.201	13072
924.309	13194
924.417	13114
924.525	13160
924.633	13038
924.741	13982
924.849	12730
924.956	12913
925.064	12875
925.172	12859
925.279	12825
925.387	12966
925.494	12810
925.602	12996
925.709	12878
925.816	12734
925.924	12764
926.031	12932
926.138	12856
926.245	12776
926.352	12738
926.459	12817
926.566	12814
926.673	12684
926.779	12563
926.886	12563
926.993	12365
927.099	12403
927.206	12357
927.312	12327
927.419	12452
927.525	12452
927.631	12395
927.737	12262
927.843	12247
927.95	12117
928.056	12220
928.162	12224
928.267	12285
928.373	12954
928.479	12338
928.585	12034
928.69	12194
928.796	12182
928.901	12144
929.007	12019
929.112	12041
929.218	12038
929.323	11969
929.428	11977
929.533	12110
929.638	11950
929.743	11912
929.848	11977
929.953	11893
930.058	11863
930.163	11646
930.267	11600
930.372	11722
930.477	11535
930.581	11741
930.685	11714
930.79	11566
930.894	11562
930.998	11436
931.103	11619
931.207	11258
931.311	11174
931.415	11045
931.519	10889
931.623	10866
