Data from test_V78500241_1030.txt Node
Date: Fri Mar 25 15:48:56 CST 2022
User: usil
Spectrometer: V785-0024
Trigger mode: 0
Integration Time (sec): 4.000000E-1
Scans to average: 1
Nonlinearity correction enabled: false
Boxcar width: 0
Storing dark spectrum: false
XAxis mode: Wavelengths
Number of Pixels in Spectrum: 1024
>>>>>Begin Spectral Data<<<<<
801.071	28200
801.214	28063
801.356	27945
801.499	27831
801.641	27804
801.783	27808
801.926	27728
802.068	27686
802.211	27747
802.353	27637
802.496	27405
802.638	27363
802.78	27416
802.923	27272
803.065	27302
803.208	27363
803.35	27416
803.492	27481
803.635	27454
803.777	27443
803.919	27542
804.061	27964
804.204	27652
804.346	27595
804.488	27462
804.63	27431
804.773	27511
804.915	27568
805.057	27656
805.199	27466
805.341	27698
805.483	27679
805.626	27774
805.768	27614
805.91	27686
806.052	27751
806.194	27671
806.336	27895
806.478	27850
806.62	27705
806.762	27842
806.904	27854
807.046	28284
807.188	28120
807.33	28173
807.472	28074
807.614	28097
807.756	28166
807.898	28036
808.04	28013
808.182	27903
808.324	28029
808.465	28048
808.607	28131
808.749	28451
808.891	28554
809.033	28451
809.174	28634
809.316	28371
809.458	28424
809.6	28223
809.741	28588
809.883	28607
810.025	28694
810.166	28729
810.308	28721
810.45	28713
810.591	28550
810.733	28421
810.875	28413
811.016	28314
811.158	28390
811.299	28363
811.441	28512
811.582	28637
811.724	28276
811.865	28443
812.007	28367
812.148	28185
812.29	28379
812.431	28645
812.573	28618
812.714	28763
812.855	28965
812.997	28942
813.138	29174
813.279	29140
813.421	28946
813.562	28691
813.703	28748
813.845	28694
813.986	28360
814.127	28109
814.268	28223
814.41	28082
814.551	28128
814.692	28158
814.833	27968
814.974	27975
815.115	27979
815.256	27884
815.397	28090
815.539	28055
815.68	27698
815.821	27918
815.962	27937
816.103	27907
816.244	27846
816.385	27660
816.526	27724
816.666	27450
816.807	27359
816.948	27492
817.089	27454
817.23	27405
817.371	27443
817.512	27332
817.653	27355
817.793	27313
817.934	27329
818.075	27367
818.216	27386
818.356	27359
818.497	27237
818.638	27127
818.778	27188
818.919	27150
819.06	27093
819.2	27230
819.341	27203
819.481	27397
819.622	27542
819.762	27580
819.903	27755
820.043	27526
820.184	27561
820.324	27656
820.465	27606
820.605	27466
820.746	27564
820.886	27344
821.026	27332
821.167	27511
821.307	27561
821.447	27336
821.588	27272
821.728	27180
821.868	27093
822.008	26895
822.149	26811
822.289	26849
822.429	26492
822.569	26495
822.709	26488
822.849	26351
822.99	26396
823.13	26408
823.27	26313
823.41	26107
823.55	26263
823.69	26199
823.83	26172
823.97	26161
824.11	26157
824.25	25970
824.389	26088
824.529	25978
824.669	26012
824.809	26126
824.949	25978
825.089	25993
825.228	26069
825.368	25894
825.508	25913
825.648	25906
825.787	25871
825.927	25887
826.067	25757
826.206	25989
826.346	26172
826.485	25955
826.625	25807
826.765	25837
826.904	26027
827.044	25769
827.183	25670
827.323	25533
827.462	25693
827.601	25643
827.741	25556
827.88	25609
828.02	25327
828.159	25582
828.298	25544
828.437	25746
828.577	25453
828.716	25696
828.855	25544
828.994	25289
829.134	25255
829.273	25285
829.412	25179
829.551	25381
829.69	25251
829.829	25354
829.968	25396
830.107	25358
830.246	25266
830.385	25194
830.524	25168
830.663	25072
830.802	25038
830.941	25069
831.08	24947
831.219	24973
831.357	25038
831.496	25088
831.635	24985
831.774	24821
831.913	24760
832.051	24707
832.19	24627
832.329	24726
832.467	24578
832.606	24620
832.744	24597
832.883	24521
833.022	24582
833.16	24650
833.299	24665
833.437	24551
833.576	24661
833.714	24604
833.852	24521
833.991	24692
834.129	24669
834.267	24764
834.406	24673
834.544	24620
834.682	24566
834.821	24616
834.959	24745
835.097	24620
835.235	24802
835.373	24616
835.511	24700
835.65	24422
835.788	24532
835.926	24399
836.064	24353
836.202	24281
836.34	24369
836.478	24566
836.615	24437
836.753	24452
836.891	24540
837.029	24521
837.167	24235
837.305	24399
837.443	24194
837.58	24190
837.718	24403
837.856	24266
837.993	24220
838.131	24338
838.269	24133
838.406	24232
838.544	24213
838.681	23958
838.819	23847
838.956	23836
839.094	23843
839.231	23764
839.369	23897
839.506	24110
839.643	24091
839.781	23775
839.918	23615
840.055	23760
840.193	23775
840.33	23783
840.467	23805
840.604	23764
840.742	23859
840.879	23520
841.016	23562
841.153	23695
841.29	23866
841.427	23531
841.564	23866
841.701	23649
841.838	23676
841.975	23554
842.112	23596
842.249	23535
842.385	23490
842.522	23623
842.659	23493
842.796	23383
842.933	23436
843.069	23288
843.206	23318
843.343	23551
843.479	23448
843.616	23436
843.752	23204
843.889	23216
844.025	23258
844.162	23273
844.298	23166
844.435	23117
844.571	23212
844.708	23181
844.844	23269
844.98	23326
845.117	23322
845.253	23033
845.389	23090
845.525	23067
845.661	22946
845.798	22930
845.934	22980
846.07	22869
846.206	23010
846.342	23010
846.478	22995
846.614	22679
846.75	22561
846.886	22527
847.022	22748
847.158	22634
847.294	22554
847.429	22763
847.565	22599
847.701	22961
847.837	22356
847.972	22261
848.108	22470
848.244	22360
848.379	22276
848.515	22333
848.65	22150
848.786	22185
848.921	22265
849.057	22291
849.192	22268
849.328	22207
849.463	22413
849.598	22204
849.734	22112
849.869	22143
850.004	21991
850.14	22006
850.275	22105
850.41	21899
850.545	21945
850.68	21911
850.815	21998
850.95	21941
851.085	22036
851.22	22055
851.355	22078
851.49	21956
851.625	21972
851.76	22032
851.895	21949
852.03	21975
852.165	22048
852.299	22097
852.434	22109
852.569	22010
852.703	21880
852.838	21998
852.973	22246
853.107	22112
853.242	21983
853.376	21895
853.511	21709
853.645	21804
853.78	21926
853.914	21880
854.048	21705
854.183	21876
854.317	21804
854.451	22010
854.585	21819
854.72	21876
854.854	21846
854.988	21663
855.122	21808
855.256	21778
855.39	21819
855.524	21785
855.658	21911
855.792	21930
855.926	21823
856.06	21960
856.194	21797
856.327	21739
856.461	21816
856.595	21728
856.729	21743
856.862	21968
856.996	21873
857.13	21918
857.263	22010
857.397	21918
857.53	21755
857.664	21816
857.797	21915
857.931	21960
858.064	21766
858.197	21937
858.331	21861
858.464	21770
858.597	21663
858.731	21903
858.864	21778
858.997	21736
859.13	21850
859.263	21831
859.396	21945
859.529	21823
859.662	21774
859.795	21835
859.928	21739
860.061	21907
860.194	22051
860.327	21831
860.46	21770
860.592	22002
860.725	21979
860.858	21926
860.99	21857
861.123	21675
861.256	21831
861.388	21854
861.521	22683
861.653	21701
861.786	21652
861.918	21610
862.05	21781
862.183	21797
862.315	21789
862.447	21770
862.58	21739
862.712	21485
862.844	21469
862.976	21424
863.108	21568
863.24	22036
863.372	21553
863.504	21469
863.636	21511
863.768	21629
863.9	21519
864.032	21473
864.164	21329
864.296	21622
864.428	21660
864.559	21561
864.691	21648
864.823	21511
864.954	21500
865.086	21454
865.217	21408
865.349	21382
865.48	21367
865.612	21336
865.743	21576
865.875	21447
866.006	21458
866.137	21416
866.269	21294
866.4	21389
866.531	21321
866.662	21306
866.793	21367
866.924	21275
867.055	21405
867.186	21260
867.317	21374
867.448	21165
867.579	21355
867.71	21302
867.841	21252
867.972	21348
868.103	21336
868.233	21329
868.364	21332
868.495	21507
868.625	21439
868.756	21660
868.886	21583
869.017	21572
869.147	21614
869.278	21736
869.408	21625
869.539	21637
869.669	21717
869.799	21667
869.929	21804
870.06	21732
870.19	21880
870.32	21762
870.45	21907
870.58	21994
870.71	21956
870.84	22067
870.97	21975
871.1	21823
871.23	22090
871.36	22192
871.489	22044
871.619	22128
871.749	22158
871.879	22181
872.008	22356
872.138	22192
872.267	22131
872.397	22082
872.526	21949
872.656	22086
872.785	21930
872.915	22181
873.044	22333
873.173	22303
873.303	22291
873.432	22150
873.561	22200
873.69	22139
873.819	22200
873.948	22204
874.077	22204
874.206	22185
874.335	22188
874.464	22375
874.593	22436
874.722	22367
874.851	22440
874.979	22428
875.108	22424
875.237	22535
875.365	22287
875.494	22322
875.623	22424
875.751	22409
875.88	22417
876.008	22306
876.136	22615
876.265	22854
876.393	23003
876.521	22843
876.65	22873
876.778	22713
876.906	22683
877.034	22645
877.162	22759
877.29	22717
877.418	22752
877.546	22767
877.674	22733
877.802	22767
877.93	22812
878.058	22713
878.185	22660
878.313	22725
878.441	22793
878.568	22622
878.696	22607
878.824	22786
878.951	22816
879.079	22904
879.206	23060
879.333	23060
879.461	22744
879.588	22839
879.715	22946
879.842	23033
879.97	22847
880.097	22584
880.224	22672
880.351	22744
880.478	22596
880.605	22561
880.732	22538
880.859	22725
880.986	22664
881.112	22649
881.239	22390
881.366	22363
881.493	22314
881.619	22234
881.746	22112
881.872	22177
881.999	22192
882.125	22055
882.252	22188
882.378	22154
882.505	22253
882.631	22006
882.757	21907
882.883	22013
883.01	21911
883.136	21736
883.262	21694
883.388	21694
883.514	21884
883.64	21861
883.766	21709
883.892	21587
884.018	21713
884.143	21854
884.269	21892
884.395	21572
884.52	21519
884.646	21401
884.772	21481
884.897	21351
885.023	21591
885.148	21534
885.274	21538
885.399	21542
885.524	21416
885.65	21564
885.775	21443
885.9	21492
886.025	21500
886.15	21408
886.275	21473
886.4	21447
886.525	21389
886.65	21450
886.775	21348
886.9	21622
887.025	21648
887.149	21447
887.274	21348
887.399	21241
887.523	21237
887.648	21199
887.773	21207
887.897	21332
888.021	21203
888.146	21291
888.27	21241
888.395	21268
888.519	21264
888.643	21325
888.767	21272
888.891	21195
889.015	21032
889.139	21047
889.263	21066
889.387	21207
889.511	21332
889.635	21127
889.759	20971
889.883	21009
890.006	21032
890.13	21116
890.254	21032
890.377	20880
890.501	20705
890.624	20705
890.748	20868
890.871	20773
890.995	20530
891.118	20514
891.241	20575
891.364	20632
891.488	20659
891.611	20640
891.734	20564
891.857	20689
891.98	20507
892.103	20632
892.226	20655
892.349	20579
892.471	20419
892.594	20469
892.717	20537
892.839	20511
892.962	20571
893.085	20609
893.207	20533
893.33	20385
893.452	20434
893.575	20556
893.697	20332
893.819	20537
893.941	20712
894.064	20575
894.186	20522
894.308	20530
894.43	20495
894.552	20731
894.674	20571
894.796	20377
894.918	20488
895.04	20442
895.161	20541
895.283	20541
895.405	20560
895.526	20393
895.648	20385
895.769	20396
895.891	20537
896.012	20613
896.134	20651
896.255	20454
896.376	20370
896.498	20511
896.619	20457
896.74	20488
896.861	20556
896.982	20880
897.103	20956
897.224	20762
897.345	20670
897.466	20648
897.587	20663
897.708	20895
897.828	20731
897.949	20686
898.07	20545
898.19	20724
898.311	20705
898.431	20590
898.552	20720
898.672	20705
898.792	20842
898.913	20823
899.033	20530
899.153	20480
899.273	20442
899.393	20419
899.513	20442
899.633	20476
899.753	20457
899.873	20442
899.993	20480
900.113	20495
900.232	20237
900.352	20351
900.472	20275
900.591	20168
900.711	20309
900.83	20240
900.95	20427
901.069	20275
901.189	20164
901.308	19890
901.427	19849
901.546	19826
901.665	19723
901.784	19731
901.904	19616
902.023	19533
902.141	19407
902.26	19400
902.379	19502
902.498	19285
902.617	19217
902.735	19400
902.854	19221
902.973	19293
903.091	19053
903.21	18993
903.328	18966
903.446	18962
903.565	18696
903.683	18787
903.801	18631
903.919	18772
904.038	18608
904.156	18525
904.274	18593
904.392	18540
904.51	18448
904.627	18490
904.745	18650
904.863	18631
904.981	18285
905.098	18182
905.216	18144
905.334	18247
905.451	18171
905.569	18247
905.686	18243
905.803	18144
905.921	17954
906.038	18095
906.155	18064
906.272	17893
906.389	17973
906.506	17710
906.623	17760
906.74	17726
906.857	17608
906.974	17687
907.091	17737
907.208	17847
907.324	17760
907.441	17718
907.557	17490
907.674	17448
907.79	17436
907.907	17429
908.023	17455
908.139	17455
908.256	17444
908.372	17345
908.488	17345
908.604	17162
908.72	17189
908.836	17185
908.952	17094
909.068	17208
909.184	17216
909.3	17143
909.415	17151
909.531	17083
909.647	16953
909.762	16843
909.878	16885
909.993	16934
910.108	16858
910.224	16828
910.339	16725
910.454	16725
910.57	16641
910.685	16664
910.8	16889
910.915	16767
911.03	16634
911.145	16447
911.259	16554
911.374	16478
911.489	16371
911.604	16272
911.718	16158
911.833	16143
911.947	16109
912.062	16017
912.176	16299
912.291	16200
912.405	16234
912.519	16462
912.633	16382
912.748	16284
912.862	16246
912.976	16002
913.09	15892
913.204	15823
913.318	16025
913.431	16082
913.545	16055
913.659	16078
913.772	16013
913.886	15865
914	15789
914.113	15895
914.226	15873
914.34	15819
914.453	15690
914.566	15884
914.68	15755
914.793	15717
914.906	15488
915.019	15485
915.132	15340
915.245	15294
915.358	15477
915.47	15412
915.583	15363
915.696	15431
915.809	15485
915.921	15488
916.034	15287
916.146	15420
916.259	15283
916.371	15370
916.483	15382
916.595	15302
916.708	15226
916.82	15256
916.932	15184
917.044	15218
917.156	15165
917.268	15100
917.38	15043
917.491	14948
917.603	15058
917.715	15142
917.826	15157
917.938	14971
918.049	14941
918.161	15024
918.272	15176
918.384	15104
918.495	14994
918.606	14941
918.717	14842
918.828	14788
918.939	14864
919.05	14678
919.161	14735
919.272	14678
919.383	14659
919.494	14811
919.604	15001
919.715	14815
919.826	14720
919.936	14739
920.047	14819
920.157	14724
920.267	14857
920.378	14800
920.488	14777
920.598	14975
920.708	15020
920.818	14975
920.928	14944
921.038	14994
921.148	14899
921.258	14735
921.368	14636
921.477	14568
921.587	14514
921.697	14313
921.806	14522
921.916	14377
922.025	14199
922.134	14214
922.244	14153
922.353	14164
922.462	14054
922.571	14065
922.68	13803
922.789	13788
922.898	13784
923.007	13677
923.116	13845
923.224	13818
923.333	13708
923.442	13590
923.55	13658
923.659	13700
923.767	13696
923.876	13472
923.984	13651
924.092	13613
924.201	13578
924.309	13472
924.417	13590
924.525	13339
924.633	13403
924.741	14210
924.849	13236
924.956	13327
925.064	13194
925.172	13141
925.279	13221
925.387	13274
925.494	13126
925.602	13324
925.709	13183
925.816	13069
925.924	13118
926.031	13225
926.138	13137
926.245	13168
926.352	13012
926.459	13110
926.566	13168
926.673	12954
926.779	12951
926.886	12973
926.993	12719
927.099	12783
927.206	12635
927.312	12707
927.419	12738
927.525	12764
927.631	12662
927.737	12604
927.843	12574
927.95	12448
928.056	12627
928.162	12551
928.267	12623
928.373	13000
928.479	12646
928.585	12361
928.69	12448
928.796	12540
928.901	12418
929.007	12285
929.112	12418
929.218	12353
929.323	12384
929.428	12251
929.533	12327
929.638	12178
929.743	12232
929.848	12304
929.953	12213
930.058	12144
930.163	11996
930.267	11965
930.372	12060
930.477	11912
930.581	12194
930.685	12019
930.79	11866
930.894	11813
930.998	11832
931.103	12019
931.207	11543
931.311	11509
931.415	11448
931.519	11185
931.623	11193
