Data from test_V78500241_2768.txt Node
Date: Fri Mar 25 16:00:58 CST 2022
User: usil
Spectrometer: V785-0024
Trigger mode: 0
Integration Time (sec): 4.000000E-1
Scans to average: 1
Nonlinearity correction enabled: false
Boxcar width: 0
Storing dark spectrum: false
XAxis mode: Wavelengths
Number of Pixels in Spectrum: 1024
>>>>>Begin Spectral Data<<<<<
801.071	29006
801.214	28923
801.356	28618
801.499	28752
801.641	28653
801.783	28440
801.926	28725
802.068	28645
802.211	28580
802.353	28462
802.496	28375
802.638	28306
802.78	28276
802.923	28242
803.065	28162
803.208	28291
803.35	28310
803.492	28459
803.635	28443
803.777	28451
803.919	28516
804.061	28786
804.204	28607
804.346	28421
804.488	28481
804.63	28478
804.773	28432
804.915	28611
805.057	28683
805.199	28599
805.341	28679
805.483	28535
805.626	28630
805.768	28565
805.91	28797
806.052	28752
806.194	28592
806.336	28866
806.478	28615
806.62	28668
806.762	28790
806.904	28839
807.046	29292
807.188	29242
807.33	29239
807.472	29265
807.614	29136
807.756	29113
807.898	28999
808.04	28957
808.182	28843
808.324	28961
808.465	29060
808.607	29162
808.749	29478
808.891	29448
809.033	29486
809.174	29375
809.316	29421
809.458	29459
809.6	29261
809.741	29573
809.883	29497
810.025	29657
810.166	29653
810.308	29714
810.45	29497
810.591	29570
810.733	29398
810.875	29383
811.016	29162
811.158	29246
811.299	29387
811.441	29516
811.582	29592
811.724	29429
811.865	29497
812.007	29349
812.148	29433
812.29	29433
812.431	29710
812.573	29745
812.714	29988
812.855	30026
812.997	30057
813.138	30205
813.279	29992
813.421	30095
813.562	29893
813.703	29779
813.845	29608
813.986	29398
814.127	29318
814.268	29094
814.41	29178
814.551	28991
814.692	29159
814.833	29029
814.974	29052
815.115	29124
815.256	29041
815.397	29121
815.539	29056
815.68	28866
815.821	28721
815.962	28991
816.103	28896
816.244	28793
816.385	28698
816.526	28626
816.666	28538
816.807	28367
816.948	28512
817.089	28611
817.23	28557
817.371	28478
817.512	28538
817.653	28538
817.793	28375
817.934	28428
818.075	28497
818.216	28470
818.356	28371
818.497	28295
818.638	28265
818.778	28219
818.919	28306
819.06	28261
819.2	28242
819.341	28550
819.481	28417
819.622	28618
819.762	28812
819.903	28809
820.043	28782
820.184	28546
820.324	28474
820.465	28645
820.605	28508
820.746	28713
820.886	28401
821.026	28603
821.167	28443
821.307	28607
821.447	28607
821.588	28447
821.728	28337
821.868	28135
822.008	27941
822.149	27956
822.289	28036
822.429	27812
822.569	27606
822.709	27656
822.849	27401
822.99	27519
823.13	27431
823.27	27435
823.41	27176
823.55	27249
823.69	27340
823.83	27169
823.97	27108
824.11	27062
824.25	27051
824.389	27017
824.529	27089
824.669	27123
824.809	27199
824.949	27241
825.089	27252
825.228	27085
825.368	26990
825.508	26944
825.648	27020
825.787	27119
825.927	27089
826.067	26929
826.206	26994
826.346	27039
826.485	26982
826.625	27017
826.765	26979
826.904	27123
827.044	26819
827.183	26754
827.323	26659
827.462	26708
827.601	26708
827.741	26667
827.88	26705
828.02	26629
828.159	26781
828.298	26823
828.437	26785
828.577	26552
828.716	26724
828.855	26636
828.994	26503
829.134	26526
829.273	26412
829.412	26381
829.551	26415
829.69	26385
829.829	26476
829.968	26400
830.107	26522
830.246	26377
830.385	26400
830.524	26358
830.663	26229
830.802	26153
830.941	25993
831.08	25959
831.219	26126
831.357	26111
831.496	26263
831.635	26020
831.774	25982
831.913	25955
832.051	25837
832.19	25826
832.329	25868
832.467	25715
832.606	25586
832.744	25674
832.883	25731
833.022	25563
833.16	25643
833.299	25624
833.437	25689
833.576	25784
833.714	25811
833.852	25761
833.991	25803
834.129	25883
834.267	25856
834.406	25814
834.544	25734
834.682	25738
834.821	25685
834.959	25898
835.097	25616
835.235	25761
835.373	25696
835.511	25708
835.65	25753
835.788	25476
835.926	25392
836.064	25384
836.202	25369
836.34	25594
836.478	25620
836.615	25616
836.753	25582
836.891	25540
837.029	25731
837.167	25597
837.305	25308
837.443	25525
837.58	25487
837.718	25479
837.856	25392
837.993	25324
838.131	25464
838.269	25266
838.406	25312
838.544	25312
838.681	25107
838.819	24859
838.956	24795
839.094	24863
839.231	24890
839.369	25107
839.506	25240
839.643	25057
839.781	24833
839.918	24844
840.055	24783
840.193	24814
840.33	24844
840.467	24806
840.604	24779
840.742	25031
840.879	24688
841.016	24848
841.153	24661
841.29	24901
841.427	24741
841.564	24760
841.701	24749
841.838	24757
841.975	24711
842.112	24631
842.249	24521
842.385	24528
842.522	24760
842.659	24654
842.796	24395
842.933	24391
843.069	24555
843.206	24372
843.343	24616
843.479	24353
843.616	24574
843.752	24433
843.889	24205
844.025	24399
844.162	24247
844.298	24437
844.435	24232
844.571	24304
844.708	24365
844.844	24467
844.98	24437
845.117	24353
845.253	24129
845.389	23996
845.525	24163
845.661	24072
845.798	24133
845.934	24022
846.07	23999
846.206	23996
846.342	24057
846.478	23931
846.614	23733
846.75	23748
846.886	23726
847.022	23813
847.158	23714
847.294	23710
847.429	23843
847.565	23707
847.701	24083
847.837	23570
847.972	23459
848.108	23566
848.244	23604
848.379	23318
848.515	23330
848.65	23299
848.786	23406
848.921	23296
849.057	23471
849.192	23341
849.328	23421
849.463	23379
849.598	23212
849.734	23239
849.869	23265
850.004	23124
850.14	23083
850.275	23098
850.41	22968
850.545	23113
850.68	23014
850.815	23067
850.95	23006
851.085	23223
851.22	23227
851.355	23166
851.49	23098
851.625	23121
851.76	23113
851.895	22976
852.03	22961
852.165	23174
852.299	23193
852.434	23246
852.569	23147
852.703	23105
852.838	23143
852.973	23250
853.107	23220
853.242	23056
853.376	22949
853.511	22725
853.645	22831
853.78	22949
853.914	23006
854.048	22919
854.183	22877
854.317	23048
854.451	23124
854.585	22930
854.72	23006
854.854	22919
854.988	22793
855.122	22877
855.256	22816
855.39	22869
855.524	23037
855.658	23029
855.792	22877
855.926	22976
856.06	23018
856.194	22953
856.327	22892
856.461	22816
856.595	22831
856.729	22828
856.862	23022
856.996	22938
857.13	22965
857.263	22976
857.397	22968
857.53	22900
857.664	22904
857.797	22930
857.931	23029
858.064	22778
858.197	23022
858.331	22942
858.464	22843
858.597	22748
858.731	22927
858.864	22850
858.997	22786
859.13	22816
859.263	22843
859.396	23022
859.529	22717
859.662	22843
859.795	22816
859.928	22889
860.061	23128
860.194	23067
860.327	22908
860.46	22885
860.592	23048
860.725	23086
860.858	23029
860.99	23022
861.123	22763
861.256	22908
861.388	22984
861.521	23554
861.653	22748
861.786	22592
861.918	22767
862.05	22759
862.183	22862
862.315	22816
862.447	22812
862.58	22763
862.712	22679
862.844	22672
862.976	22603
863.108	22698
863.24	23117
863.372	22630
863.504	22649
863.636	22622
863.768	22702
863.9	22622
864.032	22497
864.164	22615
864.296	22698
864.428	22626
864.559	22752
864.691	22698
864.823	22577
864.954	22584
865.086	22569
865.217	22550
865.349	22466
865.48	22519
865.612	22402
865.743	22626
865.875	22531
866.006	22428
866.137	22424
866.269	22440
866.4	22451
866.531	22398
866.662	22352
866.793	22405
866.924	22516
867.055	22557
867.186	22474
867.317	22493
867.448	22322
867.579	22405
867.71	22314
867.841	22284
867.972	22268
868.103	22344
868.233	22413
868.364	22306
868.495	22573
868.625	22634
868.756	22744
868.886	22622
869.017	22459
869.147	22706
869.278	22820
869.408	22717
869.539	22679
869.669	22668
869.799	22687
869.929	22820
870.06	22713
870.19	22911
870.32	22976
870.45	22999
870.58	22896
870.71	23003
870.84	23124
870.97	23098
871.1	22965
871.23	23273
871.36	23315
871.489	23151
871.619	23124
871.749	23273
871.879	23280
872.008	23402
872.138	23315
872.267	23197
872.397	23174
872.526	23060
872.656	23098
872.785	23022
872.915	23356
873.044	23246
873.173	23250
873.303	23307
873.432	23296
873.561	23330
873.69	23220
873.819	23318
873.948	23239
874.077	23277
874.206	23250
874.335	23280
874.464	23345
874.593	23463
874.722	23402
874.851	23558
874.979	23501
875.108	23497
875.237	23505
875.365	23414
875.494	23417
875.623	23531
875.751	23395
875.88	23520
876.008	23615
876.136	23608
876.265	23775
876.393	24003
876.521	23855
876.65	24022
876.778	23904
876.906	23779
877.034	23897
877.162	23779
877.29	23760
877.418	23866
877.546	23843
877.674	23847
877.802	23733
877.93	23783
878.058	23745
878.185	23752
878.313	23566
878.441	23703
878.568	23634
878.696	23779
878.824	23748
878.951	23866
879.079	24034
879.206	24167
879.333	23965
879.461	23847
879.588	23950
879.715	24049
879.842	24083
879.97	23874
880.097	23653
880.224	23729
880.351	23638
880.478	23543
880.605	23493
880.732	23543
880.859	23798
880.986	23573
881.112	23600
881.239	23471
881.366	23356
881.493	23337
881.619	23170
881.746	23261
881.872	23136
881.999	23250
882.125	23121
882.252	23166
882.378	23159
882.505	23216
882.631	22923
882.757	22805
882.883	22801
883.01	22911
883.136	22812
883.262	22649
883.388	22626
883.514	22793
883.64	22976
883.766	22733
883.892	22565
884.018	22710
884.143	22721
884.269	22873
884.395	22519
884.52	22546
884.646	22508
884.772	22459
884.897	22405
885.023	22599
885.148	22550
885.274	22767
885.399	22470
885.524	22588
885.65	22455
885.775	22569
885.9	22474
886.025	22565
886.15	22481
886.275	22489
886.4	22287
886.525	22341
886.65	22523
886.775	22371
886.9	22413
887.025	22622
887.149	22424
887.274	22421
887.399	22173
887.523	22238
887.648	22196
887.773	22124
887.897	22360
888.021	22318
888.146	22268
888.27	22188
888.395	22242
888.519	22272
888.643	22333
888.767	22276
888.891	22082
889.015	22040
889.139	22143
889.263	22010
889.387	22093
889.511	22219
889.635	22150
889.759	21983
889.883	22048
890.006	21956
890.13	22017
890.254	21941
890.377	21953
890.501	21694
890.624	21690
890.748	21888
890.871	21739
890.995	21568
891.118	21515
891.241	21542
891.364	21511
891.488	21633
891.611	21583
891.734	21519
891.857	21648
891.98	21519
892.103	21542
892.226	21614
892.349	21568
892.471	21401
892.594	21534
892.717	21553
892.839	21500
892.962	21393
893.085	21450
893.207	21435
893.33	21401
893.452	21401
893.575	21462
893.697	21504
893.819	21618
893.941	21568
894.064	21523
894.186	21393
894.308	21310
894.43	21545
894.552	21511
894.674	21526
894.796	21431
894.918	21462
895.04	21370
895.161	21534
895.283	21511
895.405	21214
895.526	21393
895.648	21420
895.769	21325
895.891	21507
896.012	21454
896.134	21526
896.255	21420
896.376	21374
896.498	21530
896.619	21561
896.74	21416
896.861	21504
896.982	21766
897.103	21854
897.224	21694
897.345	21785
897.466	21420
897.587	21679
897.708	21641
897.828	21671
897.949	21523
898.07	21492
898.19	21644
898.311	21648
898.431	21629
898.552	21622
898.672	21652
898.792	21705
898.913	21660
899.033	21382
899.153	21386
899.273	21283
899.393	21275
899.513	21382
899.633	21336
899.753	21291
899.873	21237
899.993	21359
900.113	21188
900.232	21291
900.352	21165
900.472	21066
900.591	21066
900.711	21131
900.83	21165
900.95	21135
901.069	21214
901.189	20971
901.308	20773
901.427	20594
901.546	20674
901.665	20758
901.784	20632
901.904	20518
902.023	20385
902.141	20100
902.26	20157
902.379	20336
902.498	20233
902.617	20221
902.735	20237
902.854	20107
902.973	19993
903.091	19879
903.21	19685
903.328	19811
903.446	19731
903.565	19685
903.683	19559
903.801	19487
903.919	19563
904.038	19540
904.156	19415
904.274	19426
904.392	19358
904.51	19244
904.627	19308
904.745	19388
904.863	19373
904.981	19164
905.098	19171
905.216	19110
905.334	19084
905.451	19122
905.569	18935
905.686	19088
905.803	18939
905.921	18856
906.038	18897
906.155	18764
906.272	18798
906.389	18719
906.506	18536
906.623	18582
906.74	18620
906.857	18441
906.974	18407
907.091	18612
907.208	18620
907.324	18536
907.441	18418
907.557	18186
907.674	18167
907.79	18285
907.907	18201
908.023	18266
908.139	18194
908.256	18159
908.372	18144
908.488	18064
908.604	17942
908.72	17840
908.836	17973
908.952	17878
909.068	18011
909.184	18041
909.3	17961
909.415	18072
909.531	17901
909.647	17672
909.762	17699
909.878	17695
909.993	17695
910.108	17600
910.224	17512
910.339	17665
910.454	17520
910.57	17433
910.685	17315
910.8	17760
910.915	17589
911.03	17444
911.145	17284
911.259	17296
911.374	17273
911.489	17166
911.604	17159
911.718	16984
911.833	16987
911.947	16881
912.062	16866
912.176	17094
912.291	16965
912.405	16900
912.519	17090
912.633	17151
912.748	17018
912.862	16892
912.976	16930
913.09	16687
913.204	16820
913.318	16774
913.431	16847
913.545	16862
913.659	16862
913.772	16748
913.886	16641
914	16573
914.113	16607
914.226	16675
914.34	16637
914.453	16531
914.566	16558
914.68	16405
914.793	16466
914.906	16215
915.019	16124
915.132	16162
915.245	16139
915.358	16093
915.47	16147
915.583	16074
915.696	16196
915.809	16204
915.921	16242
916.034	16029
916.146	16021
916.259	15918
916.371	16059
916.483	16105
916.595	16002
916.708	15918
916.82	15873
916.932	15781
917.044	15808
917.156	15895
917.268	15766
917.38	15774
917.491	15705
917.603	15713
917.715	15793
917.826	15846
917.938	15694
918.049	15610
918.161	15728
918.272	15804
918.384	15838
918.495	15614
918.606	15488
918.717	15428
918.828	15545
918.939	15538
919.05	15424
919.161	15412
919.272	15283
919.383	15279
919.494	15553
919.604	15663
919.715	15397
919.826	15321
919.936	15466
920.047	15496
920.157	15500
920.267	15625
920.378	15344
920.488	15447
920.598	15599
920.708	15770
920.818	15599
920.928	15637
921.038	15762
921.148	15610
921.258	15488
921.368	15214
921.477	15192
921.587	15100
921.697	15047
921.806	15146
921.916	15070
922.025	14746
922.134	14819
922.244	14750
922.353	14815
922.462	14663
922.571	14598
922.68	14533
922.789	14339
922.898	14442
923.007	14412
923.116	14541
923.224	14419
923.333	14396
923.442	14294
923.55	14328
923.659	14172
923.767	14298
923.876	14130
923.984	14275
924.092	14111
924.201	14233
924.309	14100
924.417	14183
924.525	14039
924.633	14134
924.741	14929
924.849	13803
924.956	14039
925.064	13727
925.172	13731
925.279	13776
925.387	13841
925.494	13830
925.602	13898
925.709	13803
925.816	13723
925.924	13719
926.031	13719
926.138	13674
926.245	13765
926.352	13655
926.459	13753
926.566	13879
926.673	13655
926.779	13457
926.886	13476
926.993	13350
927.099	13335
927.206	13247
927.312	13274
927.419	13403
927.525	13278
927.631	13282
927.737	13217
927.843	13126
927.95	13038
928.056	13095
928.162	13110
928.267	13213
928.373	13689
928.479	13266
928.585	13034
928.69	13057
928.796	13084
928.901	12947
929.007	12878
929.112	12939
929.218	12878
929.323	12768
929.428	12779
929.533	12966
929.638	12776
929.743	12837
929.848	12772
929.953	12707
930.058	12711
930.163	12494
930.267	12532
930.372	12597
930.477	12414
930.581	12673
930.685	12490
930.79	12311
930.894	12338
930.998	12357
931.103	12418
931.207	12072
931.311	12133
931.415	11958
931.519	11748
931.623	11703
