Data from test_V78500241_1884.txt Node
Date: Fri Mar 25 15:54:51 CST 2022
User: usil
Spectrometer: V785-0024
Trigger mode: 0
Integration Time (sec): 4.000000E-1
Scans to average: 1
Nonlinearity correction enabled: false
Boxcar width: 0
Storing dark spectrum: false
XAxis mode: Wavelengths
Number of Pixels in Spectrum: 1024
>>>>>Begin Spectral Data<<<<<
801.071	28557
801.214	28641
801.356	28265
801.499	28329
801.641	28173
801.783	27960
801.926	28059
802.068	28200
802.211	28059
802.353	28025
802.496	27880
802.638	27739
802.78	27785
802.923	27781
803.065	27717
803.208	27751
803.35	27808
803.492	27911
803.635	28032
803.777	27934
803.919	28090
804.061	28325
804.204	28048
804.346	27979
804.488	28128
804.63	28051
804.773	27926
804.915	28120
805.057	28158
805.199	28044
805.341	28048
805.483	28246
805.626	28177
805.768	28051
805.91	28196
806.052	28173
806.194	28162
806.336	28295
806.478	28192
806.62	28162
806.762	28318
806.904	28554
807.046	28717
807.188	28656
807.33	28611
807.472	28717
807.614	28691
807.756	28523
807.898	28493
808.04	28409
808.182	28375
808.324	28721
808.465	28660
808.607	28733
808.749	28850
808.891	28984
809.033	28995
809.174	28972
809.316	28919
809.458	28801
809.6	28908
809.741	29006
809.883	29041
810.025	29140
810.166	29220
810.308	29231
810.45	28991
810.591	28987
810.733	29018
810.875	28866
811.016	28759
811.158	28797
811.299	28885
811.441	29121
811.582	28866
811.724	28763
811.865	28843
812.007	28797
812.148	28923
812.29	28831
812.431	29067
812.573	29048
812.714	29398
812.855	29395
812.997	29448
813.138	29615
813.279	29566
813.421	29299
813.562	29360
813.703	29231
813.845	29025
813.986	28843
814.127	28763
814.268	28588
814.41	28531
814.551	28401
814.692	28607
814.833	28531
814.974	28478
815.115	28394
815.256	28554
815.397	28360
815.539	28417
815.68	28375
815.821	28246
815.962	28386
816.103	28341
816.244	28265
816.385	28219
816.526	28101
816.666	27956
816.807	27914
816.948	27911
817.089	28006
817.23	27960
817.371	27838
817.512	27857
817.653	27819
817.793	27762
817.934	27816
818.075	27975
818.216	27846
818.356	27895
818.497	27785
818.638	27473
818.778	27679
818.919	27614
819.06	27823
819.2	27816
819.341	27907
819.481	27914
819.622	27968
819.762	28356
819.903	28143
820.043	28059
820.184	28158
820.324	27975
820.465	28162
820.605	28070
820.746	28074
820.886	27728
821.026	27892
821.167	27945
821.307	27827
821.447	27975
821.588	27816
821.728	27690
821.868	27599
822.008	27412
822.149	27367
822.289	27507
822.429	27154
822.569	27020
822.709	26960
822.849	26872
822.99	26750
823.13	26712
823.27	26674
823.41	26693
823.55	26590
823.69	26594
823.83	26667
823.97	26629
824.11	26518
824.25	26480
824.389	26366
824.529	26476
824.669	26530
824.809	26705
824.949	26648
825.089	26636
825.228	26393
825.368	26427
825.508	26488
825.648	26450
825.787	26442
825.927	26560
826.067	26267
826.206	26438
826.346	26507
826.485	26492
826.625	26469
826.765	26533
826.904	26442
827.044	26240
827.183	26221
827.323	26054
827.462	26202
827.601	26149
827.741	26134
827.88	26039
828.02	26008
828.159	26248
828.298	26046
828.437	26218
828.577	25966
828.716	26248
828.855	26069
828.994	25875
829.134	25757
829.273	25807
829.412	25723
829.551	25799
829.69	25715
829.829	25803
829.968	25864
830.107	25830
830.246	25879
830.385	25693
830.524	25613
830.663	25464
830.802	25563
830.941	25434
831.08	25289
831.219	25578
831.357	25468
831.496	25590
831.635	25346
831.774	25358
831.913	25312
832.051	25266
832.19	25266
832.329	25240
832.467	25088
832.606	25076
832.744	24924
832.883	25038
833.022	25038
833.16	25122
833.299	25080
833.437	25236
833.576	25129
833.714	25137
833.852	25133
833.991	25156
834.129	25194
834.267	25244
834.406	25133
834.544	25129
834.682	25069
834.821	25088
834.959	25278
835.097	24973
835.235	25263
835.373	25008
835.511	25065
835.65	25027
835.788	24992
835.926	24840
836.064	24833
836.202	24810
836.34	25076
836.478	25012
836.615	25046
836.753	24871
836.891	25057
837.029	24897
837.167	24913
837.305	24837
837.443	24787
837.58	24738
837.718	24749
837.856	24878
837.993	24684
838.131	24745
838.269	24741
838.406	24700
838.544	24623
838.681	24521
838.819	24285
838.956	24304
839.094	24155
839.231	24334
839.369	24388
839.506	24681
839.643	24540
839.781	24350
839.918	24171
840.055	24247
840.193	24235
840.33	24266
840.467	24224
840.604	24224
840.742	24353
840.879	24011
841.016	24121
841.153	23988
841.29	24224
841.427	24205
841.564	24114
841.701	24045
841.838	24148
841.975	24068
842.112	24026
842.249	23950
842.385	23851
842.522	24083
842.659	23798
842.796	23863
842.933	23973
843.069	23805
843.206	23931
843.343	24057
843.479	23901
843.616	23878
843.752	23535
843.889	23733
844.025	23836
844.162	23684
844.298	23798
844.435	23748
844.571	23687
844.708	23748
844.844	23863
844.98	23752
845.117	23764
845.253	23589
845.389	23543
845.525	23581
845.661	23509
845.798	23379
845.934	23372
846.07	23410
846.206	23402
846.342	23490
846.478	23296
846.614	23254
846.75	23102
846.886	23025
847.022	23303
847.158	23162
847.294	23079
847.429	23200
847.565	23098
847.701	23474
847.837	22858
847.972	22953
848.108	22934
848.244	22908
848.379	22828
848.515	22854
848.65	22801
848.786	22759
848.921	22611
849.057	22904
849.192	22797
849.328	22812
849.463	22694
849.598	22653
849.734	22508
849.869	22584
850.004	22603
850.14	22481
850.275	22535
850.41	22478
850.545	22386
850.68	22508
850.815	22516
850.95	22554
851.085	22729
851.22	22649
851.355	22485
851.49	22440
851.625	22466
851.76	22341
851.895	22287
852.03	22470
852.165	22474
852.299	22379
852.434	22672
852.569	22607
852.703	22497
852.838	22561
852.973	22599
853.107	22641
853.242	22428
853.376	22325
853.511	22196
853.645	22310
853.78	22360
853.914	22341
854.048	22257
854.183	22310
854.317	22344
854.451	22459
854.585	22230
854.72	22379
854.854	22352
854.988	22211
855.122	22348
855.256	22181
855.39	22363
855.524	22337
855.658	22344
855.792	22284
855.926	22325
856.06	22337
856.194	22348
856.327	22363
856.461	22303
856.595	22181
856.729	22367
856.862	22341
856.996	22329
857.13	22360
857.263	22363
857.397	22360
857.53	22173
857.664	22413
857.797	22390
857.931	22386
858.064	22287
858.197	22405
858.331	22382
858.464	22238
858.597	22185
858.731	22272
858.864	22242
858.997	22253
859.13	22379
859.263	22246
859.396	22443
859.529	22348
859.662	22291
859.795	22310
859.928	22405
860.061	22459
860.194	22519
860.327	22424
860.46	22226
860.592	22443
860.725	22424
860.858	22405
860.99	22310
861.123	22135
861.256	22238
861.388	22147
861.521	23064
861.653	22116
861.786	21991
861.918	22013
862.05	22139
862.183	22101
862.315	22101
862.447	22379
862.58	22154
862.712	22029
862.844	22116
862.976	22101
863.108	22029
863.24	22531
863.372	22048
863.504	21964
863.636	22025
863.768	22051
863.9	21880
864.032	21979
864.164	21960
864.296	22105
864.428	22188
864.559	22067
864.691	22067
864.823	22013
864.954	22120
865.086	21869
865.217	21979
865.349	21926
865.48	22002
865.612	21915
865.743	22017
865.875	21907
866.006	21880
866.137	21903
866.269	21857
866.4	21823
866.531	21709
866.662	21850
866.793	21850
866.924	21922
867.055	21876
867.186	21846
867.317	21819
867.448	21846
867.579	21739
867.71	21857
867.841	21610
867.972	21762
868.103	21755
868.233	21720
868.364	21770
868.495	21953
868.625	22059
868.756	22185
868.886	21998
869.017	22025
869.147	22097
869.278	22124
869.408	22116
869.539	22070
869.669	22109
869.799	21949
869.929	22166
870.06	22295
870.19	22287
870.32	22546
870.45	22440
870.58	22478
870.71	22527
870.84	22557
870.97	22394
871.1	22489
871.23	22622
871.36	22611
871.489	22451
871.619	22668
871.749	22740
871.879	22618
872.008	22713
872.138	22607
872.267	22675
872.397	22493
872.526	22512
872.656	22535
872.785	22493
872.915	22733
873.044	22660
873.173	22679
873.303	22675
873.432	22858
873.561	22782
873.69	22733
873.819	22607
873.948	22774
874.077	22698
874.206	22733
874.335	22538
874.464	22809
874.593	22869
874.722	22847
874.851	23010
874.979	22835
875.108	22866
875.237	22877
875.365	22820
875.494	22767
875.623	22869
875.751	22873
875.88	22869
876.008	23083
876.136	23060
876.265	23208
876.393	23330
876.521	23280
876.65	23387
876.778	23376
876.906	23204
877.034	23258
877.162	23341
877.29	23181
877.418	23311
877.546	23212
877.674	23269
877.802	23277
877.93	23216
878.058	23098
878.185	23117
878.313	23254
878.441	23197
878.568	23018
878.696	23204
878.824	23174
878.951	23303
879.079	23398
879.206	23547
879.333	23349
879.461	23429
879.588	23368
879.715	23395
879.842	23512
879.97	23330
880.097	23102
880.224	23025
880.351	23090
880.478	23083
880.605	22881
880.732	23052
880.859	23212
880.986	23060
881.112	23102
881.239	22911
881.366	22847
881.493	22763
881.619	22519
881.746	22611
881.872	22672
881.999	22550
882.125	22485
882.252	22683
882.378	22542
882.505	22691
882.631	22428
882.757	22379
882.883	22363
883.01	22409
883.136	22303
883.262	22139
883.388	22093
883.514	22253
883.64	22268
883.766	22204
883.892	22173
884.018	22219
884.143	22284
884.269	22405
884.395	22063
884.52	21926
884.646	21907
884.772	21793
884.897	21739
885.023	21895
885.148	22036
885.274	22040
885.399	21895
885.524	21922
885.65	21895
885.775	21949
885.9	21960
886.025	22063
886.15	22006
886.275	21724
886.4	21800
886.525	21903
886.65	21724
886.775	21922
886.9	22021
887.025	22128
887.149	21865
887.274	21694
887.399	21781
887.523	21648
887.648	21534
887.773	21496
887.897	21603
888.021	21842
888.146	21667
888.27	21720
888.395	21842
888.519	21747
888.643	21717
888.767	21709
888.891	21686
889.015	21496
889.139	21523
889.263	21443
889.387	21671
889.511	21759
889.635	21572
889.759	21542
889.883	21405
890.006	21534
890.13	21595
890.254	21485
890.377	21389
890.501	21264
890.624	21218
890.748	21374
890.871	21146
890.995	21074
891.118	20998
891.241	21093
891.364	21089
891.488	21146
891.611	21036
891.734	21017
891.857	21249
891.98	21127
892.103	20990
892.226	21146
892.349	21032
892.471	20777
892.594	21024
892.717	21058
892.839	20979
892.962	20948
893.085	20994
893.207	20937
893.33	20899
893.452	20845
893.575	20883
893.697	20956
893.819	21081
893.941	21180
894.064	21108
894.186	20918
894.308	20895
894.43	20979
894.552	20982
894.674	20994
894.796	20868
894.918	20872
895.04	20819
895.161	21131
895.283	20842
895.405	20872
895.526	20891
895.648	20876
895.769	20967
895.891	20967
896.012	21093
896.134	21039
896.255	21032
896.376	20944
896.498	20868
896.619	20944
896.74	21070
896.861	21009
896.982	21332
897.103	21393
897.224	21089
897.345	21096
897.466	21135
897.587	21173
897.708	21195
897.828	21131
897.949	21131
898.07	21032
898.19	21218
898.311	21123
898.431	21074
898.552	21169
898.672	21127
898.792	21226
898.913	21195
899.033	21093
899.153	20880
899.273	20811
899.393	20838
899.513	20925
899.633	20929
899.753	20796
899.873	20800
899.993	20937
900.113	20750
900.232	20830
900.352	20727
900.472	20678
900.591	20621
900.711	20693
900.83	20594
900.95	20697
901.069	20765
901.189	20415
901.308	20298
901.427	20115
901.546	20244
901.665	20218
901.784	20199
901.904	20119
902.023	20024
902.141	19868
902.26	19780
902.379	19856
902.498	19795
902.617	19708
902.735	19696
902.854	19635
902.973	19635
903.091	19556
903.21	19430
903.328	19396
903.446	19320
903.565	19145
903.683	19137
903.801	19072
903.919	19209
904.038	19179
904.156	19031
904.274	18993
904.392	18977
904.51	18905
904.627	18852
904.745	18985
904.863	19012
904.981	18935
905.098	18627
905.216	18540
905.334	18566
905.451	18498
905.569	18642
905.686	18540
905.803	18658
905.921	18445
906.038	18429
906.155	18365
906.272	18266
906.389	18292
906.506	18136
906.623	18098
906.74	18079
906.857	17935
906.974	17969
907.091	18133
907.208	18194
907.324	18144
907.441	18144
907.557	17855
907.674	17824
907.79	17805
907.907	17836
908.023	17870
908.139	17802
908.256	17775
908.372	17783
908.488	17726
908.604	17634
908.72	17478
908.836	17615
908.952	17482
909.068	17627
909.184	17695
909.3	17509
909.415	17615
909.531	17585
909.647	17280
909.762	17307
909.878	17197
909.993	17280
910.108	17322
910.224	17296
910.339	17254
910.454	17098
910.57	17098
910.685	17041
910.8	17330
910.915	17208
911.03	16984
911.145	16938
911.259	16816
911.374	16858
911.489	16733
911.604	16641
911.718	16542
911.833	16630
911.947	16432
912.062	16489
912.176	16630
912.291	16558
912.405	16611
912.519	16668
912.633	16740
912.748	16675
912.862	16561
912.976	16360
913.09	16329
913.204	16348
913.318	16379
913.431	16409
913.545	16440
913.659	16550
913.772	16352
913.886	16333
914	16280
914.113	16367
914.226	16386
914.34	16238
914.453	15983
914.566	16200
914.68	16040
914.793	16051
914.906	15907
915.019	15747
915.132	15751
915.245	15663
915.358	15861
915.47	15823
915.583	15816
915.696	15816
915.809	15827
915.921	15865
916.034	15694
916.146	15675
916.259	15698
916.371	15671
916.483	15743
916.595	15603
916.708	15542
916.82	15542
916.932	15561
917.044	15481
917.156	15439
917.268	15367
917.38	15462
917.491	15542
917.603	15439
917.715	15405
917.826	15469
917.938	15374
918.049	15294
918.161	15279
918.272	15397
918.384	15447
918.495	15287
918.606	15252
918.717	15058
918.828	15127
918.939	15146
919.05	15066
919.161	15081
919.272	14910
919.383	15013
919.494	15051
919.604	15355
919.715	15032
919.826	14967
919.936	15074
920.047	15150
920.157	15157
920.267	15249
920.378	15116
920.488	15013
920.598	15256
920.708	15363
920.818	15195
920.928	15313
921.038	15435
921.148	15405
921.258	14990
921.368	14960
921.477	14895
921.587	14773
921.697	14693
921.806	14792
921.916	14651
922.025	14537
922.134	14465
922.244	14336
922.353	14514
922.462	14309
922.571	14244
922.68	14229
922.789	14043
922.898	13974
923.007	13970
923.116	14111
923.224	14077
923.333	14103
923.442	13936
923.55	13978
923.659	13898
923.767	13936
923.876	13955
923.984	13928
924.092	13761
924.201	13780
924.309	13852
924.417	13814
924.525	13715
924.633	13791
924.741	14514
924.849	13457
924.956	13685
925.064	13548
925.172	13384
925.279	13426
925.387	13483
925.494	13514
925.602	13586
925.709	13533
925.816	13331
925.924	13434
926.031	13472
926.138	13377
926.245	13415
926.352	13331
926.459	13396
926.566	13464
926.673	13346
926.779	13282
926.886	13228
926.993	13103
927.099	12989
927.206	13042
927.312	12970
927.419	13129
927.525	12981
927.631	13004
927.737	12958
927.843	12973
927.95	12757
928.056	12848
928.162	12738
928.267	12894
928.373	13476
928.479	12920
928.585	12677
928.69	12734
928.796	12882
928.901	12700
929.007	12574
929.112	12722
929.218	12662
929.323	12627
929.428	12502
929.533	12639
929.638	12467
929.743	12490
929.848	12525
929.953	12525
930.058	12441
930.163	12213
930.267	12277
930.372	12414
930.477	12155
930.581	12384
930.685	12228
930.79	12125
930.894	12171
930.998	12098
931.103	12133
931.207	11824
931.311	11741
931.415	11627
931.519	11490
931.623	11398
