Data from test_V78500241_934.txt Node
Date: Fri Mar 25 15:48:16 CST 2022
User: usil
Spectrometer: V785-0024
Trigger mode: 0
Integration Time (sec): 4.000000E-1
Scans to average: 1
Nonlinearity correction enabled: false
Boxcar width: 0
Storing dark spectrum: false
XAxis mode: Wavelengths
Number of Pixels in Spectrum: 1024
>>>>>Begin Spectral Data<<<<<
801.071	28531
801.214	28455
801.356	28268
801.499	28158
801.641	28086
801.783	27968
801.926	27903
802.068	28124
802.211	28006
802.353	28143
802.496	27781
802.638	27698
802.78	27819
802.923	27850
803.065	27682
803.208	27717
803.35	27846
803.492	27838
803.635	27861
803.777	27819
803.919	27945
804.061	28401
804.204	28017
804.346	27907
804.488	27850
804.63	27998
804.773	27926
804.915	27888
805.057	28109
805.199	28036
805.341	28032
805.483	28013
805.626	28070
805.768	28021
805.91	28105
806.052	28097
806.194	28010
806.336	28280
806.478	28181
806.62	28147
806.762	28272
806.904	28382
807.046	28653
807.188	28630
807.33	28523
807.472	28679
807.614	28561
807.756	28485
807.898	28432
808.04	28287
808.182	28386
808.324	28554
808.465	28512
808.607	28744
808.749	28873
808.891	28828
809.033	28892
809.174	28873
809.316	28725
809.458	28873
809.6	28820
809.741	29022
809.883	28949
810.025	29159
810.166	29159
810.308	29200
810.45	29067
810.591	29025
810.733	28888
810.875	28881
811.016	28691
811.158	28752
811.299	29064
811.441	29025
811.582	29067
811.724	28908
811.865	28885
812.007	28923
812.148	28854
812.29	28824
812.431	28938
812.573	29094
812.714	29227
812.855	29330
812.997	29311
813.138	29501
813.279	29589
813.421	29444
813.562	29307
813.703	29140
813.845	29102
813.986	28904
814.127	28694
814.268	28512
814.41	28542
814.551	28577
814.692	28592
814.833	28500
814.974	28573
815.115	28599
815.256	28577
815.397	28466
815.539	28493
815.68	28443
815.821	28211
815.962	28306
816.103	28401
816.244	28337
816.385	28268
816.526	28116
816.666	28032
816.807	27884
816.948	27873
817.089	27991
817.23	27983
817.371	27857
817.512	27823
817.653	27926
817.793	27846
817.934	27869
818.075	27819
818.216	27899
818.356	27865
818.497	27675
818.638	27713
818.778	27534
818.919	27572
819.06	27675
819.2	27778
819.341	27899
819.481	27850
819.622	28135
819.762	28166
819.903	28139
820.043	28093
820.184	27899
820.324	28032
820.465	28150
820.605	27926
820.746	28006
820.886	27778
821.026	28120
821.167	27914
821.307	28032
821.447	27838
821.588	27789
821.728	27785
821.868	27675
822.008	27382
822.149	27226
822.289	27321
822.429	27214
822.569	26990
822.709	27074
822.849	26883
822.99	26952
823.13	26823
823.27	26788
823.41	26655
823.55	26537
823.69	26697
823.83	26686
823.97	26746
824.11	26503
824.25	26442
824.389	26541
824.529	26488
824.669	26465
824.809	26541
824.949	26644
825.089	26625
825.228	26412
825.368	26343
825.508	26229
825.648	26389
825.787	26499
825.927	26377
826.067	26442
826.206	26503
826.346	26438
826.485	26423
826.625	26275
826.765	26598
826.904	26457
827.044	26149
827.183	26153
827.323	26157
827.462	26107
827.601	26164
827.741	25970
827.88	26138
828.02	26073
828.159	26096
828.298	26054
828.437	26206
828.577	26050
828.716	26183
828.855	26005
828.994	25757
829.134	25898
829.273	25841
829.412	25830
829.551	25666
829.69	25757
829.829	25856
829.968	25902
830.107	25947
830.246	25917
830.385	25780
830.524	25689
830.663	25586
830.802	25590
830.941	25335
831.08	25335
831.219	25518
831.357	25400
831.496	25552
831.635	25426
831.774	25308
831.913	25346
832.051	25259
832.19	25133
832.329	25217
832.467	25251
832.606	25061
832.744	24970
832.883	25012
833.022	25050
833.16	25095
833.299	25065
833.437	25187
833.576	25171
833.714	25141
833.852	25164
833.991	25251
834.129	25103
834.267	25255
834.406	25137
834.544	25263
834.682	25232
834.821	25194
834.959	25198
835.097	25266
835.235	25164
835.373	25141
835.511	24985
835.65	25019
835.788	25076
835.926	24886
836.064	24642
836.202	24878
836.34	24981
836.478	25091
836.615	25031
836.753	25000
836.891	25065
837.029	24943
837.167	24886
837.305	24768
837.443	24722
837.58	24840
837.718	24897
837.856	24772
837.993	24745
838.131	24764
838.269	24719
838.406	24650
838.544	24570
838.681	24429
838.819	24467
838.956	24114
839.094	24281
839.231	24319
839.369	24334
839.506	24555
839.643	24654
839.781	24270
839.918	24171
840.055	24254
840.193	24224
840.33	24114
840.467	24133
840.604	24277
840.742	24479
840.879	24095
841.016	24034
841.153	23988
841.29	24194
841.427	24171
841.564	24247
841.701	24251
841.838	23992
841.975	24060
842.112	24003
842.249	23961
842.385	23908
842.522	24224
842.659	23946
842.796	23954
842.933	23840
843.069	23901
843.206	23843
843.343	24049
843.479	23912
843.616	23824
843.752	23775
843.889	23710
844.025	23866
844.162	23661
844.298	23699
844.435	23687
844.571	23691
844.708	23745
844.844	23939
844.98	23687
845.117	23798
845.253	23528
845.389	23543
845.525	23463
845.661	23516
845.798	23368
845.934	23467
846.07	23277
846.206	23486
846.342	23436
846.478	23425
846.614	23132
846.75	23067
846.886	23200
847.022	23269
847.158	23231
847.294	23273
847.429	23250
847.565	23140
847.701	23307
847.837	22835
847.972	22908
848.108	22908
848.244	22987
848.379	22820
848.515	22668
848.65	22706
848.786	22805
848.921	22538
849.057	22733
849.192	22839
849.328	22805
849.463	22866
849.598	22622
849.734	22561
849.869	22660
850.004	22519
850.14	22569
850.275	22489
850.41	22516
850.545	22310
850.68	22356
850.815	22478
850.95	22523
851.085	22710
851.22	22615
851.355	22550
851.49	22538
851.625	22493
851.76	22424
851.895	22451
852.03	22310
852.165	22421
852.299	22409
852.434	22516
852.569	22485
852.703	22519
852.838	22660
852.973	22580
853.107	22569
853.242	22485
853.376	22382
853.511	22150
853.645	22402
853.78	22428
853.914	22253
854.048	22150
854.183	22246
854.317	22242
854.451	22455
854.585	22382
854.72	22261
854.854	22318
854.988	22287
855.122	22192
855.256	22067
855.39	22226
855.524	22352
855.658	22352
855.792	22386
855.926	22367
856.06	22360
856.194	22265
856.327	22402
856.461	22333
856.595	22253
856.729	22303
856.862	22295
856.996	22257
857.13	22421
857.263	22451
857.397	22344
857.53	22272
857.664	22386
857.797	22272
857.931	22462
858.064	22379
858.197	22421
858.331	22310
858.464	22223
858.597	22139
858.731	22291
858.864	22261
858.997	22276
859.13	22265
859.263	22188
859.396	22242
859.529	22303
859.662	22139
859.795	22272
859.928	22424
860.061	22531
860.194	22493
860.327	22230
860.46	22314
860.592	22424
860.725	22497
860.858	22386
860.99	22261
861.123	22303
861.256	22242
861.388	22360
861.521	22908
861.653	22207
861.786	22196
861.918	22063
862.05	22169
862.183	22177
862.315	22226
862.447	22314
862.58	22234
862.712	22078
862.844	22067
862.976	22124
863.108	22040
863.24	22485
863.372	21926
863.504	22059
863.636	21998
863.768	22086
863.9	21945
864.032	22040
864.164	22010
864.296	21945
864.428	22055
864.559	22124
864.691	22116
864.823	22013
864.954	21975
865.086	22048
865.217	21899
865.349	21854
865.48	21835
865.612	22017
865.743	21994
865.875	21903
866.006	21934
866.137	21797
866.269	21865
866.4	21857
866.531	21956
866.662	21690
866.793	21857
866.924	21831
867.055	21793
867.186	21907
867.317	21781
867.448	21701
867.579	21751
867.71	21724
867.841	21762
867.972	21899
868.103	21861
868.233	21812
868.364	21873
868.495	22013
868.625	21983
868.756	22246
868.886	22010
869.017	22131
869.147	22070
869.278	22105
869.408	22093
869.539	22032
869.669	22055
869.799	22166
869.929	22249
870.06	22166
870.19	22402
870.32	22432
870.45	22508
870.58	22394
870.71	22481
870.84	22535
870.97	22675
871.1	22504
871.23	22733
871.36	22687
871.489	22489
871.619	22660
871.749	22569
871.879	22774
872.008	22733
872.138	22748
872.267	22698
872.397	22588
872.526	22493
872.656	22508
872.785	22493
872.915	22668
873.044	22748
873.173	22687
873.303	22752
873.432	22767
873.561	22782
873.69	22790
873.819	22523
873.948	22748
874.077	22717
874.206	22645
874.335	22637
874.464	22790
874.593	22885
874.722	22885
874.851	22923
874.979	22919
875.108	22896
875.237	22946
875.365	22915
875.494	22793
875.623	23029
875.751	22953
875.88	22908
876.008	23094
876.136	23113
876.265	23220
876.393	23402
876.521	23273
876.65	23368
876.778	23280
876.906	23227
877.034	23288
877.162	23159
877.29	23239
877.418	23265
877.546	23356
877.674	23227
877.802	23197
877.93	23208
878.058	23280
878.185	23083
878.313	23189
878.441	23185
878.568	23170
878.696	23235
878.824	23170
878.951	23246
879.079	23398
879.206	23573
879.333	23429
879.461	23322
879.588	23402
879.715	23410
879.842	23448
879.97	23395
880.097	22995
880.224	22949
880.351	23170
880.478	23044
880.605	22987
880.732	23033
880.859	23178
880.986	23048
881.112	23090
881.239	22968
881.366	22767
881.493	22801
881.619	22645
881.746	22588
881.872	22668
881.999	22675
882.125	22413
882.252	22474
882.378	22710
882.505	22801
882.631	22641
882.757	22287
882.883	22386
883.01	22226
883.136	22318
883.262	22192
883.388	22223
883.514	22356
883.64	22306
883.766	22234
883.892	22055
884.018	21934
884.143	22173
884.269	22341
884.395	22002
884.52	21934
884.646	21972
884.772	21869
884.897	21831
885.023	21770
885.148	22051
885.274	22097
885.399	22109
885.524	21911
885.65	21998
885.775	22017
885.9	21865
886.025	22002
886.15	22067
886.275	21812
886.4	21850
886.525	21865
886.65	21865
886.775	21922
886.9	22040
887.025	22204
887.149	21850
887.274	21648
887.399	21705
887.523	21789
887.648	21701
887.773	21610
887.897	21854
888.021	21713
888.146	21663
888.27	21781
888.395	21781
888.519	21701
888.643	21705
888.767	21804
888.891	21576
889.015	21488
889.139	21542
889.263	21466
889.387	21652
889.511	21641
889.635	21667
889.759	21656
889.883	21447
890.006	21523
890.13	21622
890.254	21416
890.377	21401
890.501	21279
890.624	21180
890.748	21302
890.871	21119
890.995	21062
891.118	20963
891.241	21009
891.364	21009
891.488	21169
891.611	20956
891.734	21062
891.857	21039
891.98	21100
892.103	21116
892.226	21024
892.349	20971
892.471	20773
892.594	21096
892.717	20952
892.839	20891
892.962	20902
893.085	21017
893.207	21066
893.33	20792
893.452	20921
893.575	21089
893.697	21020
893.819	20937
893.941	21135
894.064	21116
894.186	20918
894.308	20853
894.43	20960
894.552	21230
894.674	20914
894.796	20910
894.918	20842
895.04	20929
895.161	20925
895.283	20823
895.405	20853
895.526	20906
895.648	20765
895.769	20956
895.891	20986
896.012	21028
896.134	21001
896.255	20990
896.376	20921
896.498	20845
896.619	20891
896.74	20883
896.861	21062
896.982	21275
897.103	21359
897.224	21085
897.345	21165
897.466	21131
897.587	21066
897.708	21211
897.828	21142
897.949	21074
898.07	20929
898.19	20998
898.311	21169
898.431	21032
898.552	21123
898.672	21226
898.792	21112
898.913	21066
899.033	21001
899.153	20899
899.273	20769
899.393	20895
899.513	20823
899.633	20925
899.753	20899
899.873	20788
899.993	20727
900.113	20857
900.232	20849
900.352	20830
900.472	20670
900.591	20629
900.711	20549
900.83	20606
900.95	20731
901.069	20724
901.189	20526
901.308	20305
901.427	20256
901.546	20187
901.665	20130
901.784	20157
901.904	20046
902.023	20024
902.141	19761
902.26	19696
902.379	19788
902.498	19643
902.617	19689
902.735	19708
902.854	19628
902.973	19597
903.091	19285
903.21	19514
903.328	19426
903.446	19274
903.565	19141
903.683	19091
903.801	19133
903.919	19190
904.038	19095
904.156	18977
904.274	19050
904.392	18806
904.51	18901
904.627	18795
904.745	18909
904.863	18981
904.981	18753
905.098	18578
905.216	18502
905.334	18559
905.451	18658
905.569	18665
905.686	18700
905.803	18448
905.921	18429
906.038	18517
906.155	18452
906.272	18391
906.389	18289
906.506	18110
906.623	18144
906.74	18087
906.857	18022
906.974	18144
907.091	18247
907.208	18213
907.324	18159
907.441	18121
907.557	17893
907.674	17802
907.79	17855
907.907	17737
908.023	17737
908.139	17794
908.256	17794
908.372	17638
908.488	17668
908.604	17539
908.72	17558
908.836	17611
908.952	17505
909.068	17570
909.184	17596
909.3	17452
909.415	17642
909.531	17535
909.647	17288
909.762	17223
909.878	17288
909.993	17174
910.108	17273
910.224	17140
910.339	17178
910.454	17075
910.57	17010
910.685	16839
910.8	17189
910.915	17143
911.03	17052
911.145	16862
911.259	16820
911.374	16892
911.489	16706
911.604	16660
911.718	16592
911.833	16561
911.947	16485
912.062	16405
912.176	16618
912.291	16561
912.405	16489
912.519	16858
912.633	16740
912.748	16531
912.862	16504
912.976	16375
913.09	16375
913.204	16299
913.318	16424
913.431	16409
913.545	16443
913.659	16371
913.772	16226
913.886	16196
914	16223
914.113	16207
914.226	16337
914.34	16276
914.453	16086
914.566	16120
914.68	15994
914.793	15975
914.906	15903
915.019	15713
915.132	15698
915.245	15633
915.358	15766
915.47	15766
915.583	15766
915.696	15701
915.809	15812
915.921	15941
916.034	15751
916.146	15584
916.259	15656
916.371	15770
916.483	15728
916.595	15549
916.708	15496
916.82	15641
916.932	15576
917.044	15530
917.156	15397
917.268	15458
917.38	15408
917.491	15389
917.603	15405
917.715	15462
917.826	15450
917.938	15245
918.049	15176
918.161	15233
918.272	15481
918.384	15466
918.495	15226
918.606	15161
918.717	15100
918.828	15112
918.939	15161
919.05	15085
919.161	15116
919.272	14872
919.383	14921
919.494	15074
919.604	15306
919.715	15055
919.826	14990
919.936	14998
920.047	15184
920.157	15116
920.267	15275
920.378	15047
920.488	15070
920.598	15176
920.708	15374
920.818	15192
920.928	15233
921.038	15462
921.148	15287
921.258	15032
921.368	14864
921.477	14773
921.587	14724
921.697	14712
921.806	14887
921.916	14613
922.025	14438
922.134	14446
922.244	14393
922.353	14446
922.462	14351
922.571	14256
922.68	14065
922.789	14039
922.898	14058
923.007	13951
923.116	14107
923.224	14031
923.333	13982
923.442	13932
923.55	13913
923.659	13909
923.767	13902
923.876	13830
923.984	13906
924.092	13909
924.201	13738
924.309	13830
924.417	13864
924.525	13750
924.633	13750
924.741	14602
924.849	13529
924.956	13666
925.064	13514
925.172	13415
925.279	13499
925.387	13480
925.494	13483
925.602	13571
925.709	13483
925.816	13407
925.924	13377
926.031	13449
926.138	13415
926.245	13384
926.352	13285
926.459	13457
926.566	13449
926.673	13217
926.779	13217
926.886	13137
926.993	13057
927.099	12905
927.206	12901
927.312	12935
927.419	12977
927.525	13000
927.631	13012
927.737	12856
927.843	12837
927.95	12795
928.056	12753
928.162	12757
928.267	12981
928.373	13362
928.479	12878
928.585	12612
928.69	12722
928.796	12798
928.901	12722
929.007	12517
929.112	12654
929.218	12642
929.323	12570
929.428	12563
929.533	12734
929.638	12464
929.743	12460
929.848	12616
929.953	12506
930.058	12422
930.163	12155
930.267	12205
930.372	12361
930.477	12213
930.581	12445
930.685	12273
930.79	12175
930.894	12129
930.998	12098
931.103	12213
931.207	11870
931.311	11771
931.415	11714
931.519	11444
931.623	11417
