Data from test_V78500241_352.txt Node
Date: Fri Mar 25 15:44:14 CST 2022
User: usil
Spectrometer: V785-0024
Trigger mode: 0
Integration Time (sec): 4.000000E-1
Scans to average: 1
Nonlinearity correction enabled: false
Boxcar width: 0
Storing dark spectrum: false
XAxis mode: Wavelengths
Number of Pixels in Spectrum: 1024
>>>>>Begin Spectral Data<<<<<
801.071	29836
801.214	29707
801.356	29592
801.499	29509
801.641	29490
801.783	29516
801.926	29611
802.068	29448
802.211	29349
802.353	29296
802.496	29151
802.638	29094
802.78	29018
802.923	29025
803.065	29147
803.208	29105
803.35	29162
803.492	29200
803.635	29143
803.777	29140
803.919	29189
804.061	29657
804.204	29200
804.346	29349
804.488	29181
804.63	29258
804.773	29056
804.915	29166
805.057	29410
805.199	29185
805.341	29345
805.483	29330
805.626	29349
805.768	29277
805.91	29402
806.052	29307
806.194	29223
806.336	29558
806.478	29452
806.62	29246
806.762	29486
806.904	29653
807.046	29942
807.188	29840
807.33	29741
807.472	29817
807.614	29691
807.756	29783
807.898	29676
808.04	29657
808.182	29589
808.324	29729
808.465	29668
808.607	30022
808.749	30140
808.891	30144
809.033	30258
809.174	30038
809.316	30038
809.458	30197
809.6	30091
809.741	30152
809.883	30194
810.025	30300
810.166	30380
810.308	30486
810.45	30456
810.591	30224
810.733	30247
810.875	29958
811.016	30018
811.158	30030
811.299	30266
811.441	30239
811.582	30235
811.724	30049
811.865	30106
812.007	30144
812.148	30110
812.29	30110
812.431	30224
812.573	30505
812.714	30540
812.855	30707
812.997	30711
813.138	30867
813.279	30745
813.421	30528
813.562	30578
813.703	30376
813.845	30190
813.986	29927
814.127	29901
814.268	29718
814.41	29737
814.551	29684
814.692	29828
814.833	29756
814.974	29783
815.115	29783
815.256	29444
815.397	29623
815.539	29600
815.68	29467
815.821	29391
815.962	29554
816.103	29463
816.244	29318
816.385	29356
816.526	29254
816.666	29067
816.807	28881
816.948	29098
817.089	29159
817.23	28957
817.371	29071
817.512	28949
817.653	28892
817.793	29044
817.934	28961
818.075	28984
818.216	28987
818.356	28946
818.497	28797
818.638	28812
818.778	28812
818.919	28691
819.06	28710
819.2	28866
819.341	28919
819.481	29041
819.622	29147
819.762	29284
819.903	29197
820.043	29056
820.184	29044
820.324	28961
820.465	29109
820.605	29204
820.746	29006
820.886	28934
821.026	29094
821.167	28987
821.307	29083
821.447	28797
821.588	28828
821.728	28843
821.868	28599
822.008	28424
822.149	28306
822.289	28280
822.429	28150
822.569	28086
822.709	28074
822.849	27739
822.99	27850
823.13	27671
823.27	27747
823.41	27671
823.55	27473
823.69	27553
823.83	27663
823.97	27538
824.11	27401
824.25	27427
824.389	27625
824.529	27553
824.669	27564
824.809	27523
824.949	27595
825.089	27591
825.228	27530
825.368	27321
825.508	27317
825.648	27389
825.787	27424
825.927	27355
826.067	27466
826.206	27405
826.346	27386
826.485	27420
826.625	27317
826.765	27435
826.904	27355
827.044	27135
827.183	27081
827.323	27032
827.462	27127
827.601	27032
827.741	27051
827.88	27104
828.02	26883
828.159	27032
828.298	27009
828.437	27070
828.577	26921
828.716	27077
828.855	26906
828.994	26838
829.134	26746
829.273	26800
829.412	26613
829.551	26450
829.69	26648
829.829	26823
829.968	26659
830.107	26716
830.246	26773
830.385	26655
830.524	26507
830.663	26636
830.802	26393
830.941	26332
831.08	26214
831.219	26336
831.357	26199
831.496	26545
831.635	26263
831.774	26126
831.913	26077
832.051	25986
832.19	26001
832.329	26058
832.467	25970
832.606	25906
832.744	25814
832.883	25898
833.022	25772
833.16	25902
833.299	26008
833.437	25883
833.576	25974
833.714	25909
833.852	26084
833.991	25997
834.129	26039
834.267	25932
834.406	25982
834.544	26027
834.682	25955
834.821	25887
834.959	26111
835.097	25807
835.235	25997
835.373	25890
835.511	25769
835.65	25761
835.788	25837
835.926	25514
836.064	25514
836.202	25586
836.34	25700
836.478	25868
836.615	25571
836.753	25620
836.891	25830
837.029	25765
837.167	25643
837.305	25510
837.443	25468
837.58	25449
837.718	25567
837.856	25624
837.993	25377
838.131	25582
838.269	25403
838.406	25495
838.544	25251
838.681	25190
838.819	25118
838.956	24939
839.094	24992
839.231	25050
839.369	25175
839.506	25373
839.643	25110
839.781	24837
839.918	24856
840.055	24905
840.193	24962
840.33	24935
840.467	25008
840.604	24951
840.742	25145
840.879	24776
841.016	24821
841.153	24688
841.29	24951
841.427	24806
841.564	24848
841.701	24905
841.838	24909
841.975	24776
842.112	24719
842.249	24601
842.385	24585
842.522	24840
842.659	24627
842.796	24509
842.933	24604
843.069	24483
843.206	24399
843.343	24585
843.479	24513
843.616	24681
843.752	24338
843.889	24361
844.025	24395
844.162	24232
844.298	24369
844.435	24403
844.571	24243
844.708	24441
844.844	24369
844.98	24407
845.117	24296
845.253	24232
845.389	24254
845.525	24114
845.661	24232
845.798	24091
845.934	24076
846.07	24098
846.206	24038
846.342	24148
846.478	23958
846.614	23855
846.75	23665
846.886	23608
847.022	23802
847.158	23649
847.294	23802
847.429	23851
847.565	23646
847.701	23958
847.837	23326
847.972	23433
848.108	23570
848.244	23600
848.379	23353
848.515	23334
848.65	23197
848.786	23258
848.921	23318
849.057	23414
849.192	23387
849.328	23235
849.463	23200
849.598	23250
849.734	23200
849.869	23174
850.004	22999
850.14	23140
850.275	23060
850.41	23010
850.545	22957
850.68	22896
850.815	23117
850.95	23056
851.085	23208
851.22	23113
851.355	23067
851.49	23079
851.625	22942
851.76	22889
851.895	22980
852.03	22850
852.165	23033
852.299	22995
852.434	23037
852.569	23048
852.703	23003
852.838	23052
852.973	23162
853.107	23117
853.242	22923
853.376	22782
853.511	22656
853.645	22812
853.78	22980
853.914	22847
854.048	22759
854.183	22725
854.317	22881
854.451	23071
854.585	22938
854.72	22790
854.854	23025
854.988	22725
855.122	22824
855.256	22740
855.39	22713
855.524	22835
855.658	22919
855.792	22824
855.926	22896
856.06	22923
856.194	22873
856.327	22797
856.461	22759
856.595	22824
856.729	22755
856.862	22900
856.996	22805
857.13	22927
857.263	22938
857.397	22938
857.53	22797
857.664	22835
857.797	22835
857.931	22850
858.064	22831
858.197	22976
858.331	22805
858.464	22828
858.597	22755
858.731	22744
858.864	22733
858.997	22782
859.13	22831
859.263	22653
859.396	22839
859.529	22824
859.662	22740
859.795	22698
859.928	22889
860.061	22679
860.194	22896
860.327	22892
860.46	22881
860.592	22759
860.725	22938
860.858	22930
860.99	22725
861.123	22744
861.256	22752
861.388	22706
861.521	23376
861.653	22679
861.786	22542
861.918	22675
862.05	22588
862.183	22721
862.315	22763
862.447	22824
862.58	22706
862.712	22519
862.844	22512
862.976	22443
863.108	22622
863.24	22987
863.372	22360
863.504	22390
863.636	22299
863.768	22405
863.9	22512
864.032	22375
864.164	22554
864.296	22424
864.428	22474
864.559	22500
864.691	22459
864.823	22375
864.954	22481
865.086	22462
865.217	22466
865.349	22215
865.48	22348
865.612	22265
865.743	22421
865.875	22314
866.006	22173
866.137	22344
866.269	22276
866.4	22314
866.531	22291
866.662	22303
866.793	22371
866.924	22291
867.055	22268
867.186	22306
867.317	22207
867.448	22109
867.579	22299
867.71	22105
867.841	22166
867.972	22238
868.103	22192
868.233	22322
868.364	22261
868.495	22356
868.625	22402
868.756	22584
868.886	22405
869.017	22413
869.147	22500
869.278	22577
869.408	22504
869.539	22497
869.669	22641
869.799	22584
869.929	22577
870.06	22660
870.19	22786
870.32	22702
870.45	22885
870.58	22881
870.71	22847
870.84	22908
870.97	22653
871.1	22961
871.23	23079
871.36	23048
871.489	22938
871.619	23185
871.749	23006
871.879	23220
872.008	23170
872.138	23102
872.267	23216
872.397	22965
872.526	22961
872.656	22904
872.785	22873
872.915	23083
873.044	23105
873.173	23041
873.303	23124
873.432	23208
873.561	23204
873.69	22999
873.819	23128
873.948	23189
874.077	23079
874.206	23185
874.335	23067
874.464	23094
874.593	23212
874.722	23383
874.851	23368
874.979	23398
875.108	23433
875.237	23235
875.365	23216
875.494	23311
875.623	23372
875.751	23208
875.88	23315
876.008	23414
876.136	23410
876.265	23722
876.393	23752
876.521	23714
876.65	23752
876.778	23733
876.906	23547
877.034	23672
877.162	23627
877.29	23657
877.418	23627
877.546	23581
877.674	23627
877.802	23551
877.93	23585
878.058	23665
878.185	23505
878.313	23611
878.441	23672
878.568	23562
878.696	23478
878.824	23615
878.951	23805
879.079	23840
879.206	23832
879.333	23882
879.461	23585
879.588	23729
879.715	23893
879.842	23889
879.97	23722
880.097	23600
880.224	23478
880.351	23520
880.478	23459
880.605	23402
880.732	23417
880.859	23668
880.986	23417
881.112	23516
881.239	23277
881.366	23189
881.493	23246
881.619	22980
881.746	23090
881.872	22999
881.999	22991
882.125	22961
882.252	23143
882.378	22957
882.505	23102
882.631	22885
882.757	22771
882.883	22873
883.01	22843
883.136	22713
883.262	22554
883.388	22622
883.514	22717
883.64	22748
883.766	22630
883.892	22554
884.018	22516
884.143	22721
884.269	22763
884.395	22405
884.52	22325
884.646	22306
884.772	22318
884.897	22280
885.023	22379
885.148	22493
885.274	22497
885.399	22402
885.524	22329
885.65	22341
885.775	22325
885.9	22257
886.025	22303
886.15	22360
886.275	22280
886.4	22253
886.525	22295
886.65	22249
886.775	22192
886.9	22299
887.025	22485
887.149	22333
887.274	22120
887.399	22006
887.523	22143
887.648	22082
887.773	21960
887.897	22139
888.021	21975
888.146	21930
888.27	22147
888.395	22188
888.519	22036
888.643	22090
888.767	22188
888.891	21972
889.015	21865
889.139	21861
889.263	21869
889.387	21876
889.511	22082
889.635	21915
889.759	21846
889.883	21705
890.006	21854
890.13	21949
890.254	21762
890.377	21739
890.501	21633
890.624	21534
890.748	21603
890.871	21561
890.995	21355
891.118	21272
891.241	21294
891.364	21374
891.488	21485
891.611	21374
891.734	21454
891.857	21428
891.98	21458
892.103	21492
892.226	21386
892.349	21389
892.471	21146
892.594	21332
892.717	21386
892.839	21336
892.962	21378
893.085	21302
893.207	21443
893.33	21173
893.452	21188
893.575	21256
893.697	21260
893.819	21469
893.941	21557
894.064	21447
894.186	21214
894.308	21146
894.43	21298
894.552	21435
894.674	21313
894.796	21272
894.918	21275
895.04	21214
895.161	21275
895.283	21450
895.405	21176
895.526	21351
895.648	21123
895.769	21355
895.891	21351
896.012	21291
896.134	21283
896.255	21195
896.376	21180
896.498	21310
896.619	21279
896.74	21245
896.861	21367
896.982	21580
897.103	21728
897.224	21515
897.345	21473
897.466	21389
897.587	21473
897.708	21553
897.828	21564
897.949	21340
898.07	21355
898.19	21462
898.311	21458
898.431	21382
898.552	21431
898.672	21530
898.792	21523
898.913	21359
899.033	21355
899.153	21272
899.273	21195
899.393	21180
899.513	21173
899.633	21211
899.753	21119
899.873	21081
899.993	21112
900.113	21028
900.232	21127
900.352	20975
900.472	20986
900.591	20906
900.711	20937
900.83	20914
900.95	21100
901.069	21001
901.189	20750
901.308	20651
901.427	20530
901.546	20522
901.665	20522
901.784	20541
901.904	20434
902.023	20275
902.141	20081
902.26	19932
902.379	19997
902.498	19989
902.617	19940
902.735	20046
902.854	19887
902.973	19902
903.091	19575
903.21	19715
903.328	19590
903.446	19468
903.565	19502
903.683	19422
903.801	19350
903.919	19396
904.038	19422
904.156	19289
904.274	19312
904.392	19194
904.51	19289
904.627	19232
904.745	19202
904.863	19225
904.981	18966
905.098	18875
905.216	18863
905.334	18837
905.451	18856
905.569	18795
905.686	18814
905.803	18829
905.921	18570
906.038	18642
906.155	18741
906.272	18597
906.389	18506
906.506	18270
906.623	18388
906.74	18300
906.857	18296
906.974	18232
907.091	18445
907.208	18407
907.324	18452
907.441	18262
907.557	18079
907.674	18136
907.79	17942
907.907	17980
908.023	17992
908.139	18087
908.256	17954
908.372	17939
908.488	17950
908.604	17748
908.72	17733
908.836	17805
908.952	17748
909.068	17745
909.184	17870
909.3	17752
909.415	17703
909.531	17714
909.647	17486
909.762	17539
909.878	17421
909.993	17433
910.108	17406
910.224	17433
910.339	17429
910.454	17204
910.57	17223
910.685	17151
910.8	17471
910.915	17353
911.03	17273
911.145	17010
911.259	16991
911.374	16999
911.489	16790
911.604	16889
911.718	16717
911.833	16778
911.947	16797
912.062	16596
912.176	16771
912.291	16767
912.405	16809
912.519	16995
912.633	16881
912.748	16786
912.862	16649
912.976	16558
913.09	16421
913.204	16474
913.318	16611
913.431	16618
913.545	16584
913.659	16550
913.772	16421
913.886	16367
914	16249
914.113	16405
914.226	16459
914.34	16363
914.453	16143
914.566	16337
914.68	16177
914.793	16105
914.906	15968
915.019	15907
915.132	15854
915.245	15915
915.358	15915
915.47	15915
915.583	16025
915.696	15960
915.809	16036
915.921	16097
916.034	15922
916.146	15690
916.259	15736
916.371	15823
916.483	15770
916.595	15755
916.708	15709
916.82	15720
916.932	15671
917.044	15682
917.156	15610
917.268	15599
917.38	15568
917.491	15454
917.603	15519
917.715	15587
917.826	15576
917.938	15412
918.049	15363
918.161	15458
918.272	15656
918.384	15564
918.495	15496
918.606	15321
918.717	15222
918.828	15249
918.939	15310
919.05	15192
919.161	15279
919.272	14982
919.383	14990
919.494	15306
919.604	15481
919.715	15272
919.826	15116
919.936	15176
920.047	15291
920.157	15108
920.267	15382
920.378	15195
920.488	15214
920.598	15287
920.708	15462
920.818	15340
920.928	15283
921.038	15488
921.148	15363
921.258	15097
921.368	15024
921.477	14929
921.587	14925
921.697	14720
921.806	14921
921.916	14670
922.025	14613
922.134	14579
922.244	14457
922.353	14549
922.462	14434
922.571	14347
922.68	14199
922.789	14206
922.898	14153
923.007	14084
923.116	14134
923.224	14218
923.333	14138
923.442	14062
923.55	13864
923.659	13993
923.767	14031
923.876	13925
923.984	14081
924.092	14005
924.201	13902
924.309	13921
924.417	13837
924.525	13784
924.633	13818
924.741	14552
924.849	13639
924.956	13780
925.064	13586
925.172	13521
925.279	13582
925.387	13624
925.494	13609
925.602	13643
925.709	13563
925.816	13464
925.924	13422
926.031	13514
926.138	13525
926.245	13510
926.352	13392
926.459	13460
926.566	13525
926.673	13308
926.779	13289
926.886	13320
926.993	13050
927.099	13088
927.206	13034
927.312	13069
927.419	13103
927.525	12985
927.631	13034
927.737	12890
927.843	12920
927.95	12878
928.056	12863
928.162	12878
928.267	12863
928.373	13483
928.479	12962
928.585	12749
928.69	12852
928.796	12867
928.901	12738
929.007	12536
929.112	12734
929.218	12745
929.323	12677
929.428	12604
929.533	12738
929.638	12528
929.743	12528
929.848	12635
929.953	12551
930.058	12467
930.163	12391
930.267	12300
930.372	12486
930.477	12270
930.581	12464
930.685	12304
930.79	12197
930.894	12148
930.998	12167
931.103	12243
931.207	11908
931.311	11809
931.415	11695
931.519	11444
931.623	11444
