Data from test_V78500241_1581.txt Node
Date: Fri Mar 25 15:52:45 CST 2022
User: usil
Spectrometer: V785-0024
Trigger mode: 0
Integration Time (sec): 4.000000E-1
Scans to average: 1
Nonlinearity correction enabled: false
Boxcar width: 0
Storing dark spectrum: false
XAxis mode: Wavelengths
Number of Pixels in Spectrum: 1024
>>>>>Begin Spectral Data<<<<<
801.071	27968
801.214	27941
801.356	27759
801.499	27568
801.641	27481
801.783	27500
801.926	27561
802.068	27370
802.211	27332
802.353	27488
802.496	27195
802.638	27310
802.78	27028
802.923	27058
803.065	27184
803.208	27142
803.35	27268
803.492	27427
803.635	27370
803.777	27420
803.919	27389
804.061	27568
804.204	27401
804.346	27363
804.488	27275
804.63	27382
804.773	27348
804.915	27363
805.057	27591
805.199	27538
805.341	27427
805.483	27534
805.626	27492
805.768	27374
805.91	27469
806.052	27466
806.194	27393
806.336	27633
806.478	27572
806.62	27610
806.762	27629
806.904	27728
807.046	28021
807.188	27937
807.33	27884
807.472	27766
807.614	27850
807.756	27903
807.898	27736
808.04	27675
808.182	27835
808.324	27701
808.465	27880
808.607	28010
808.749	28284
808.891	28303
809.033	28443
809.174	28204
809.316	28154
809.458	28223
809.6	27998
809.741	28268
809.883	28211
810.025	28360
810.166	28489
810.308	28398
810.45	28436
810.591	28265
810.733	28261
810.875	28059
811.016	27964
811.158	28059
811.299	28261
811.441	28287
811.582	28253
811.724	28177
811.865	28169
812.007	28070
812.148	28067
812.29	28154
812.431	28314
812.573	28443
812.714	28672
812.855	28733
812.997	28717
813.138	28873
813.279	28744
813.421	28516
813.562	28554
813.703	28401
813.845	28371
813.986	28238
814.127	27934
814.268	27785
814.41	27865
814.551	27895
814.692	27831
814.833	27816
814.974	27743
815.115	27739
815.256	27591
815.397	27720
815.539	27720
815.68	27610
815.821	27519
815.962	27633
816.103	27599
816.244	27317
816.385	27477
816.526	27401
816.666	27256
816.807	26960
816.948	27161
817.089	27135
817.23	27116
817.371	27192
817.512	27161
817.653	27043
817.793	27017
817.934	27085
818.075	27154
818.216	27150
818.356	27009
818.497	27005
818.638	26921
818.778	26876
818.919	26864
819.06	27005
819.2	27188
819.341	26986
819.481	27070
819.622	27176
819.762	27393
819.903	27405
820.043	27245
820.184	27245
820.324	27401
820.465	27233
820.605	27245
820.746	27214
820.886	27150
821.026	27287
821.167	26921
821.307	27214
821.447	27001
821.588	27028
821.728	27066
821.868	26746
822.008	26712
822.149	26648
822.289	26609
822.429	26389
822.569	26317
822.709	26332
822.849	26256
822.99	26157
823.13	26168
823.27	26069
823.41	25986
823.55	25807
823.69	25807
823.83	25849
823.97	25978
824.11	25750
824.25	25746
824.389	25772
824.529	25852
824.669	25765
824.809	25917
824.949	25780
825.089	25769
825.228	25601
825.368	25708
825.508	25613
825.648	25548
825.787	25655
825.927	25727
826.067	25658
826.206	25605
826.346	25655
826.485	25666
826.625	25651
826.765	25685
826.904	25746
827.044	25388
827.183	25297
827.323	25244
827.462	25430
827.601	25327
827.741	25228
827.88	25331
828.02	25118
828.159	25080
828.298	25304
828.437	25354
828.577	25187
828.716	25312
828.855	25320
828.994	25069
829.134	25099
829.273	24962
829.412	24935
829.551	24935
829.69	25019
829.829	24981
829.968	25099
830.107	24977
830.246	24996
830.385	24947
830.524	24947
830.663	24825
830.802	24677
830.941	24555
831.08	24460
831.219	24745
831.357	24661
831.496	24833
831.635	24669
831.774	24536
831.913	24464
832.051	24448
832.19	24372
832.329	24471
832.467	24342
832.606	24254
832.744	24053
832.883	24365
833.022	24209
833.16	24365
833.299	24350
833.437	24323
833.576	24308
833.714	24494
833.852	24395
833.991	24251
834.129	24429
834.267	24311
834.406	24254
834.544	24407
834.682	24304
834.821	24273
834.959	24498
835.097	24285
835.235	24426
835.373	24353
835.511	24410
835.65	24114
835.788	24228
835.926	23942
836.064	23912
836.202	23912
836.34	24247
836.478	24281
836.615	24072
836.753	24114
836.891	24213
837.029	24281
837.167	24087
837.305	24003
837.443	23992
837.58	24079
837.718	24136
837.856	24041
837.993	23996
838.131	23961
838.269	23847
838.406	23901
838.544	23859
838.681	23726
838.819	23558
838.956	23455
839.094	23493
839.231	23524
839.369	23611
839.506	23840
839.643	23657
839.781	23429
839.918	23592
840.055	23391
840.193	23509
840.33	23406
840.467	23334
840.604	23402
840.742	23490
840.879	23299
841.016	23269
841.153	23341
841.29	23486
841.427	23425
841.564	23474
841.701	23440
841.838	23311
841.975	23345
842.112	23315
842.249	23132
842.385	23189
842.522	23341
842.659	23242
842.796	23204
842.933	23121
843.069	23090
843.206	23075
843.343	23178
843.479	23098
843.616	23117
843.752	22896
843.889	22908
844.025	23064
844.162	22862
844.298	22919
844.435	22873
844.571	22953
844.708	22949
844.844	23140
844.98	23094
845.117	23003
845.253	23025
845.389	22694
845.525	22934
845.661	22755
845.798	22603
845.934	22774
846.07	22679
846.206	22599
846.342	22812
846.478	22493
846.614	22405
846.75	22249
846.886	22424
847.022	22489
847.158	22443
847.294	22337
847.429	22500
847.565	22341
847.701	22527
847.837	22143
847.972	22055
848.108	22173
848.244	22147
848.379	21994
848.515	21926
848.65	22010
848.786	21934
848.921	21983
849.057	22032
849.192	21937
849.328	21953
849.463	21979
849.598	21964
849.734	21861
849.869	21789
850.004	21747
850.14	21804
850.275	21720
850.41	21656
850.545	21694
850.68	21644
850.815	21759
850.95	21641
851.085	22021
851.22	21759
851.355	21705
851.49	21671
851.625	21656
851.76	21667
851.895	21561
852.03	21709
852.165	21622
852.299	21793
852.434	21816
852.569	21823
852.703	21789
852.838	21633
852.973	21808
853.107	21854
853.242	21739
853.376	21530
853.511	21545
853.645	21587
853.78	21705
853.914	21591
854.048	21576
854.183	21416
854.317	21553
854.451	21755
854.585	21466
854.72	21553
854.854	21599
854.988	21538
855.122	21473
855.256	21367
855.39	21473
855.524	21576
855.658	21603
855.792	21595
855.926	21652
856.06	21641
856.194	21526
856.327	21488
856.461	21610
856.595	21405
856.729	21504
856.862	21686
856.996	21549
857.13	21553
857.263	21698
857.397	21625
857.53	21561
857.664	21603
857.797	21504
857.931	21705
858.064	21538
858.197	21732
858.331	21576
858.464	21496
858.597	21351
858.731	21564
858.864	21545
858.997	21408
859.13	21542
859.263	21519
859.396	21637
859.529	21466
859.662	21553
859.795	21530
859.928	21576
860.061	21648
860.194	21751
860.327	21641
860.46	21549
860.592	21819
860.725	21739
860.858	21759
860.99	21488
861.123	21545
861.256	21412
861.388	21496
861.521	22070
861.653	21450
861.786	21325
861.918	21374
862.05	21424
862.183	21462
862.315	21500
862.447	21473
862.58	21401
862.712	21222
862.844	21180
862.976	21367
863.108	21393
863.24	21781
863.372	21207
863.504	21203
863.636	21313
863.768	21199
863.9	21249
864.032	21142
864.164	21313
864.296	21283
864.428	21321
864.559	21252
864.691	21367
864.823	21173
864.954	21260
865.086	21214
865.217	21241
865.349	21108
865.48	21142
865.612	21218
865.743	21351
865.875	21260
866.006	21283
866.137	21119
866.269	21104
866.4	21146
866.531	21100
866.662	20998
866.793	21058
866.924	21028
867.055	21127
867.186	21043
867.317	21028
867.448	20872
867.579	21104
867.71	20921
867.841	20933
867.972	21112
868.103	21047
868.233	21173
868.364	20971
868.495	21298
868.625	21279
868.756	21393
868.886	21340
869.017	21359
869.147	21321
869.278	21511
869.408	21477
869.539	21382
869.669	21420
869.799	21344
869.929	21500
870.06	21485
870.19	21686
870.32	21629
870.45	21724
870.58	21694
870.71	21838
870.84	21804
870.97	21739
871.1	21724
871.23	21876
871.36	22036
871.489	21789
871.619	21945
871.749	22021
871.879	21983
872.008	22010
872.138	21953
872.267	21949
872.397	21762
872.526	21789
872.656	21762
872.785	21713
872.915	21953
873.044	21979
873.173	21979
873.303	21895
873.432	22048
873.561	22112
873.69	22082
873.819	21949
873.948	21968
874.077	21945
874.206	21922
874.335	21884
874.464	22074
874.593	22207
874.722	22090
874.851	22185
874.979	22204
875.108	22215
875.237	22036
875.365	22105
875.494	22204
875.623	22139
875.751	22204
875.88	22238
876.008	22219
876.136	22325
876.265	22527
876.393	22622
876.521	22599
876.65	22717
876.778	22500
876.906	22485
877.034	22386
877.162	22546
877.29	22531
877.418	22447
877.546	22592
877.674	22615
877.802	22542
877.93	22607
878.058	22538
878.185	22428
878.313	22584
878.441	22557
878.568	22451
878.696	22474
878.824	22512
878.951	22599
879.079	22698
879.206	22839
879.333	22660
879.461	22519
879.588	22683
879.715	22698
879.842	22919
879.97	22455
880.097	22295
880.224	22246
880.351	22337
880.478	22386
880.605	22329
880.732	22261
880.859	22531
880.986	22268
881.112	22215
881.239	22166
881.366	22067
881.493	21949
881.619	21922
881.746	21888
881.872	21937
881.999	21911
882.125	21880
882.252	22040
882.378	21968
882.505	21934
882.631	21751
882.757	21660
882.883	21747
883.01	21660
883.136	21641
883.262	21420
883.388	21507
883.514	21526
883.64	21629
883.766	21572
883.892	21485
884.018	21344
884.143	21618
884.269	21705
884.395	21397
884.52	21260
884.646	21405
884.772	21249
884.897	21150
885.023	21291
885.148	21351
885.274	21359
885.399	21325
885.524	21287
885.65	21268
885.775	21256
885.9	21218
886.025	21249
886.15	21386
886.275	21325
886.4	21173
886.525	21135
886.65	21108
886.775	21275
886.9	21435
887.025	21447
887.149	21268
887.274	20979
887.399	21009
887.523	21070
887.648	20982
887.773	20887
887.897	21001
888.021	21047
888.146	21024
888.27	21104
888.395	21096
888.519	21005
888.643	20986
888.767	21062
888.891	20933
889.015	20826
889.139	20971
889.263	20887
889.387	20963
889.511	21032
889.635	20902
889.759	20773
889.883	20838
890.006	20739
890.13	20838
890.254	20762
890.377	20731
890.501	20621
890.624	20594
890.748	20625
890.871	20457
890.995	20339
891.118	20240
891.241	20320
891.364	20351
891.488	20385
891.611	20400
891.734	20408
891.857	20355
891.98	20332
892.103	20427
892.226	20290
892.349	20282
892.471	20180
892.594	20301
892.717	20301
892.839	20263
892.962	20298
893.085	20332
893.207	20343
893.33	20172
893.452	20233
893.575	20324
893.697	20195
893.819	20442
893.941	20465
894.064	20461
894.186	20240
894.308	20138
894.43	20385
894.552	20446
894.674	20347
894.796	20263
894.918	20214
895.04	20248
895.161	20381
895.283	20278
895.405	20225
895.526	20244
895.648	20195
895.769	20221
895.891	20290
896.012	20423
896.134	20305
896.255	20252
896.376	20199
896.498	20309
896.619	20404
896.74	20305
896.861	20362
896.982	20648
897.103	20708
897.224	20678
897.345	20560
897.466	20606
897.587	20632
897.708	20507
897.828	20651
897.949	20480
898.07	20377
898.19	20454
898.311	20670
898.431	20526
898.552	20434
898.672	20602
898.792	20655
898.913	20545
899.033	20362
899.153	20301
899.273	20252
899.393	20233
899.513	20324
899.633	20214
899.753	20221
899.873	20221
899.993	20168
900.113	20134
900.232	20309
900.352	20176
900.472	20058
900.591	19997
900.711	20031
900.83	20081
900.95	20122
901.069	20016
901.189	20001
901.308	19750
901.427	19476
901.546	19616
901.665	19715
901.784	19601
901.904	19537
902.023	19411
902.141	19209
902.26	19232
902.379	19240
902.498	19069
902.617	19072
902.735	19232
902.854	19031
902.973	18954
903.091	18825
903.21	18878
903.328	18852
903.446	18681
903.565	18582
903.683	18608
903.801	18502
903.919	18601
904.038	18528
904.156	18376
904.274	18418
904.392	18178
904.51	18441
904.627	18292
904.745	18448
904.863	18418
904.981	18228
905.098	18064
905.216	18015
905.334	17996
905.451	17980
905.569	18045
905.686	17893
905.803	18007
905.921	17912
906.038	17901
906.155	17843
906.272	17741
906.389	17741
906.506	17524
906.623	17596
906.74	17699
906.857	17585
906.974	17490
907.091	17642
907.208	17649
907.324	17589
907.441	17448
907.557	17216
907.674	17269
907.79	17181
907.907	17216
908.023	17318
908.139	17227
908.256	17174
908.372	17235
908.488	17147
908.604	16934
908.72	16999
908.836	17060
908.952	16972
909.068	16980
909.184	17181
909.3	16938
909.415	17102
909.531	16930
909.647	16717
909.762	16660
909.878	16622
909.993	16656
910.108	16664
910.224	16588
910.339	16653
910.454	16523
910.57	16474
910.685	16455
910.8	16729
910.915	16664
911.03	16493
911.145	16310
911.259	16356
911.374	16181
911.489	16139
911.604	16135
911.718	15968
911.833	16082
911.947	15915
912.062	15930
912.176	16036
912.291	16112
912.405	16112
912.519	16188
912.633	16116
912.748	15994
912.862	15945
912.976	15838
913.09	15755
913.204	15759
913.318	15964
913.431	15941
913.545	15915
913.659	15876
913.772	15876
913.886	15625
914	15591
914.113	15686
914.226	15747
914.34	15728
914.453	15572
914.566	15625
914.68	15603
914.793	15431
914.906	15306
915.019	15321
915.132	15169
915.245	15218
915.358	15389
915.47	15313
915.583	15252
915.696	15256
915.809	15389
915.921	15439
916.034	15184
916.146	15119
916.259	15047
916.371	15222
916.483	15138
916.595	15062
916.708	15100
916.82	15009
916.932	14998
917.044	14941
917.156	14933
917.268	14948
917.38	14971
917.491	14834
917.603	14910
917.715	14967
917.826	14899
917.938	14796
918.049	14792
918.161	14887
918.272	15039
918.384	14948
918.495	14899
918.606	14678
918.717	14655
918.828	14811
918.939	14629
919.05	14587
919.161	14705
919.272	14377
919.383	14438
919.494	14644
919.604	14857
919.715	14682
919.826	14461
919.936	14613
920.047	14701
920.157	14568
920.267	14788
920.378	14571
920.488	14541
920.598	14686
920.708	14880
920.818	14750
920.928	14750
921.038	14883
921.148	14800
921.258	14530
921.368	14484
921.477	14351
921.587	14336
921.697	14294
921.806	14370
921.916	14309
922.025	14153
922.134	14043
922.244	13883
922.353	13963
922.462	13791
922.571	13811
922.68	13700
922.789	13666
922.898	13670
923.007	13605
923.116	13700
923.224	13578
923.333	13636
923.442	13460
923.55	13388
923.659	13460
923.767	13514
923.876	13419
923.984	13384
924.092	13278
924.201	13369
924.309	13320
924.417	13426
924.525	13274
924.633	13331
924.741	14305
924.849	13050
924.956	13118
925.064	13008
925.172	13023
925.279	12989
925.387	13053
925.494	13050
925.602	13168
925.709	13069
925.816	12901
925.924	13023
926.031	13107
926.138	12985
926.245	13019
926.352	12852
926.459	13088
926.566	13004
926.673	12871
926.779	12806
926.886	12840
926.993	12707
927.099	12563
927.206	12532
927.312	12593
927.419	12688
927.525	12551
927.631	12616
927.737	12536
927.843	12429
927.95	12418
928.056	12433
928.162	12467
928.267	12448
928.373	13160
928.479	12410
928.585	12228
928.69	12414
928.796	12380
928.901	12285
929.007	12106
929.112	12258
929.218	12224
929.323	12159
929.428	12205
929.533	12197
929.638	12152
929.743	12041
929.848	12117
929.953	12136
930.058	12026
930.163	11847
930.267	11790
930.372	12019
930.477	11828
930.581	12030
930.685	11828
930.79	11741
930.894	11752
930.998	11737
931.103	11779
931.207	11543
931.311	11414
931.415	11250
931.519	11064
931.623	11067
