Data from test_V78500241_1479.txt Node
Date: Fri Mar 25 15:52:02 CST 2022
User: usil
Spectrometer: V785-0024
Trigger mode: 0
Integration Time (sec): 4.000000E-1
Scans to average: 1
Nonlinearity correction enabled: false
Boxcar width: 0
Storing dark spectrum: false
XAxis mode: Wavelengths
Number of Pixels in Spectrum: 1024
>>>>>Begin Spectral Data<<<<<
801.071	27884
801.214	27759
801.356	27435
801.499	27382
801.641	27386
801.783	27355
801.926	27488
802.068	27302
802.211	27340
802.353	27077
802.496	27032
802.638	26963
802.78	26975
802.923	26956
803.065	26800
803.208	26998
803.35	26963
803.492	27043
803.635	27207
803.777	26914
803.919	27055
804.061	27496
804.204	27279
804.346	27169
804.488	27081
804.63	27256
804.773	27020
804.915	27252
805.057	27214
805.199	27070
805.341	27344
805.483	27287
805.626	27195
805.768	27184
805.91	27256
806.052	27218
806.194	27370
806.336	27507
806.478	27405
806.62	27370
806.762	27382
806.904	27606
807.046	27861
807.188	27720
807.33	27739
807.472	27831
807.614	27690
807.756	27804
807.898	27458
808.04	27439
808.182	27526
808.324	27587
808.465	27591
808.607	27808
808.749	27918
808.891	28082
809.033	28059
809.174	27934
809.316	27861
809.458	27945
809.6	27926
809.741	28040
809.883	28097
810.025	28154
810.166	28078
810.308	28249
810.45	28147
810.591	28268
810.733	27918
810.875	28025
811.016	27823
811.158	27888
811.299	27937
811.441	28059
811.582	28036
811.724	28040
811.865	27865
812.007	27968
812.148	27911
812.29	27903
812.431	28051
812.573	28128
812.714	28287
812.855	28500
812.997	28462
813.138	28481
813.279	28508
813.421	28337
813.562	28333
813.703	28322
813.845	27945
813.986	27892
814.127	27686
814.268	27663
814.41	27667
814.551	27648
814.692	27599
814.833	27549
814.974	27553
815.115	27622
815.256	27481
815.397	27587
815.539	27431
815.68	27359
815.821	27325
815.962	27424
816.103	27363
816.244	27203
816.385	27169
816.526	27138
816.666	27013
816.807	26823
816.948	26891
817.089	26876
817.23	27184
817.371	26838
817.512	26849
817.653	26944
817.793	26853
817.934	26861
818.075	26899
818.216	26872
818.356	26876
818.497	26857
818.638	26613
818.778	26796
818.919	26518
819.06	26667
819.2	26727
819.341	26994
819.481	26807
819.622	27089
819.762	27291
819.903	27150
820.043	26979
820.184	27074
820.324	26956
820.465	27131
820.605	26906
820.746	26906
820.886	26834
821.026	26891
821.167	26948
821.307	27051
821.447	26849
821.588	26849
821.728	26571
821.868	26560
822.008	26377
822.149	26408
822.289	26351
822.429	26081
822.569	25978
822.709	25959
822.849	25856
822.99	25921
823.13	25860
823.27	25685
823.41	25647
823.55	25533
823.69	25693
823.83	25715
823.97	25590
824.11	25377
824.25	25479
824.389	25434
824.529	25590
824.669	25422
824.809	25658
824.949	25639
825.089	25495
825.228	25533
825.368	25434
825.508	25285
825.648	25339
825.787	25441
825.927	25426
826.067	25411
826.206	25312
826.346	25460
826.485	25400
826.625	25304
826.765	25571
826.904	25384
827.044	25023
827.183	25171
827.323	25088
827.462	25114
827.601	25145
827.741	24966
827.88	25137
828.02	24996
828.159	25065
828.298	25244
828.437	25213
828.577	25129
828.716	25099
828.855	24977
828.994	24928
829.134	24848
829.273	24840
829.412	24791
829.551	24726
829.69	24840
829.829	24924
829.968	24939
830.107	24795
830.246	24779
830.385	24783
830.524	24730
830.663	24593
830.802	24597
830.941	24334
831.08	24353
831.219	24540
831.357	24456
831.496	24601
831.635	24448
831.774	24334
831.913	24281
832.051	24194
832.19	24342
832.329	24228
832.467	24060
832.606	23958
832.744	23996
832.883	24087
833.022	24045
833.16	24079
833.299	24121
833.437	24095
833.576	24102
833.714	24068
833.852	24330
833.991	24117
834.129	24197
834.267	24232
834.406	24133
834.544	24121
834.682	24220
834.821	24034
834.959	24270
835.097	24045
835.235	24178
835.373	24091
835.511	24159
835.65	23977
835.788	23954
835.926	23882
836.064	23802
836.202	23882
836.34	24003
836.478	24068
836.615	23855
836.753	23984
836.891	24106
837.029	24087
837.167	23980
837.305	23847
837.443	24022
837.58	23783
837.718	23756
837.856	23897
837.993	23866
838.131	23847
838.269	23783
838.406	23775
838.544	23634
838.681	23554
838.819	23379
838.956	23376
839.094	23383
839.231	23360
839.369	23501
839.506	23619
839.643	23570
839.781	23216
839.918	23212
840.055	23368
840.193	23292
840.33	23269
840.467	23155
840.604	23364
840.742	23505
840.879	23010
841.016	23094
841.153	23029
841.29	23303
841.427	23223
841.564	23098
841.701	23200
841.838	23121
841.975	23037
842.112	23083
842.249	22984
842.385	22991
842.522	23113
842.659	23052
842.796	22927
842.933	22934
843.069	22911
843.206	22976
843.343	22972
843.479	22942
843.616	22972
843.752	22733
843.889	22774
844.025	22877
844.162	22687
844.298	22866
844.435	22763
844.571	22584
844.708	22862
844.844	22915
844.98	22839
845.117	22782
845.253	22626
845.389	22626
845.525	22729
845.661	22736
845.798	22436
845.934	22443
846.07	22527
846.206	22478
846.342	22497
846.478	22432
846.614	22226
846.75	22040
846.886	22188
847.022	22268
847.158	22276
847.294	22238
847.429	22230
847.565	22120
847.701	22485
847.837	21842
847.972	21968
848.108	22040
848.244	21998
848.379	21888
848.515	21736
848.65	21778
848.786	21713
848.921	21800
849.057	21960
849.192	21884
849.328	21838
849.463	21766
849.598	21800
849.734	21682
849.869	21637
850.004	21534
850.14	21507
850.275	21652
850.41	21466
850.545	21496
850.68	21431
850.815	21473
850.95	21564
851.085	21709
851.22	21739
851.355	21549
851.49	21458
851.625	21530
851.76	21587
851.895	21580
852.03	21389
852.165	21568
852.299	21637
852.434	21625
852.569	21686
852.703	21405
852.838	21561
852.973	21603
853.107	21633
853.242	21458
853.376	21675
853.511	21268
853.645	21355
853.78	21458
853.914	21542
854.048	21492
854.183	21428
854.317	21393
854.451	21610
854.585	21408
854.72	21477
854.854	21485
854.988	21283
855.122	21298
855.256	21252
855.39	21336
855.524	21424
855.658	21488
855.792	21462
855.926	21496
856.06	21428
856.194	21515
856.327	21382
856.461	21340
856.595	21454
856.729	21321
856.862	21618
856.996	21424
857.13	21481
857.263	21473
857.397	21469
857.53	21374
857.664	21500
857.797	21568
857.931	21287
858.064	21412
858.197	21553
858.331	21389
858.464	21405
858.597	21336
858.731	21374
858.864	21416
858.997	21355
859.13	21386
859.263	21389
859.396	21466
859.529	21435
859.662	21374
859.795	21344
859.928	21408
860.061	21496
860.194	21629
860.327	21401
860.46	21382
860.592	21462
860.725	21568
860.858	21416
860.99	21408
861.123	21207
861.256	21340
861.388	21393
861.521	21979
861.653	21214
861.786	21230
861.918	21249
862.05	21336
862.183	21252
862.315	21336
862.447	21355
862.58	21298
862.712	21055
862.844	21142
862.976	21195
863.108	21055
863.24	21564
863.372	20982
863.504	21039
863.636	21104
863.768	21108
863.9	21116
864.032	21062
864.164	21100
864.296	21138
864.428	21378
864.559	21074
864.691	21207
864.823	21180
864.954	20990
865.086	21039
865.217	21055
865.349	21051
865.48	20986
865.612	21081
865.743	21169
865.875	21001
866.006	20998
866.137	20982
866.269	20929
866.4	20967
866.531	20830
866.662	20826
866.793	20796
866.924	20918
867.055	20804
867.186	21024
867.317	20921
867.448	20834
867.579	20800
867.71	20838
867.841	20777
867.972	20967
868.103	21013
868.233	20929
868.364	20937
868.495	20963
868.625	21169
868.756	21348
868.886	21100
869.017	21264
869.147	21291
869.278	21146
869.408	21310
869.539	21176
869.669	21173
869.799	21291
869.929	21313
870.06	21310
870.19	21462
870.32	21443
870.45	21576
870.58	21526
870.71	21671
870.84	21720
870.97	21507
871.1	21538
871.23	21694
871.36	21743
871.489	21610
871.619	21800
871.749	21854
871.879	21823
872.008	21781
872.138	21732
872.267	21625
872.397	21682
872.526	21420
872.656	21557
872.785	21717
872.915	21899
873.044	21838
873.173	21667
873.303	21800
873.432	21819
873.561	21960
873.69	21766
873.819	21793
873.948	21846
874.077	21831
874.206	21770
874.335	21831
874.464	21873
874.593	22032
874.722	21857
874.851	22063
874.979	22025
875.108	21983
875.237	22017
875.365	22013
875.494	22059
875.623	22109
875.751	21873
875.88	22105
876.008	22063
876.136	22124
876.265	22417
876.393	22497
876.521	22447
876.65	22386
876.778	22523
876.906	22306
877.034	22424
877.162	22443
877.29	22341
877.418	22360
877.546	22382
877.674	22386
877.802	22314
877.93	22455
878.058	22394
878.185	22219
878.313	22356
878.441	22310
878.568	22158
878.696	22360
878.824	22382
878.951	22417
879.079	22569
879.206	22615
879.333	22443
879.461	22466
879.588	22428
879.715	22554
879.842	22637
879.97	22500
880.097	22196
880.224	22166
880.351	22223
880.478	22268
880.605	22116
880.732	22120
880.859	22443
880.986	22150
881.112	22265
881.239	22101
881.366	21884
881.493	21911
881.619	21831
881.746	21854
881.872	21781
881.999	21743
882.125	21770
882.252	21739
882.378	21648
882.505	21831
882.631	21538
882.757	21492
882.883	21523
883.01	21496
883.136	21386
883.262	21359
883.388	21214
883.514	21557
883.64	21557
883.766	21329
883.892	21165
884.018	21150
884.143	21420
884.269	21412
884.395	21154
884.52	21077
884.646	21142
884.772	21051
884.897	21013
885.023	21100
885.148	21180
885.274	21169
885.399	21138
885.524	21135
885.65	21028
885.775	21024
885.9	21020
886.025	21237
886.15	21123
886.275	21192
886.4	20979
886.525	21089
886.65	21089
886.775	20880
886.9	21146
887.025	21207
887.149	21100
887.274	20944
887.399	20819
887.523	20807
887.648	20716
887.773	20705
887.897	20868
888.021	20792
888.146	20842
888.27	20929
888.395	20899
888.519	20861
888.643	20876
888.767	20838
888.891	20769
889.015	20640
889.139	20819
889.263	20788
889.387	20823
889.511	20826
889.635	20739
889.759	20765
889.883	20720
890.006	20636
890.13	20743
890.254	20587
890.377	20545
890.501	20347
890.624	20355
890.748	20457
890.871	20355
890.995	20172
891.118	20199
891.241	20206
891.364	20142
891.488	20328
891.611	20240
891.734	20214
891.857	20271
891.98	20214
892.103	20271
892.226	20202
892.349	20107
892.471	20046
892.594	20183
892.717	20046
892.839	20157
892.962	20096
893.085	20309
893.207	20218
893.33	19967
893.452	20088
893.575	20130
893.697	20107
893.819	20278
893.941	20309
894.064	20233
894.186	20081
894.308	20084
894.43	20252
894.552	20290
894.674	20206
894.796	20001
894.918	20062
895.04	20065
895.161	20130
895.283	20180
895.405	20073
895.526	20187
895.648	19906
895.769	20069
895.891	20039
896.012	20164
896.134	20282
896.255	20096
896.376	20134
896.498	20210
896.619	20206
896.74	20145
896.861	20161
896.982	20412
897.103	20568
897.224	20431
897.345	20461
897.466	20271
897.587	20423
897.708	20442
897.828	20385
897.949	20339
898.07	20233
898.19	20275
898.311	20434
898.431	20252
898.552	20256
898.672	20450
898.792	20434
898.913	20355
899.033	20301
899.153	20191
899.273	20153
899.393	20077
899.513	20164
899.633	20183
899.753	20092
899.873	20084
899.993	20153
900.113	20176
900.232	19997
900.352	19947
900.472	19909
900.591	19822
900.711	19856
900.83	19803
900.95	20096
901.069	20001
901.189	19875
901.308	19525
901.427	19506
901.546	19575
901.665	19483
901.784	19396
901.904	19377
902.023	19175
902.141	19076
902.26	18920
902.379	19099
902.498	18993
902.617	18943
902.735	18958
902.854	18795
902.973	18913
903.091	18677
903.21	18658
903.328	18703
903.446	18608
903.565	18452
903.683	18422
903.801	18384
903.919	18433
904.038	18471
904.156	18220
904.274	18251
904.392	18224
904.51	18209
904.627	18235
904.745	18342
904.863	18220
904.981	18015
905.098	17923
905.216	17794
905.334	17916
905.451	17961
905.569	17863
905.686	17851
905.803	17901
905.921	17722
906.038	17752
906.155	17714
906.272	17672
906.389	17646
906.506	17486
906.623	17448
906.74	17459
906.857	17318
906.974	17368
907.091	17528
907.208	17634
907.324	17425
907.441	17322
907.557	17254
907.674	17273
907.79	17098
907.907	17178
908.023	17280
908.139	17288
908.256	17239
908.372	17018
908.488	17022
908.604	16953
908.72	16877
908.836	16984
908.952	16942
909.068	16934
909.184	16976
909.3	16820
909.415	16911
909.531	16786
909.647	16675
909.762	16683
909.878	16584
909.993	16626
910.108	16573
910.224	16546
910.339	16573
910.454	16478
910.57	16375
910.685	16363
910.8	16542
910.915	16470
911.03	16382
911.145	16333
911.259	16158
911.374	16128
911.489	16185
911.604	16036
911.718	15983
911.833	15903
911.947	15789
912.062	15831
912.176	15987
912.291	15880
912.405	15949
912.519	16131
912.633	16055
912.748	16059
912.862	15945
912.976	15827
913.09	15713
913.204	15606
913.318	15644
913.431	15800
913.545	15854
913.659	15911
913.772	15755
913.886	15549
914	15488
914.113	15667
914.226	15652
914.34	15622
914.453	15458
914.566	15545
914.68	15340
914.793	15397
914.906	15313
915.019	15165
915.132	15097
915.245	15165
915.358	15169
915.47	15104
915.583	15165
915.696	15013
915.809	15252
915.921	15222
916.034	15119
916.146	15070
916.259	15005
916.371	15112
916.483	15173
916.595	14941
916.708	15043
916.82	14956
916.932	14891
917.044	14906
917.156	14834
917.268	14823
917.38	14811
917.491	14701
917.603	14868
917.715	14925
917.826	14941
917.938	14807
918.049	14739
918.161	14819
918.272	14899
918.384	14830
918.495	14651
918.606	14568
918.717	14541
918.828	14602
918.939	14765
919.05	14358
919.161	14507
919.272	14381
919.383	14404
919.494	14606
919.604	14769
919.715	14537
919.826	14492
919.936	14545
920.047	14697
920.157	14571
920.267	14765
920.378	14514
920.488	14545
920.598	14708
920.708	14887
920.818	14659
920.928	14727
921.038	14887
921.148	14838
921.258	14560
921.368	14347
921.477	14400
921.587	14180
921.697	14069
921.806	14199
921.916	14221
922.025	13978
922.134	14001
922.244	13833
922.353	13871
922.462	13731
922.571	13719
922.68	13628
922.789	13540
922.898	13556
923.007	13521
923.116	13616
923.224	13556
923.333	13468
923.442	13384
923.55	13362
923.659	13331
923.767	13411
923.876	13312
923.984	13441
924.092	13266
924.201	13308
924.309	13297
924.417	13198
924.525	13198
924.633	13289
924.741	14164
924.849	12985
924.956	13202
925.064	13031
925.172	12985
925.279	12939
925.387	13008
925.494	12966
925.602	13114
925.709	13034
925.816	12806
925.924	12901
926.031	12993
926.138	12981
926.245	12966
926.352	12863
926.459	12935
926.566	12989
926.673	12913
926.779	12745
926.886	12703
926.993	12604
927.099	12616
927.206	12407
927.312	12582
927.419	12597
927.525	12486
927.631	12570
927.737	12376
927.843	12426
927.95	12247
928.056	12357
928.162	12372
928.267	12350
928.373	13015
928.479	12479
928.585	12133
928.69	12350
928.796	12342
928.901	12171
929.007	12060
929.112	12251
929.218	12144
929.323	12144
929.428	12064
929.533	12152
929.638	11984
929.743	12015
929.848	12102
929.953	11999
930.058	11965
930.163	11710
930.267	11798
930.372	11885
930.477	11828
930.581	11969
930.685	11794
930.79	11676
930.894	11710
930.998	11672
931.103	11722
931.207	11448
931.311	11341
931.415	11311
931.519	11045
931.623	11022
