Data from test_V78500241_3185.txt Node
Date: Fri Mar 25 16:03:51 CST 2022
User: usil
Spectrometer: V785-0024
Trigger mode: 0
Integration Time (sec): 4.000000E-1
Scans to average: 1
Nonlinearity correction enabled: false
Boxcar width: 0
Storing dark spectrum: false
XAxis mode: Wavelengths
Number of Pixels in Spectrum: 1024
>>>>>Begin Spectral Data<<<<<
801.071	28653
801.214	28641
801.356	28409
801.499	28356
801.641	28238
801.783	28177
801.926	28375
802.068	28284
802.211	28223
802.353	28040
802.496	28063
802.638	28101
802.78	28048
802.923	27827
803.065	28032
803.208	27960
803.35	28120
803.492	28196
803.635	28215
803.777	28131
803.919	28242
804.061	28462
804.204	28352
804.346	28139
804.488	28036
804.63	28238
804.773	28109
804.915	28116
805.057	28367
805.199	28371
805.341	28303
805.483	28310
805.626	28325
805.768	28287
805.91	28447
806.052	28344
806.194	28196
806.336	28508
806.478	28481
806.62	28261
806.762	28611
806.904	28763
807.046	28934
807.188	28801
807.33	28812
807.472	28961
807.614	28736
807.756	28847
807.898	28706
808.04	28675
808.182	28736
808.324	28607
808.465	28763
808.607	28866
808.749	29090
808.891	29185
809.033	29356
809.174	28980
809.316	29037
809.458	28984
809.6	28999
809.741	29113
809.883	29341
810.025	29273
810.166	29375
810.308	29193
810.45	29277
810.591	29178
810.733	29151
810.875	29239
811.016	29064
811.158	29098
811.299	29090
811.441	29216
811.582	29197
811.724	29128
811.865	29086
812.007	29277
812.148	29044
812.29	29140
812.431	29326
812.573	29531
812.714	29520
812.855	29684
812.997	29828
813.138	29809
813.279	29699
813.421	29570
813.562	29642
813.703	29471
813.845	29185
813.986	29014
814.127	28927
814.268	28877
814.41	28767
814.551	28839
814.692	28877
814.833	28607
814.974	28888
815.115	28850
815.256	28706
815.397	28721
815.539	28664
815.68	28675
815.821	28618
815.962	28542
816.103	28512
816.244	28398
816.385	28535
816.526	28470
816.666	28215
816.807	28101
816.948	28249
817.089	28177
817.23	28363
817.371	28090
817.512	28135
817.653	28044
817.793	28025
817.934	28051
818.075	28200
818.216	28002
818.356	28188
818.497	27968
818.638	27869
818.778	27937
818.919	27865
819.06	27972
819.2	28021
819.341	28101
819.481	28177
819.622	28325
819.762	28500
819.903	28341
820.043	28306
820.184	28318
820.324	28204
820.465	28386
820.605	28272
820.746	28314
820.886	28181
821.026	28242
821.167	28185
821.307	28223
821.447	28177
821.588	28055
821.728	27895
821.868	27842
822.008	27732
822.149	27709
822.289	27599
822.429	27287
822.569	27325
822.709	27291
822.849	27135
822.99	27108
823.13	27138
823.27	27127
823.41	26857
823.55	26823
823.69	27009
823.83	26914
823.97	26937
824.11	26739
824.25	26769
824.389	26716
824.529	26815
824.669	26735
824.809	26849
824.949	26830
825.089	26914
825.228	26739
825.368	26606
825.508	26655
825.648	26667
825.787	26746
825.927	26724
826.067	26537
826.206	26587
826.346	26724
826.485	26762
826.625	26769
826.765	26830
826.904	26689
827.044	26492
827.183	26545
827.323	26408
827.462	26579
827.601	26461
827.741	26396
827.88	26473
828.02	26275
828.159	26408
828.298	26450
828.437	26374
828.577	26358
828.716	26568
828.855	26351
828.994	26096
829.134	26065
829.273	26092
829.412	25951
829.551	26035
829.69	26043
829.829	26195
829.968	26191
830.107	26008
830.246	26275
830.385	26180
830.524	25940
830.663	25974
830.802	25784
830.941	25624
831.08	25704
831.219	25731
831.357	25761
831.496	25879
831.635	25666
831.774	25552
831.913	25571
832.051	25537
832.19	25521
832.329	25559
832.467	25460
832.606	25343
832.744	25354
832.883	25297
833.022	25293
833.16	25331
833.299	25449
833.437	25403
833.576	25563
833.714	25202
833.852	25411
833.991	25441
834.129	25590
834.267	25521
834.406	25548
834.544	25491
834.682	25346
834.821	25365
834.959	25586
835.097	25388
835.235	25506
835.373	25327
835.511	25373
835.65	25312
835.788	25274
835.926	25244
836.064	25099
836.202	25084
836.34	25293
836.478	25331
836.615	25202
836.753	25270
836.891	25304
837.029	25320
837.167	25171
837.305	25187
837.443	25053
837.58	24951
837.718	25110
837.856	25217
837.993	25069
838.131	25027
838.269	24920
838.406	25034
838.544	24848
838.681	24677
838.819	24612
838.956	24426
839.094	24525
839.231	24601
839.369	24730
839.506	24890
839.643	24753
839.781	24483
839.918	24460
840.055	24563
840.193	24464
840.33	24471
840.467	24505
840.604	24513
840.742	24802
840.879	24365
841.016	24315
841.153	24235
841.29	24551
841.427	24483
841.564	24426
841.701	24445
841.838	24502
841.975	24178
842.112	24388
842.249	24262
842.385	24251
842.522	24505
842.659	24243
842.796	24174
842.933	24136
843.069	24197
843.206	24068
843.343	24224
843.479	24319
843.616	24228
843.752	24140
843.889	24079
844.025	24083
844.162	24003
844.298	24022
844.435	23847
844.571	23904
844.708	24060
844.844	24304
844.98	24190
845.117	24174
845.253	23836
845.389	23821
845.525	23931
845.661	23714
845.798	23805
845.934	23764
846.07	23684
846.206	23745
846.342	23760
846.478	23722
846.614	23478
846.75	23277
846.886	23452
847.022	23471
847.158	23528
847.294	23341
847.429	23493
847.565	23455
847.701	23672
847.837	23273
847.972	23174
848.108	23239
848.244	23280
848.379	23170
848.515	23071
848.65	23033
848.786	23033
848.921	23025
849.057	23105
849.192	23060
849.328	22984
849.463	22987
849.598	22869
849.734	22774
849.869	22949
850.004	22771
850.14	22881
850.275	22774
850.41	22622
850.545	22702
850.68	22755
850.815	22820
850.95	22721
851.085	22816
851.22	22911
851.355	22809
851.49	22637
851.625	22835
851.76	22812
851.895	22668
852.03	22660
852.165	22778
852.299	22862
852.434	22835
852.569	22805
852.703	22824
852.838	22801
852.973	22866
853.107	22953
853.242	22797
853.376	22512
853.511	22489
853.645	22519
853.78	22713
853.914	22656
854.048	22561
854.183	22637
854.317	22577
854.451	22812
854.585	22634
854.72	22626
854.854	22599
854.988	22405
855.122	22554
855.256	22455
855.39	22527
855.524	22672
855.658	22660
855.792	22618
855.926	22584
856.06	22664
856.194	22774
856.327	22538
856.461	22607
856.595	22618
856.729	22592
856.862	22672
856.996	22649
857.13	22615
857.263	22748
857.397	22546
857.53	22649
857.664	22611
857.797	22599
857.931	22771
858.064	22660
858.197	22687
858.331	22474
858.464	22478
858.597	22478
858.731	22516
858.864	22607
858.997	22542
859.13	22668
859.263	22588
859.396	22717
859.529	22721
859.662	22538
859.795	22481
859.928	22531
860.061	22713
860.194	22725
860.327	22565
860.46	22519
860.592	22839
860.725	22755
860.858	22774
860.99	22626
861.123	22675
861.256	22569
861.388	22645
861.521	23353
861.653	22535
861.786	22421
861.918	22580
862.05	22436
862.183	22596
862.315	22615
862.447	22672
862.58	22485
862.712	22455
862.844	22329
862.976	22348
863.108	22337
863.24	22774
863.372	22268
863.504	22325
863.636	22325
863.768	22272
863.9	22325
864.032	22135
864.164	22238
864.296	22341
864.428	22436
864.559	22379
864.691	22261
864.823	22329
864.954	22314
865.086	22333
865.217	22257
865.349	22135
865.48	22169
865.612	22147
865.743	22402
865.875	22135
866.006	22078
866.137	22147
866.269	22169
866.4	22143
866.531	22120
866.662	22082
866.793	22154
866.924	22002
867.055	22143
867.186	22086
867.317	22036
867.448	21918
867.579	22105
867.71	22105
867.841	22070
867.972	22078
868.103	22124
868.233	22067
868.364	22051
868.495	22185
868.625	22306
868.756	22405
868.886	22322
869.017	22322
869.147	22371
869.278	22386
869.408	22424
869.539	22325
869.669	22440
869.799	22417
869.929	22527
870.06	22481
870.19	22687
870.32	22596
870.45	22653
870.58	22736
870.71	22881
870.84	22774
870.97	22702
871.1	22793
871.23	22850
871.36	22965
871.489	22881
871.619	22957
871.749	22885
871.879	22889
872.008	23010
872.138	22946
872.267	22892
872.397	22710
872.526	22801
872.656	22820
872.785	22801
872.915	22965
873.044	23033
873.173	23079
873.303	22980
873.432	23041
873.561	23048
873.69	22942
873.819	23037
873.948	22900
874.077	22900
874.206	23044
874.335	22885
874.464	23155
874.593	23109
874.722	23136
874.851	23223
874.979	23064
875.108	23261
875.237	23098
875.365	23067
875.494	23113
875.623	23250
875.751	23193
875.88	23235
876.008	23284
876.136	23368
876.265	23547
876.393	23600
876.521	23482
876.65	23733
876.778	23684
876.906	23558
877.034	23433
877.162	23486
877.29	23482
877.418	23387
877.546	23551
877.674	23524
877.802	23463
877.93	23486
878.058	23345
878.185	23433
878.313	23524
878.441	23604
878.568	23368
878.696	23471
878.824	23611
878.951	23570
879.079	23520
879.206	23916
879.333	23775
879.461	23611
879.588	23570
879.715	23634
879.842	23752
879.97	23585
880.097	23448
880.224	23315
880.351	23383
880.478	23318
880.605	23330
880.732	23258
880.859	23516
880.986	23204
881.112	23505
881.239	23155
881.366	23064
881.493	23064
881.619	22778
881.746	22938
881.872	22774
881.999	22980
882.125	22733
882.252	22869
882.378	23033
882.505	22987
882.631	22850
882.757	22485
882.883	22565
883.01	22580
883.136	22459
883.262	22398
883.388	22504
883.514	22497
883.64	22607
883.766	22626
883.892	22276
884.018	22379
884.143	22527
884.269	22622
884.395	22211
884.52	22204
884.646	22185
884.772	22097
884.897	22128
885.023	22215
885.148	22223
885.274	22291
885.399	22306
885.524	22219
885.65	22143
885.775	22188
885.9	22150
886.025	22242
886.15	22287
886.275	22234
886.4	22059
886.525	22234
886.65	22188
886.775	22200
886.9	22234
887.025	22398
887.149	22177
887.274	21983
887.399	21880
887.523	21907
887.648	21922
887.773	21937
887.897	22105
888.021	22124
888.146	21915
888.27	22013
888.395	22048
888.519	21987
888.643	21926
888.767	22074
888.891	21827
889.015	21781
889.139	21816
889.263	21705
889.387	21808
889.511	22002
889.635	21842
889.759	21774
889.883	21747
890.006	21713
890.13	21797
890.254	21762
890.377	21675
890.501	21523
890.624	21416
890.748	21412
890.871	21424
890.995	21218
891.118	21230
891.241	21340
891.364	21226
891.488	21359
891.611	21237
891.734	21382
891.857	21408
891.98	21344
892.103	21340
892.226	21264
892.349	21268
892.471	21150
892.594	21077
892.717	21123
892.839	21165
892.962	21214
893.085	21138
893.207	21112
893.33	20960
893.452	21146
893.575	21203
893.697	21195
893.819	21348
893.941	21313
894.064	21214
894.186	21093
894.308	21184
894.43	21310
894.552	21401
894.674	21180
894.796	21154
894.918	21070
895.04	21127
895.161	21188
895.283	21116
895.405	20990
895.526	21119
895.648	21089
895.769	21154
895.891	21116
896.012	21245
896.134	21142
896.255	21127
896.376	21127
896.498	21096
896.619	21264
896.74	21104
896.861	21252
896.982	21561
897.103	21713
897.224	21504
897.345	21321
897.466	21344
897.587	21313
897.708	21485
897.828	21488
897.949	21249
898.07	21294
898.19	21268
898.311	21428
898.431	21287
898.552	21408
898.672	21367
898.792	21412
898.913	21412
899.033	21260
899.153	21173
899.273	21104
899.393	21085
899.513	21108
899.633	21070
899.753	21093
899.873	21207
899.993	21123
900.113	21195
900.232	21062
900.352	21032
900.472	21001
900.591	20765
900.711	20887
900.83	20823
900.95	21001
901.069	20800
901.189	20781
901.308	20495
901.427	20396
901.546	20404
901.665	20438
901.784	20400
901.904	20294
902.023	20286
902.141	19913
902.26	19932
902.379	20012
902.498	19944
902.617	19909
902.735	19852
902.854	19913
902.973	19723
903.091	19632
903.21	19563
903.328	19594
903.446	19301
903.565	19327
903.683	19426
903.801	19209
903.919	19304
904.038	19331
904.156	19171
904.274	19027
904.392	19088
904.51	19198
904.627	19034
904.745	19129
904.863	19221
904.981	18871
905.098	18760
905.216	18688
905.334	18768
905.451	18871
905.569	18711
905.686	18757
905.803	18810
905.921	18593
906.038	18730
906.155	18536
906.272	18563
906.389	18547
906.506	18342
906.623	18334
906.74	18205
906.857	18148
906.974	18213
907.091	18380
907.208	18391
907.324	18277
907.441	18308
907.557	17988
907.674	18011
907.79	17965
907.907	18049
908.023	18072
908.139	17980
908.256	17916
908.372	17916
908.488	17893
908.604	17786
908.72	17783
908.836	17733
908.952	17634
909.068	17828
909.184	17863
909.3	17718
909.415	17764
909.531	17748
909.647	17478
909.762	17467
909.878	17383
909.993	17490
910.108	17360
910.224	17391
910.339	17440
910.454	17185
910.57	17318
910.685	17216
910.8	17554
910.915	17261
911.03	17322
911.145	17006
911.259	16915
911.374	16946
911.489	16972
911.604	16858
911.718	16790
911.833	16771
911.947	16767
912.062	16500
912.176	16687
912.291	16679
912.405	16687
912.519	16889
912.633	17003
912.748	16850
912.862	16710
912.976	16599
913.09	16508
913.204	16493
913.318	16592
913.431	16645
913.545	16713
913.659	16672
913.772	16489
913.886	16341
914	16352
914.113	16443
914.226	16466
914.34	16493
914.453	16265
914.566	16303
914.68	16272
914.793	16192
914.906	16040
915.019	15998
915.132	15842
915.245	15926
915.358	15956
915.47	15876
915.583	15869
915.696	15991
915.809	16097
915.921	16010
916.034	15915
916.146	15846
916.259	15774
916.371	15842
916.483	15899
916.595	15884
916.708	15736
916.82	15698
916.932	15778
917.044	15759
917.156	15576
917.268	15511
917.38	15591
917.491	15561
917.603	15526
917.715	15679
917.826	15584
917.938	15511
918.049	15321
918.161	15523
918.272	15644
918.384	15576
918.495	15454
918.606	15359
918.717	15241
918.828	15378
918.939	15374
919.05	15249
919.161	15176
919.272	15135
919.383	15066
919.494	15416
919.604	15386
919.715	15298
919.826	15161
919.936	15192
920.047	15264
920.157	15298
920.267	15443
920.378	15283
920.488	15176
920.598	15351
920.708	15549
920.818	15313
920.928	15317
921.038	15572
921.148	15477
921.258	15165
921.368	15062
921.477	15013
921.587	14960
921.697	14899
921.806	14925
921.916	14826
922.025	14674
922.134	14644
922.244	14629
922.353	14610
922.462	14419
922.571	14370
922.68	14278
922.789	14229
922.898	14256
923.007	14244
923.116	14355
923.224	14267
923.333	14290
923.442	14027
923.55	14088
923.659	14142
923.767	14100
923.876	14050
923.984	14081
924.092	13970
924.201	13997
924.309	13974
924.417	14024
924.525	13765
924.633	13898
924.741	14575
924.849	13719
924.956	13776
925.064	13704
925.172	13575
925.279	13643
925.387	13613
925.494	13616
925.602	13761
925.709	13670
925.816	13563
925.924	13556
926.031	13655
926.138	13525
926.245	13559
926.352	13510
926.459	13594
926.566	13559
926.673	13426
926.779	13365
926.886	13377
926.993	13164
927.099	13187
927.206	13164
927.312	13038
927.419	13202
927.525	13107
927.631	13171
927.737	13076
927.843	13114
927.95	12897
928.056	12920
928.162	12890
928.267	13038
928.373	13514
928.479	13015
928.585	12795
928.69	12886
928.796	12954
928.901	12753
929.007	12589
929.112	12783
929.218	12700
929.323	12677
929.428	12578
929.533	12726
929.638	12646
929.743	12582
929.848	12616
929.953	12578
930.058	12448
930.163	12353
930.267	12262
930.372	12490
930.477	12319
930.581	12536
930.685	12403
930.79	12243
930.894	12224
930.998	12178
931.103	12334
931.207	11988
931.311	11939
931.415	11809
931.519	11520
931.623	11558
