Data from test_V78500241_7.txt Node
Date: Fri Mar 25 15:41:51 CST 2022
User: usil
Spectrometer: V785-0024
Trigger mode: 0
Integration Time (sec): 4.000000E-1
Scans to average: 1
Nonlinearity correction enabled: false
Boxcar width: 0
Storing dark spectrum: false
XAxis mode: Wavelengths
Number of Pixels in Spectrum: 1024
>>>>>Begin Spectral Data<<<<<
801.071	27081
801.214	27154
801.356	26819
801.499	26689
801.641	26480
801.783	26431
801.926	26552
802.068	26381
802.211	26434
802.353	26381
802.496	26161
802.638	26161
802.78	26138
802.923	25989
803.065	26016
803.208	25947
803.35	26058
803.492	26172
803.635	26199
803.777	26092
803.919	26149
804.061	26412
804.204	26161
804.346	26065
804.488	25826
804.63	25970
804.773	25784
804.915	25860
805.057	26005
805.199	25970
805.341	25982
805.483	26081
805.626	26035
805.768	25890
805.91	26035
806.052	26122
806.194	25940
806.336	26168
806.478	26039
806.62	26027
806.762	26161
806.904	26244
807.046	26492
807.188	26370
807.33	26347
807.472	26457
807.614	26385
807.756	26172
807.898	26218
808.04	26142
808.182	26122
808.324	26024
808.465	26126
808.607	26351
808.749	26423
808.891	26598
809.033	26552
809.174	26541
809.316	26511
809.458	26511
809.6	26431
809.741	26457
809.883	26461
810.025	26754
810.166	26648
810.308	26823
810.45	26636
810.591	26457
810.733	26507
810.875	26221
811.016	26256
811.158	26275
811.299	26393
811.441	26476
811.582	26549
811.724	26347
811.865	26229
812.007	26320
812.148	26347
812.29	26309
812.431	26499
812.573	26594
812.714	26594
812.855	26891
812.997	26864
813.138	27047
813.279	26933
813.421	26754
813.562	26651
813.703	26484
813.845	26465
813.986	26119
814.127	25951
814.268	25925
814.41	25921
814.551	25932
814.692	26024
814.833	25689
814.974	25852
815.115	25814
815.256	25670
815.397	25693
815.539	25601
815.68	25597
815.821	25518
815.962	25411
816.103	25476
816.244	25331
816.385	25232
816.526	25221
816.666	25031
816.807	24852
816.948	24951
817.089	25088
817.23	24920
817.371	24871
817.512	24878
817.653	24878
817.793	24840
817.934	24856
818.075	24871
818.216	24730
818.356	24798
818.497	24563
818.638	24593
818.778	24642
818.919	24540
819.06	24608
819.2	24669
819.341	24825
819.481	24741
819.622	24825
819.762	25034
819.903	25015
820.043	24878
820.184	24882
820.324	24798
820.465	24840
820.605	24871
820.746	24856
820.886	24578
821.026	24715
821.167	24753
821.307	24856
821.447	24715
821.588	24620
821.728	24612
821.868	24186
822.008	24136
822.149	24190
822.289	24064
822.429	23916
822.569	23840
822.709	23901
822.849	23600
822.99	23577
823.13	23611
823.27	23589
823.41	23360
823.55	23220
823.69	23337
823.83	23376
823.97	23353
824.11	23151
824.25	23143
824.389	23197
824.529	23197
824.669	23048
824.809	23200
824.949	23185
825.089	23174
825.228	23117
825.368	22923
825.508	23018
825.648	23018
825.787	23018
825.927	22908
826.067	22869
826.206	22919
826.346	22843
826.485	22847
826.625	22984
826.765	23006
826.904	22793
827.044	22550
827.183	22641
827.323	22535
827.462	22630
827.601	22592
827.741	22542
827.88	22710
828.02	22382
828.159	22542
828.298	22630
828.437	22630
828.577	22592
828.716	22702
828.855	22447
828.994	22215
829.134	22322
829.273	22196
829.412	22124
829.551	22272
829.69	22344
829.829	22360
829.968	22432
830.107	22428
830.246	22150
830.385	22261
830.524	22128
830.663	22101
830.802	21968
830.941	21713
831.08	21789
831.219	21880
831.357	21922
831.496	22021
831.635	21785
831.774	21694
831.913	21572
832.051	21561
832.19	21610
832.329	21561
832.467	21466
832.606	21462
832.744	21317
832.883	21355
833.022	21408
833.16	21386
833.299	21488
833.437	21481
833.576	21488
833.714	21378
833.852	21435
833.991	21504
834.129	21462
834.267	21542
834.406	21382
834.544	21447
834.682	21447
834.821	21355
834.959	21526
835.097	21344
835.235	21359
835.373	21416
835.511	21412
835.65	21249
835.788	21279
835.926	21173
836.064	21104
836.202	21142
836.34	21321
836.478	21317
836.615	21272
836.753	21249
836.891	21306
837.029	21393
837.167	21127
837.305	21169
837.443	21104
837.58	21017
837.718	21256
837.856	21142
837.993	21043
838.131	21146
838.269	21081
838.406	20979
838.544	20963
838.681	20739
838.819	20750
838.956	20556
839.094	20507
839.231	20606
839.369	20705
839.506	20994
839.643	20720
839.781	20530
839.918	20549
840.055	20476
840.193	20518
840.33	20473
840.467	20476
840.604	20522
840.742	20735
840.879	20404
841.016	20339
841.153	20377
841.29	20564
841.427	20454
841.564	20556
841.701	20514
841.838	20385
841.975	20244
842.112	20355
842.249	20294
842.385	20092
842.522	20393
842.659	20199
842.796	20054
842.933	20092
843.069	20107
843.206	20149
843.343	20107
843.479	20164
843.616	20130
843.752	19890
843.889	19982
844.025	20027
844.162	19807
844.298	19913
844.435	19830
844.571	19689
844.708	19982
844.844	20081
844.98	19986
845.117	20012
845.253	19696
845.389	19780
845.525	19776
845.661	19753
845.798	19597
845.934	19632
846.07	19548
846.206	19689
846.342	19772
846.478	19609
846.614	19346
846.75	19244
846.886	19247
847.022	19335
847.158	19304
847.294	19377
847.429	19407
847.565	19297
847.701	19487
847.837	19110
847.972	18943
848.108	19088
848.244	19183
848.379	18939
848.515	18825
848.65	18871
848.786	18871
848.921	18901
849.057	19008
849.192	18924
849.328	18897
849.463	18916
849.598	18844
849.734	18825
849.869	18631
850.004	18661
850.14	18654
850.275	18585
850.41	18635
850.545	18544
850.68	18532
850.815	18661
850.95	18601
851.085	18635
851.22	18741
851.355	18627
851.49	18570
851.625	18441
851.76	18604
851.895	18669
852.03	18494
852.165	18513
852.299	18642
852.434	18635
852.569	18532
852.703	18494
852.838	18525
852.973	18703
853.107	18623
853.242	18471
853.376	18338
853.511	18308
853.645	18254
853.78	18544
853.914	18498
854.048	18350
854.183	18323
854.317	18426
854.451	18578
854.585	18357
854.72	18342
854.854	18346
854.988	18277
855.122	18338
855.256	18186
855.39	18399
855.524	18464
855.658	18391
855.792	18418
855.926	18418
856.06	18498
856.194	18506
856.327	18388
856.461	18330
856.595	18266
856.729	18323
856.862	18513
856.996	18486
857.13	18506
857.263	18490
857.397	18582
857.53	18281
857.664	18315
857.797	18426
857.931	18433
858.064	18300
858.197	18410
858.331	18296
858.464	18380
858.597	18201
858.731	18281
858.864	18270
858.997	18384
859.13	18330
859.263	18270
859.396	18445
859.529	18273
859.662	18323
859.795	18205
859.928	18429
860.061	18399
860.194	18490
860.327	18243
860.46	18418
860.592	18437
860.725	18460
860.858	18433
860.99	18296
861.123	18186
861.256	18167
861.388	18243
861.521	18863
861.653	18171
861.786	18038
861.918	18136
862.05	18251
862.183	18353
862.315	18410
862.447	18445
862.58	18330
862.712	18167
862.844	17958
862.976	18155
863.108	18087
863.24	18391
863.372	17904
863.504	18003
863.636	17973
863.768	18095
863.9	18019
864.032	17996
864.164	17904
864.296	18019
864.428	18129
864.559	18079
864.691	18144
864.823	18034
864.954	18011
865.086	17980
865.217	17946
865.349	17805
865.48	17912
865.612	17969
865.743	18106
865.875	18030
866.006	17878
866.137	18011
866.269	17935
866.4	17984
866.531	17908
866.662	17935
866.793	17882
866.924	17912
867.055	17866
867.186	18007
867.317	17885
867.448	17794
867.579	17802
867.71	17805
867.841	17748
867.972	17885
868.103	17893
868.233	17920
868.364	17939
868.495	17958
868.625	18076
868.756	18129
868.886	17992
869.017	18186
869.147	18114
869.278	18292
869.408	18171
869.539	18057
869.669	18251
869.799	18106
869.929	18239
870.06	18148
870.19	18479
870.32	18460
870.45	18452
870.58	18521
870.71	18639
870.84	18635
870.97	18490
871.1	18623
871.23	18730
871.36	18730
871.489	18593
871.619	18707
871.749	18719
871.879	18650
872.008	18859
872.138	18654
872.267	18635
872.397	18551
872.526	18559
872.656	18528
872.785	18631
872.915	18738
873.044	18905
873.173	18757
873.303	18844
873.432	18856
873.561	18894
873.69	18920
873.819	18825
873.948	18821
874.077	18814
874.206	18688
874.335	18829
874.464	18924
874.593	18989
874.722	19069
874.851	19031
874.979	19061
875.108	19190
875.237	19000
875.365	19038
875.494	19057
875.623	19270
875.751	19008
875.88	19103
876.008	19247
876.136	19274
876.265	19506
876.393	19571
876.521	19453
876.65	19567
876.778	19468
876.906	19350
877.034	19320
877.162	19445
877.29	19495
877.418	19457
877.546	19457
877.674	19400
877.802	19362
877.93	19491
878.058	19449
878.185	19350
878.313	19400
878.441	19540
878.568	19339
878.696	19350
878.824	19487
878.951	19487
879.079	19651
879.206	19708
879.333	19601
879.461	19567
879.588	19609
879.715	19704
879.842	19753
879.97	19480
880.097	19278
880.224	19183
880.351	19240
880.478	19312
880.605	19225
880.732	19324
880.859	19460
880.986	19293
881.112	19411
881.239	19164
881.366	18973
881.493	18958
881.619	18901
881.746	18920
881.872	19004
881.999	18825
882.125	18814
882.252	18970
882.378	18958
882.505	19004
882.631	18776
882.757	18692
882.883	18897
883.01	18620
883.136	18623
883.262	18623
883.388	18532
883.514	18700
883.64	18768
883.766	18673
883.892	18563
884.018	18547
884.143	18555
884.269	18604
884.395	18407
884.52	18334
884.646	18388
884.772	18327
884.897	18262
885.023	18273
885.148	18346
885.274	18536
885.399	18460
885.524	18342
885.65	18376
885.775	18407
885.9	18346
886.025	18486
886.15	18418
886.275	18273
886.4	18251
886.525	18270
886.65	18251
886.775	18197
886.9	18391
887.025	18570
887.149	18376
887.274	18068
887.399	18083
887.523	18140
887.648	18091
887.773	18045
887.897	18190
888.021	18019
888.146	18049
888.27	18197
888.395	18285
888.519	18144
888.643	18148
888.767	18194
888.891	17916
889.015	17927
889.139	18011
889.263	17897
889.387	17984
889.511	18140
889.635	18079
889.759	17901
889.883	17828
890.006	17916
890.13	18011
890.254	17783
890.377	17897
890.501	17756
890.624	17771
890.748	17707
890.871	17528
890.995	17493
891.118	17391
891.241	17562
891.364	17512
891.488	17722
891.611	17509
891.734	17535
891.857	17554
891.98	17592
892.103	17585
892.226	17566
892.349	17482
892.471	17376
892.594	17387
892.717	17398
892.839	17414
892.962	17459
893.085	17577
893.207	17452
893.33	17311
893.452	17459
893.575	17532
893.697	17486
893.819	17668
893.941	17790
894.064	17543
894.186	17493
894.308	17391
894.43	17562
894.552	17741
894.674	17630
894.796	17410
894.918	17547
895.04	17554
895.161	17551
895.283	17505
895.405	17356
895.526	17493
895.648	17539
895.769	17581
895.891	17615
896.012	17615
896.134	17520
896.255	17592
896.376	17608
896.498	17581
896.619	17661
896.74	17661
896.861	17642
896.982	17942
897.103	18064
897.224	17882
897.345	17828
897.466	17722
897.587	17889
897.708	17942
897.828	17836
897.949	17832
898.07	17805
898.19	17783
898.311	17790
898.431	17802
898.552	17790
898.672	17882
898.792	17920
898.913	17771
899.033	17710
899.153	17649
899.273	17585
899.393	17668
899.513	17653
899.633	17551
899.753	17573
899.873	17436
899.993	17665
900.113	17566
900.232	17661
900.352	17455
900.472	17436
900.591	17414
900.711	17486
900.83	17398
900.95	17505
901.069	17608
901.189	17307
901.308	17109
901.427	17006
901.546	16984
901.665	17159
901.784	17006
901.904	16923
902.023	16748
902.141	16641
902.26	16561
902.379	16713
902.498	16516
902.617	16508
902.735	16622
902.854	16493
902.973	16466
903.091	16124
903.21	16215
903.328	16185
903.446	16246
903.565	16036
903.683	16086
903.801	16013
903.919	16063
904.038	16036
904.156	15857
904.274	15930
904.392	15827
904.51	15861
904.627	15934
904.745	15800
904.863	15888
904.981	15656
905.098	15618
905.216	15519
905.334	15557
905.451	15553
905.569	15530
905.686	15606
905.803	15591
905.921	15245
906.038	15370
906.155	15306
906.272	15317
906.389	15283
906.506	15135
906.623	15089
906.74	15104
906.857	14971
906.974	15024
907.091	15108
907.208	15135
907.324	15108
907.441	14971
907.557	14792
907.674	14727
907.79	14670
907.907	14705
908.023	14823
908.139	14796
908.256	14769
908.372	14659
908.488	14545
908.604	14488
908.72	14366
908.836	14526
908.952	14461
909.068	14412
909.184	14526
909.3	14423
909.415	14480
909.531	14503
909.647	14176
909.762	14214
909.878	14134
909.993	14183
910.108	14191
910.224	14176
910.339	14191
910.454	14069
910.57	13925
910.685	13978
910.8	14225
910.915	14119
911.03	14020
911.145	13883
911.259	13841
911.374	13822
911.489	13841
911.604	13795
911.718	13521
911.833	13655
911.947	13537
912.062	13369
912.176	13636
912.291	13556
912.405	13613
912.519	13727
912.633	13689
912.748	13567
912.862	13544
912.976	13331
913.09	13240
913.204	13365
913.318	13362
913.431	13453
913.545	13502
913.659	13419
913.772	13407
913.886	13324
914	13190
914.113	13369
914.226	13304
914.34	13240
914.453	13126
914.566	13255
914.68	13175
914.793	13072
914.906	12973
915.019	12859
915.132	12806
915.245	12954
915.358	13004
915.47	12840
915.583	13023
915.696	13050
915.809	13012
915.921	13061
916.034	12939
916.146	12871
916.259	12749
916.371	12852
916.483	12894
916.595	12738
916.708	12810
916.82	12810
916.932	12806
917.044	12738
917.156	12681
917.268	12589
917.38	12635
917.491	12597
917.603	12707
917.715	12722
917.826	12825
917.938	12627
918.049	12475
918.161	12620
918.272	12753
918.384	12738
918.495	12616
918.606	12418
918.717	12380
918.828	12509
918.939	12399
919.05	12334
919.161	12365
919.272	12292
919.383	12289
919.494	12471
919.604	12517
919.715	12418
919.826	12384
919.936	12403
920.047	12494
920.157	12445
920.267	12620
920.378	12441
920.488	12399
920.598	12604
920.708	12665
920.818	12578
920.928	12551
921.038	12734
921.148	12715
921.258	12388
921.368	12270
921.477	12148
921.587	12102
921.697	12022
921.806	12155
921.916	12117
922.025	11851
922.134	11889
922.244	11863
922.353	11889
922.462	11748
922.571	11653
922.68	11532
922.789	11452
922.898	11486
923.007	11471
923.116	11596
923.224	11444
923.333	11471
923.442	11280
923.55	11292
923.659	11303
923.767	11410
923.876	11284
923.984	11368
924.092	11280
924.201	11231
924.309	11318
924.417	11254
924.525	11212
924.633	11235
924.741	12182
924.849	11105
924.956	11208
925.064	11010
925.172	11025
925.279	11029
925.387	11083
925.494	11067
925.602	11136
925.709	11121
925.816	10961
925.924	10968
926.031	11064
926.138	10949
926.245	11052
926.352	10938
926.459	11048
926.566	11067
926.673	10908
926.779	10877
926.886	10816
926.993	10740
927.099	10698
927.206	10592
927.312	10694
927.419	10744
927.525	10675
927.631	10683
927.737	10611
927.843	10478
927.95	10493
928.056	10512
928.162	10577
928.267	10554
928.373	11231
928.479	10603
928.585	10386
928.69	10493
928.796	10523
928.901	10443
929.007	10204
929.112	10344
929.218	10398
929.323	10261
929.428	10257
929.533	10432
929.638	10223
929.743	10257
929.848	10303
929.953	10238
930.058	10101
930.163	9975
930.267	9987
930.372	10128
930.477	9987
930.581	10200
930.685	10051
930.79	9941
930.894	9934
930.998	9884
931.103	10044
931.207	9652
931.311	9622
931.415	9511
931.519	9317
931.623	9291
