Data from test_V78500241_1431.txt Node
Date: Fri Mar 25 15:51:42 CST 2022
User: usil
Spectrometer: V785-0024
Trigger mode: 0
Integration Time (sec): 4.000000E-1
Scans to average: 1
Nonlinearity correction enabled: false
Boxcar width: 0
Storing dark spectrum: false
XAxis mode: Wavelengths
Number of Pixels in Spectrum: 1024
>>>>>Begin Spectral Data<<<<<
801.071	28375
801.214	28188
801.356	28036
801.499	28109
801.641	27911
801.783	27888
801.926	28116
802.068	27968
802.211	27774
802.353	27641
802.496	27564
802.638	27625
802.78	27701
802.923	27447
803.065	27443
803.208	27564
803.35	27542
803.492	27667
803.635	27690
803.777	27614
803.919	27747
804.061	28116
804.204	27914
804.346	27732
804.488	27778
804.63	27892
804.773	27808
804.915	27873
805.057	27854
805.199	27804
805.341	27789
805.483	28013
805.626	27895
805.768	27846
805.91	28006
806.052	27994
806.194	27865
806.336	28158
806.478	27949
806.62	28032
806.762	28097
806.904	28215
807.046	28299
807.188	28344
807.33	28303
807.472	28382
807.614	28253
807.756	28451
807.898	28188
808.04	28150
808.182	28276
808.324	28462
808.465	28409
808.607	28519
808.749	28759
808.891	28721
809.033	28793
809.174	28683
809.316	28637
809.458	28557
809.6	28580
809.741	28713
809.883	28790
810.025	28927
810.166	28961
810.308	28881
810.45	28755
810.591	28873
810.733	28618
810.875	28634
811.016	28470
811.158	28527
811.299	28668
811.441	28653
811.582	28778
811.724	28698
811.865	28527
812.007	28618
812.148	28675
812.29	28679
812.431	28892
812.573	28805
812.714	29025
812.855	29193
812.997	29235
813.138	29421
813.279	29227
813.421	29155
813.562	29143
813.703	28938
813.845	28839
813.986	28687
814.127	28497
814.268	28272
814.41	28337
814.551	28303
814.692	28398
814.833	28310
814.974	28230
815.115	28352
815.256	28166
815.397	28207
815.539	28238
815.68	28131
815.821	28078
815.962	28253
816.103	28105
816.244	28002
816.385	27854
816.526	27880
816.666	27675
816.807	27473
816.948	27633
817.089	27663
817.23	27637
817.371	27466
817.512	27587
817.653	27625
817.793	27473
817.934	27652
818.075	27701
818.216	27656
818.356	27644
818.497	27523
818.638	27405
818.778	27397
818.919	27389
819.06	27511
819.2	27458
819.341	27500
819.481	27625
819.622	27884
819.762	27797
819.903	27956
820.043	27789
820.184	27781
820.324	27618
820.465	27793
820.605	27804
820.746	27739
820.886	27671
821.026	27648
821.167	27698
821.307	27663
821.447	27663
821.588	27507
821.728	27287
821.868	27138
822.008	27085
822.149	27157
822.289	27043
822.429	26845
822.569	26785
822.709	26731
822.849	26686
822.99	26514
823.13	26556
823.27	26564
823.41	26275
823.55	26453
823.69	26404
823.83	26415
823.97	26343
824.11	26210
824.25	26271
824.389	26313
824.529	26332
824.669	26221
824.809	26442
824.949	26332
825.089	26244
825.228	26457
825.368	26134
825.508	26096
825.648	25951
825.787	26168
825.927	26180
826.067	25982
826.206	26130
826.346	26176
826.485	26092
826.625	26020
826.765	26252
826.904	26218
827.044	25913
827.183	25799
827.323	25826
827.462	25970
827.601	25883
827.741	25761
827.88	25765
828.02	25712
828.159	25894
828.298	25879
828.437	25837
828.577	25879
828.716	25837
828.855	25757
828.994	25597
829.134	25635
829.273	25559
829.412	25479
829.551	25381
829.69	25609
829.829	25476
829.968	25594
830.107	25472
830.246	25616
830.385	25457
830.524	25365
830.663	25407
830.802	25217
830.941	25171
831.08	25027
831.219	25141
831.357	25175
831.496	25236
831.635	25012
831.774	25027
831.913	24894
832.051	24890
832.19	24821
832.329	24932
832.467	24642
832.606	24776
832.744	24867
832.883	24681
833.022	24795
833.16	24840
833.299	24829
833.437	24776
833.576	24848
833.714	24970
833.852	24970
833.991	25027
834.129	25015
834.267	24966
834.406	24871
834.544	24886
834.682	24848
834.821	24951
834.959	25004
835.097	24852
835.235	24897
835.373	24882
835.511	24776
835.65	24654
835.788	24677
835.926	24593
836.064	24460
836.202	24471
836.34	24707
836.478	24726
836.615	24574
836.753	24563
836.891	24779
837.029	24692
837.167	24479
837.305	24646
837.443	24505
837.58	24616
837.718	24578
837.856	24490
837.993	24475
838.131	24551
838.269	24441
838.406	24384
838.544	24342
838.681	24098
838.819	24152
838.956	23946
839.094	23977
839.231	24136
839.369	24102
839.506	24418
839.643	24190
839.781	24079
839.918	23992
840.055	23965
840.193	23863
840.33	23843
840.467	23939
840.604	23916
840.742	24186
840.879	23840
841.016	23836
841.153	23745
841.29	24083
841.427	23836
841.564	23901
841.701	23863
841.838	23745
841.975	23745
842.112	23836
842.249	23627
842.385	23566
842.522	23798
842.659	23733
842.796	23707
842.933	23535
843.069	23543
843.206	23623
843.343	23649
843.479	23619
843.616	23703
843.752	23398
843.889	23364
844.025	23554
844.162	23383
844.298	23509
844.435	23402
844.571	23360
844.708	23459
844.844	23509
844.98	23467
845.117	23512
845.253	23410
845.389	23284
845.525	23258
845.661	23174
845.798	23056
845.934	23193
846.07	23113
846.206	23185
846.342	23204
846.478	23132
846.614	22953
846.75	22873
846.886	22942
847.022	22915
847.158	22877
847.294	22710
847.429	22736
847.565	22782
847.701	23090
847.837	22497
847.972	22569
848.108	22816
848.244	22603
848.379	22531
848.515	22531
848.65	22504
848.786	22538
848.921	22348
849.057	22531
849.192	22478
849.328	22519
849.463	22367
849.598	22455
849.734	22322
849.869	22177
850.004	22230
850.14	22329
850.275	22291
850.41	22086
850.545	22200
850.68	22177
850.815	22299
850.95	22211
851.085	22325
851.22	22367
851.355	22242
851.49	22188
851.625	22173
851.76	22154
851.895	22078
852.03	22139
852.165	22162
852.299	22188
852.434	22284
852.569	22215
852.703	22230
852.838	22299
852.973	22295
853.107	22272
853.242	22226
853.376	22116
853.511	21899
853.645	21987
853.78	22120
853.914	22025
854.048	21987
854.183	22124
854.317	22128
854.451	22284
854.585	22044
854.72	22032
854.854	22150
854.988	21937
855.122	22040
855.256	21857
855.39	22082
855.524	22135
855.658	22059
855.792	22017
855.926	21998
856.06	22021
856.194	22135
856.327	22112
856.461	21941
856.595	21880
856.729	22040
856.862	22124
856.996	22101
857.13	22177
857.263	22173
857.397	22048
857.53	22040
857.664	22105
857.797	22147
857.931	22059
858.064	22112
858.197	22082
858.331	22025
858.464	22021
858.597	21861
858.731	21991
858.864	21903
858.997	22017
859.13	21972
859.263	21994
859.396	22192
859.529	22017
859.662	21922
859.795	21975
859.928	22055
860.061	22249
860.194	22135
860.327	22044
860.46	22032
860.592	22112
860.725	22192
860.858	22131
860.99	22097
861.123	21937
861.256	21937
861.388	22097
861.521	22569
861.653	21808
861.786	21743
861.918	21934
862.05	21861
862.183	21991
862.315	22044
862.447	22063
862.58	21911
862.712	21698
862.844	21739
862.976	21968
863.108	21785
863.24	22162
863.372	21648
863.504	21770
863.636	21774
863.768	21797
863.9	21656
864.032	21701
864.164	21751
864.296	21709
864.428	21884
864.559	21736
864.691	21732
864.823	21694
864.954	21743
865.086	21724
865.217	21679
865.349	21625
865.48	21644
865.612	21641
865.743	21679
865.875	21576
866.006	21667
866.137	21625
866.269	21557
866.4	21542
866.531	21443
866.662	21561
866.793	21637
866.924	21500
867.055	21656
867.186	21618
867.317	21538
867.448	21412
867.579	21485
867.71	21564
867.841	21428
867.972	21496
868.103	21545
868.233	21599
868.364	21580
868.495	21679
868.625	21713
868.756	21838
868.886	21641
869.017	21823
869.147	21861
869.278	21846
869.408	21812
869.539	21854
869.669	21835
869.799	21838
869.929	21838
870.06	21968
870.19	22040
870.32	22013
870.45	22090
870.58	22177
870.71	22325
870.84	22348
870.97	22128
871.1	22116
871.23	22344
871.36	22436
871.489	22219
871.619	22318
871.749	22303
871.879	22436
872.008	22428
872.138	22413
872.267	22306
872.397	22261
872.526	22166
872.656	22261
872.785	22090
872.915	22485
873.044	22466
873.173	22447
873.303	22432
873.432	22504
873.561	22432
873.69	22474
873.819	22405
873.948	22519
874.077	22390
874.206	22413
874.335	22375
874.464	22481
874.593	22664
874.722	22478
874.851	22687
874.979	22588
875.108	22573
875.237	22615
875.365	22508
875.494	22542
875.623	22702
875.751	22561
875.88	22618
876.008	22835
876.136	22839
876.265	22961
876.393	23170
876.521	23056
876.65	23052
876.778	23025
876.906	22927
877.034	22942
877.162	22946
877.29	22869
877.418	23086
877.546	22961
877.674	22892
877.802	23113
877.93	22942
878.058	23006
878.185	22839
878.313	22900
878.441	22896
878.568	22801
878.696	22953
878.824	23083
878.951	23018
879.079	23094
879.206	23208
879.333	23003
879.461	23018
879.588	22930
879.715	23098
879.842	23151
879.97	23086
880.097	22763
880.224	22801
880.351	22790
880.478	22816
880.605	22774
880.732	22805
880.859	23056
880.986	22850
881.112	22649
881.239	22672
881.366	22649
881.493	22436
881.619	22417
881.746	22459
881.872	22432
881.999	22375
882.125	22295
882.252	22440
882.378	22333
882.505	22508
882.631	22196
882.757	22032
882.883	22173
883.01	22006
883.136	21926
883.262	21827
883.388	21873
883.514	22196
883.64	22276
883.766	21835
883.892	21793
884.018	21991
884.143	22063
884.269	22154
884.395	21694
884.52	21747
884.646	21629
884.772	21652
884.897	21618
885.023	21766
885.148	21736
885.274	21797
885.399	21785
885.524	21747
885.65	21667
885.775	21766
885.9	21713
886.025	21812
886.15	21709
886.275	21667
886.4	21523
886.525	21724
886.65	21618
886.775	21622
886.9	21816
887.025	21838
887.149	21538
887.274	21580
887.399	21428
887.523	21553
887.648	21458
887.773	21272
887.897	21488
888.021	21511
888.146	21397
888.27	21504
888.395	21519
888.519	21481
888.643	21443
888.767	21439
888.891	21313
889.015	21332
889.139	21397
889.263	21169
889.387	21199
889.511	21336
889.635	21283
889.759	21165
889.883	21184
890.006	21199
890.13	21291
890.254	21051
890.377	21131
890.501	20921
890.624	20933
890.748	20979
890.871	20758
890.995	20720
891.118	20689
891.241	20743
891.364	20750
891.488	20826
891.611	20773
891.734	20743
891.857	20838
891.98	20781
892.103	20777
892.226	20914
892.349	20735
892.471	20526
892.594	20727
892.717	20735
892.839	20686
892.962	20712
893.085	20781
893.207	20609
893.33	20530
893.452	20674
893.575	20861
893.697	20617
893.819	20834
893.941	20960
894.064	20811
894.186	20552
894.308	20541
894.43	20663
894.552	20746
894.674	20762
894.796	20537
894.918	20689
895.04	20632
895.161	20777
895.283	20712
895.405	20617
895.526	20602
895.648	20590
895.769	20670
895.891	20659
896.012	20750
896.134	20811
896.255	20689
896.376	20670
896.498	20651
896.619	20727
896.74	20693
896.861	20663
896.982	20933
897.103	21043
897.224	20960
897.345	20895
897.466	20769
897.587	20899
897.708	21066
897.828	20952
897.949	20807
898.07	20689
898.19	20845
898.311	20872
898.431	20849
898.552	20880
898.672	20849
898.792	20990
898.913	20811
899.033	20788
899.153	20705
899.273	20644
899.393	20602
899.513	20617
899.633	20590
899.753	20731
899.873	20621
899.993	20674
900.113	20560
900.232	20686
900.352	20587
900.472	20507
900.591	20431
900.711	20465
900.83	20377
900.95	20450
901.069	20465
901.189	20347
901.308	20050
901.427	19940
901.546	20062
901.665	19993
901.784	20008
901.904	19871
902.023	19681
902.141	19445
902.26	19510
902.379	19502
902.498	19453
902.617	19480
902.735	19525
902.854	19362
902.973	19476
903.091	19168
903.21	19129
903.328	19038
903.446	19015
903.565	18928
903.683	18962
903.801	18817
903.919	18996
904.038	18810
904.156	18612
904.274	18795
904.392	18696
904.51	18616
904.627	18757
904.745	18772
904.863	18635
904.981	18536
905.098	18429
905.216	18327
905.334	18357
905.451	18422
905.569	18277
905.686	18388
905.803	18395
905.921	18106
906.038	18319
906.155	18270
906.272	18072
906.389	18019
906.506	17931
906.623	17859
906.74	17855
906.857	17680
906.974	17756
907.091	17931
907.208	18003
907.324	17920
907.441	17794
907.557	17604
907.674	17623
907.79	17600
907.907	17562
908.023	17661
908.139	17554
908.256	17589
908.372	17463
908.488	17379
908.604	17273
908.72	17280
908.836	17341
908.952	17326
909.068	17315
909.184	17433
909.3	17311
909.415	17402
909.531	17212
909.647	17109
909.762	17014
909.878	17064
909.993	16984
910.108	16961
910.224	16965
910.339	16999
910.454	16946
910.57	16809
910.685	16740
910.8	16968
910.915	16942
911.03	16752
911.145	16691
911.259	16660
911.374	16542
911.489	16546
911.604	16455
911.718	16402
911.833	16314
911.947	16329
912.062	16246
912.176	16303
912.291	16474
912.405	16348
912.519	16550
912.633	16493
912.748	16413
912.862	16352
912.976	16169
913.09	16059
913.204	16006
913.318	16181
913.431	16234
913.545	16246
913.659	16234
913.772	16074
913.886	16055
914	15827
914.113	16032
914.226	16074
914.34	16051
914.453	15846
914.566	15800
914.68	15854
914.793	15717
914.906	15629
915.019	15538
915.132	15485
915.245	15462
915.358	15591
915.47	15511
915.583	15553
915.696	15561
915.809	15614
915.921	15667
916.034	15485
916.146	15321
916.259	15500
916.371	15416
916.483	15428
916.595	15401
916.708	15310
916.82	15405
916.932	15329
917.044	15317
917.156	15268
917.268	15249
917.38	15199
917.491	15214
917.603	15207
917.715	15184
917.826	15306
917.938	15055
918.049	15051
918.161	15074
918.272	15184
918.384	15275
918.495	15093
918.606	14979
918.717	14906
918.828	14979
918.939	14971
919.05	14895
919.161	14914
919.272	14796
919.383	14758
919.494	14933
919.604	15192
919.715	14857
919.826	14857
919.936	14906
920.047	14872
920.157	14868
920.267	15077
920.378	14849
920.488	14914
920.598	15138
920.708	15176
920.818	14880
920.928	15017
921.038	15116
921.148	15074
921.258	14864
921.368	14727
921.477	14651
921.587	14571
921.697	14594
921.806	14617
921.916	14526
922.025	14244
922.134	14248
922.244	14183
922.353	14347
922.462	14084
922.571	14005
922.68	13871
922.789	13856
922.898	13902
923.007	13837
923.116	13951
923.224	13879
923.333	13860
923.442	13715
923.55	13727
923.659	13670
923.767	13814
923.876	13605
923.984	13811
924.092	13597
924.201	13628
924.309	13609
924.417	13681
924.525	13506
924.633	13651
924.741	14259
924.849	13407
924.956	13495
925.064	13316
925.172	13274
925.279	13263
925.387	13316
925.494	13270
925.602	13343
925.709	13297
925.816	13228
925.924	13236
926.031	13327
926.138	13263
926.245	13198
926.352	13175
926.459	13168
926.566	13244
926.673	13012
926.779	12985
926.886	12954
926.993	12894
927.099	12920
927.206	12837
927.312	12719
927.419	12787
927.525	12772
927.631	12795
927.737	12825
927.843	12650
927.95	12654
928.056	12722
928.162	12658
928.267	12772
928.373	13251
928.479	12760
928.585	12559
928.69	12665
928.796	12639
928.901	12486
929.007	12441
929.112	12513
929.218	12464
929.323	12429
929.428	12338
929.533	12486
929.638	12243
929.743	12262
929.848	12224
929.953	12281
930.058	12228
930.163	11954
930.267	12019
930.372	12182
930.477	12022
930.581	12292
930.685	12114
930.79	11916
930.894	12019
930.998	11885
931.103	12034
931.207	11707
931.311	11619
931.415	11520
931.519	11216
931.623	11208
