Data from test_V78500241_1570.txt Node
Date: Fri Mar 25 15:52:40 CST 2022
User: usil
Spectrometer: V785-0024
Trigger mode: 0
Integration Time (sec): 4.000000E-1
Scans to average: 1
Nonlinearity correction enabled: false
Boxcar width: 0
Storing dark spectrum: false
XAxis mode: Wavelengths
Number of Pixels in Spectrum: 1024
>>>>>Begin Spectral Data<<<<<
801.071	28204
801.214	28276
801.356	28078
801.499	27850
801.641	27789
801.783	27713
801.926	27861
802.068	27816
802.211	27679
802.353	27736
802.496	27450
802.638	27450
802.78	27526
802.923	27416
803.065	27405
803.208	27374
803.35	27462
803.492	27542
803.635	27709
803.777	27519
803.919	27797
804.061	28051
804.204	27854
804.346	27572
804.488	27618
804.63	27861
804.773	27545
804.915	27720
805.057	27816
805.199	27663
805.341	27819
805.483	27770
805.626	27861
805.768	27751
805.91	27842
806.052	27880
806.194	27705
806.336	27945
806.478	27846
806.62	27911
806.762	27842
806.904	28086
807.046	28451
807.188	28253
807.33	28310
807.472	28284
807.614	28200
807.756	28299
807.898	28147
808.04	27941
808.182	28059
808.324	28093
808.465	28097
808.607	28234
808.749	28535
808.891	28577
809.033	28725
809.174	28557
809.316	28451
809.458	28478
809.6	28565
809.741	28615
809.883	28717
810.025	28812
810.166	28599
810.308	28710
810.45	28763
810.591	28793
810.733	28508
810.875	28519
811.016	28466
811.158	28390
811.299	28565
811.441	28660
811.582	28672
811.724	28516
811.865	28542
812.007	28443
812.148	28474
812.29	28489
812.431	28519
812.573	28790
812.714	28881
812.855	28938
812.997	28949
813.138	29193
813.279	29124
813.421	29094
813.562	28949
813.703	28748
813.845	28782
813.986	28519
814.127	28417
814.268	28230
814.41	28238
814.551	28101
814.692	28291
814.833	28223
814.974	28093
815.115	28173
815.256	28006
815.397	28074
815.539	28002
815.68	27854
815.821	27956
815.962	27930
816.103	27983
816.244	27808
816.385	27755
816.526	27785
816.666	27477
816.807	27382
816.948	27424
817.089	27606
817.23	27526
817.371	27443
817.512	27435
817.653	27488
817.793	27283
817.934	27443
818.075	27507
818.216	27370
818.356	27443
818.497	27439
818.638	27264
818.778	27169
818.919	27211
819.06	27310
819.2	27458
819.341	27431
819.481	27534
819.622	27644
819.762	27880
819.903	27743
820.043	27614
820.184	27538
820.324	27663
820.465	27625
820.605	27568
820.746	27637
820.886	27408
821.026	27614
821.167	27610
821.307	27511
821.447	27370
821.588	27408
821.728	27355
821.868	27119
822.008	27028
822.149	26971
822.289	26906
822.429	26769
822.569	26762
822.709	26602
822.849	26484
822.99	26476
823.13	26461
823.27	26522
823.41	26282
823.55	26153
823.69	26332
823.83	26332
823.97	26221
824.11	26111
824.25	26088
824.389	26142
824.529	26161
824.669	26168
824.809	26119
824.949	26168
825.089	26180
825.228	26191
825.368	25936
825.508	25917
825.648	26126
825.787	25986
825.927	26027
826.067	25986
826.206	25993
826.346	26012
826.485	25917
826.625	25974
826.765	26111
826.904	26046
827.044	25750
827.183	25753
827.323	25814
827.462	25803
827.601	25628
827.741	25750
827.88	25875
828.02	25624
828.159	25734
828.298	25772
828.437	25826
828.577	25597
828.716	25784
828.855	25609
828.994	25297
829.134	25415
829.273	25434
829.412	25335
829.551	25187
829.69	25506
829.829	25388
829.968	25449
830.107	25441
830.246	25362
830.385	25358
830.524	25312
830.663	25187
830.802	25027
830.941	25061
831.08	25057
831.219	25148
831.357	25091
831.496	25141
831.635	24951
831.774	24935
831.913	24795
832.051	24791
832.19	24825
832.329	24791
832.467	24654
832.606	24673
832.744	24620
832.883	24635
833.022	24574
833.16	24669
833.299	24890
833.437	24566
833.576	24791
833.714	24696
833.852	24768
833.991	24924
834.129	24745
834.267	24802
834.406	24673
834.544	24730
834.682	24597
834.821	24779
834.959	24852
835.097	24616
835.235	24719
835.373	24681
835.511	24661
835.65	24627
835.788	24665
835.926	24521
836.064	24384
836.202	24399
836.34	24642
836.478	24570
836.615	24559
836.753	24563
836.891	24635
837.029	24631
837.167	24441
837.305	24498
837.443	24475
837.58	24486
837.718	24521
837.856	24414
837.993	24304
838.131	24441
838.269	24171
838.406	24205
838.544	24194
838.681	24030
838.819	23885
838.956	23885
839.094	23863
839.231	23904
839.369	23935
839.506	24232
839.643	24102
839.781	23927
839.918	23809
840.055	23798
840.193	23855
840.33	23790
840.467	23783
840.604	23760
840.742	23984
840.879	23615
841.016	23684
841.153	23710
841.29	23794
841.427	23794
841.564	23813
841.701	23745
841.838	23634
841.975	23638
842.112	23775
842.249	23649
842.385	23604
842.522	23805
842.659	23718
842.796	23505
842.933	23577
843.069	23459
843.206	23455
843.343	23608
843.479	23516
843.616	23570
843.752	23299
843.889	23387
844.025	23356
844.162	23147
844.298	23501
844.435	23170
844.571	23220
844.708	23303
844.844	23471
844.98	23448
845.117	23440
845.253	23200
845.389	23189
845.525	23204
845.661	23181
845.798	23086
845.934	23071
846.07	22881
846.206	23067
846.342	23143
846.478	22961
846.614	22847
846.75	22771
846.886	22843
847.022	22748
847.158	22713
847.294	22702
847.429	22820
847.565	22721
847.701	23010
847.837	22622
847.972	22466
848.108	22656
848.244	22615
848.379	22322
848.515	22257
848.65	22303
848.786	22341
848.921	22459
849.057	22470
849.192	22470
849.328	22481
849.463	22470
849.598	22253
849.734	22200
849.869	22181
850.004	22093
850.14	22188
850.275	22059
850.41	22044
850.545	22105
850.68	22013
850.815	22116
850.95	22200
851.085	22265
851.22	22284
851.355	22086
851.49	22234
851.625	22086
851.76	22109
851.895	22051
852.03	22055
852.165	22097
852.299	22166
852.434	22181
852.569	22169
852.703	22105
852.838	22116
852.973	22196
853.107	22162
853.242	22097
853.376	21823
853.511	21823
853.645	21960
853.78	21964
853.914	21983
854.048	21922
854.183	21960
854.317	21831
854.451	22093
854.585	21945
854.72	22029
854.854	22021
854.988	21873
855.122	21861
855.256	21701
855.39	21857
855.524	21975
855.658	22017
855.792	21934
855.926	21934
856.06	21857
856.194	21968
856.327	21869
856.461	21797
856.595	21865
856.729	21998
856.862	22162
856.996	22051
857.13	21975
857.263	21922
857.397	22101
857.53	21797
857.664	21960
857.797	21968
857.931	22002
858.064	21975
858.197	22078
858.331	21979
858.464	21857
858.597	21728
858.731	21945
858.864	21842
858.997	21918
859.13	21945
859.263	21880
859.396	22063
859.529	21926
859.662	21926
859.795	21911
859.928	22025
860.061	22055
860.194	22169
860.327	21979
860.46	22013
860.592	22070
860.725	22048
860.858	22124
860.99	21888
861.123	21823
861.256	21797
861.388	21838
861.521	22413
861.653	21743
861.786	21717
861.918	21690
862.05	21865
862.183	21770
862.315	21937
862.447	22070
862.58	21876
862.712	21660
862.844	21595
862.976	21694
863.108	21606
863.24	22101
863.372	21477
863.504	21599
863.636	21641
863.768	21713
863.9	21553
864.032	21580
864.164	21587
864.296	21610
864.428	21747
864.559	21709
864.691	21519
864.823	21583
864.954	21641
865.086	21633
865.217	21690
865.349	21420
865.48	21637
865.612	21576
865.743	21652
865.875	21526
866.006	21572
866.137	21572
866.269	21477
866.4	21564
866.531	21507
866.662	21466
866.793	21397
866.924	21344
867.055	21466
867.186	21473
867.317	21397
867.448	21313
867.579	21435
867.71	21340
867.841	21306
867.972	21530
868.103	21473
868.233	21370
868.364	21428
868.495	21614
868.625	21709
868.756	21831
868.886	21720
869.017	21682
869.147	21736
869.278	21869
869.408	21599
869.539	21743
869.669	21690
869.799	21679
869.929	21846
870.06	21842
870.19	21934
870.32	21975
870.45	22120
870.58	22139
870.71	22291
870.84	22207
870.97	22059
871.1	22135
871.23	22333
871.36	22246
871.489	22219
871.619	22196
871.749	22344
871.879	22356
872.008	22443
872.138	22284
872.267	22280
872.397	22226
872.526	22040
872.656	22082
872.785	22078
872.915	22246
873.044	22497
873.173	22280
873.303	22325
873.432	22432
873.561	22363
873.69	22344
873.819	22280
873.948	22493
874.077	22329
874.206	22295
874.335	22169
874.464	22432
874.593	22660
874.722	22512
874.851	22645
874.979	22504
875.108	22721
875.237	22428
875.365	22519
875.494	22538
875.623	22630
875.751	22436
875.88	22432
876.008	22687
876.136	22771
876.265	22927
876.393	23022
876.521	23048
876.65	22976
876.778	22869
876.906	22908
877.034	22706
877.162	22793
877.29	22854
877.418	22968
877.546	22934
877.674	22812
877.802	22896
877.93	22782
878.058	22820
878.185	22710
878.313	22847
878.441	22900
878.568	22752
878.696	22793
878.824	22839
878.951	22972
879.079	23014
879.206	23132
879.333	23151
879.461	22892
879.588	22919
879.715	22908
879.842	23143
879.97	22961
880.097	22786
880.224	22664
880.351	22858
880.478	22778
880.605	22702
880.732	22653
880.859	22984
880.986	22656
881.112	22713
881.239	22592
881.366	22405
881.493	22280
881.619	22341
881.746	22284
881.872	22314
881.999	22306
882.125	22215
882.252	22291
882.378	22253
882.505	22371
882.631	22154
882.757	21930
882.883	21922
883.01	21888
883.136	21968
883.262	21682
883.388	21728
883.514	21823
883.64	22044
883.766	21911
883.892	21686
884.018	21838
884.143	21972
884.269	21968
884.395	21599
884.52	21553
884.646	21549
884.772	21648
884.897	21500
885.023	21557
885.148	21663
885.274	21850
885.399	21701
885.524	21553
885.65	21701
885.775	21564
885.9	21644
886.025	21576
886.15	21652
886.275	21542
886.4	21572
886.525	21519
886.65	21530
886.775	21568
886.9	21705
887.025	21854
887.149	21500
887.274	21401
887.399	21272
887.523	21454
887.648	21344
887.773	21272
887.897	21340
888.021	21351
888.146	21203
888.27	21473
888.395	21344
888.519	21359
888.643	21416
888.767	21374
888.891	21351
889.015	21218
889.139	21264
889.263	21161
889.387	21203
889.511	21367
889.635	21264
889.759	21154
889.883	21051
890.006	21108
890.13	21176
890.254	21089
890.377	21093
890.501	20868
890.624	20880
890.748	20994
890.871	20746
890.995	20796
891.118	20667
891.241	20842
891.364	20838
891.488	20807
891.611	20765
891.734	20708
891.857	20663
891.98	20598
892.103	20724
892.226	20689
892.349	20689
892.471	20518
892.594	20644
892.717	20746
892.839	20602
892.962	20648
893.085	20651
893.207	20621
893.33	20552
893.452	20514
893.575	20560
893.697	20533
893.819	20731
893.941	20792
894.064	20659
894.186	20594
894.308	20579
894.43	20762
894.552	20819
894.674	20743
894.796	20503
894.918	20530
895.04	20526
895.161	20602
895.283	20552
895.405	20442
895.526	20609
895.648	20526
895.769	20545
895.891	20590
896.012	20674
896.134	20507
896.255	20629
896.376	20579
896.498	20590
896.619	20602
896.74	20629
896.861	20556
896.982	21024
897.103	21135
897.224	20952
897.345	20842
897.466	20731
897.587	20724
897.708	21001
897.828	20823
897.949	20705
898.07	20598
898.19	20785
898.311	20914
898.431	20731
898.552	20830
898.672	20838
898.792	20868
898.913	20735
899.033	20727
899.153	20590
899.273	20560
899.393	20598
899.513	20564
899.633	20579
899.753	20492
899.873	20484
899.993	20568
900.113	20423
900.232	20533
900.352	20499
900.472	20374
900.591	20324
900.711	20343
900.83	20298
900.95	20412
901.069	20415
901.189	20187
901.308	20031
901.427	19917
901.546	20031
901.665	19811
901.784	20073
901.904	19883
902.023	19727
902.141	19544
902.26	19651
902.379	19468
902.498	19434
902.617	19384
902.735	19502
902.854	19396
902.973	19301
903.091	19069
903.21	19198
903.328	19072
903.446	19019
903.565	18840
903.683	18954
903.801	18749
903.919	18932
904.038	18810
904.156	18661
904.274	18798
904.392	18585
904.51	18589
904.627	18551
904.745	18635
904.863	18650
904.981	18403
905.098	18399
905.216	18361
905.334	18334
905.451	18220
905.569	18270
905.686	18304
905.803	18338
905.921	18034
906.038	18197
906.155	18106
906.272	17954
906.389	18064
906.506	17840
906.623	17798
906.74	17874
906.857	17722
906.974	17771
907.091	17885
907.208	17999
907.324	17824
907.441	17653
907.557	17630
907.674	17532
907.79	17509
907.907	17558
908.023	17775
908.139	17585
908.256	17478
908.372	17395
908.488	17463
908.604	17307
908.72	17208
908.836	17402
908.952	17216
909.068	17223
909.184	17258
909.3	17334
909.415	17261
909.531	17383
909.647	16949
909.762	17014
909.878	17079
909.993	17022
910.108	16892
910.224	17041
910.339	16949
910.454	16774
910.57	16664
910.685	16717
910.8	17014
910.915	16881
911.03	16748
911.145	16584
911.259	16630
911.374	16618
911.489	16432
911.604	16497
911.718	16322
911.833	16268
911.947	16272
912.062	16067
912.176	16303
912.291	16295
912.405	16306
912.519	16500
912.633	16481
912.748	16337
912.862	16272
912.976	16173
913.09	16082
913.204	16097
913.318	16162
913.431	16246
913.545	16204
913.659	16234
913.772	16055
913.886	15945
914	15873
914.113	15998
914.226	16082
914.34	16025
914.453	15797
914.566	15930
914.68	15770
914.793	15770
914.906	15557
915.019	15450
915.132	15450
915.245	15488
915.358	15507
915.47	15504
915.583	15496
915.696	15462
915.809	15622
915.921	15690
916.034	15359
916.146	15332
916.259	15298
916.371	15458
916.483	15412
916.595	15332
916.708	15306
916.82	15325
916.932	15249
917.044	15207
917.156	15192
917.268	15036
917.38	15077
917.491	15207
917.603	15226
917.715	15192
917.826	15192
917.938	15123
918.049	14963
918.161	15024
918.272	15142
918.384	15169
918.495	15062
918.606	15005
918.717	14838
918.828	15028
918.939	14849
919.05	14777
919.161	14785
919.272	14663
919.383	14754
919.494	14918
919.604	15131
919.715	14750
919.826	14788
919.936	14906
920.047	14990
920.157	14876
920.267	14990
920.378	14826
920.488	14823
920.598	14914
920.708	15123
920.818	14998
920.928	15043
921.038	15081
921.148	15066
921.258	14735
921.368	14739
921.477	14571
921.587	14438
921.697	14537
921.806	14560
921.916	14450
922.025	14202
922.134	14244
922.244	14161
922.353	14153
922.462	14172
922.571	14081
922.68	13845
922.789	13780
922.898	13833
923.007	13761
923.116	13890
923.224	13727
923.333	13818
923.442	13742
923.55	13696
923.659	13670
923.767	13719
923.876	13597
923.984	13841
924.092	13487
924.201	13639
924.309	13571
924.417	13506
924.525	13578
924.633	13480
924.741	14499
924.849	13289
924.956	13415
925.064	13278
925.172	13240
925.279	13327
925.387	13350
925.494	13327
925.602	13403
925.709	13301
925.816	13236
925.924	13145
926.031	13346
926.138	13168
926.245	13221
926.352	13160
926.459	13263
926.566	13251
926.673	13072
926.779	13023
926.886	13015
926.993	12856
927.099	12859
927.206	12810
927.312	12700
927.419	12760
927.525	12779
927.631	12757
927.737	12719
927.843	12665
927.95	12582
928.056	12601
928.162	12528
928.267	12627
928.373	13263
928.479	12665
928.585	12509
928.69	12536
928.796	12650
928.901	12547
929.007	12350
929.112	12521
929.218	12407
929.323	12350
929.428	12384
929.533	12475
929.638	12262
929.743	12270
929.848	12369
929.953	12281
930.058	12235
930.163	12098
930.267	12015
930.372	12102
930.477	12057
930.581	12224
930.685	12087
930.79	11889
930.894	11927
930.998	11912
931.103	11992
931.207	11714
931.311	11600
931.415	11493
931.519	11364
931.623	11242
