Data from test_V78500241_651.txt Node
Date: Fri Mar 25 15:46:18 CST 2022
User: usil
Spectrometer: V785-0024
Trigger mode: 0
Integration Time (sec): 4.000000E-1
Scans to average: 1
Nonlinearity correction enabled: false
Boxcar width: 0
Storing dark spectrum: false
XAxis mode: Wavelengths
Number of Pixels in Spectrum: 1024
>>>>>Begin Spectral Data<<<<<
801.071	27663
801.214	27515
801.356	27420
801.499	27226
801.641	27070
801.783	27062
801.926	27230
802.068	27070
802.211	27085
802.353	26944
802.496	26754
802.638	26762
802.78	26838
802.923	26765
803.065	26682
803.208	26811
803.35	26849
803.492	26880
803.635	26823
803.777	26807
803.919	26902
804.061	27119
804.204	26868
804.346	26887
804.488	26887
804.63	26902
804.773	26807
804.915	27062
805.057	26956
805.199	26986
805.341	26929
805.483	27017
805.626	27100
805.768	26899
805.91	27150
806.052	27112
806.194	27009
806.336	27154
806.478	27161
806.62	27036
806.762	27214
806.904	27291
807.046	27580
807.188	27530
807.33	27378
807.472	27564
807.614	27580
807.756	27492
807.898	27424
808.04	27298
808.182	27176
808.324	27306
808.465	27386
808.607	27492
808.749	27671
808.891	27717
809.033	27911
809.174	27911
809.316	27755
809.458	27728
809.6	27698
809.741	27884
809.883	27789
810.025	27922
810.166	27914
810.308	27873
810.45	27926
810.591	27953
810.733	27648
810.875	27629
811.016	27492
811.158	27625
811.299	27652
811.441	27956
811.582	27911
811.724	27679
811.865	27679
812.007	27557
812.148	27709
812.29	27835
812.431	27861
812.573	27991
812.714	28196
812.855	28246
812.997	28306
813.138	28352
813.279	28348
813.421	28207
813.562	28219
813.703	27975
813.845	27888
813.986	27637
814.127	27485
814.268	27252
814.41	27382
814.551	27340
814.692	27336
814.833	27351
814.974	27363
815.115	27416
815.256	27127
815.397	27222
815.539	27310
815.68	27192
815.821	27165
815.962	27131
816.103	27119
816.244	27108
816.385	26975
816.526	27005
816.666	26689
816.807	26651
816.948	26655
817.089	26663
817.23	26686
817.371	26541
817.512	26655
817.653	26640
817.793	26636
817.934	26739
818.075	26708
818.216	26674
818.356	26609
818.497	26571
818.638	26355
818.778	26453
818.919	26446
819.06	26412
819.2	26644
819.341	26606
819.481	26568
819.622	26739
819.762	27043
819.903	26868
820.043	26762
820.184	26750
820.324	26861
820.465	26731
820.605	26792
820.746	26670
820.886	26674
821.026	26727
821.167	26598
821.307	26796
821.447	26678
821.588	26545
821.728	26412
821.868	26218
822.008	26073
822.149	26050
822.289	26084
822.429	25811
822.569	25700
822.709	25708
822.849	25632
822.99	25708
823.13	25643
823.27	25548
823.41	25537
823.55	25251
823.69	25521
823.83	25415
823.97	25426
824.11	25320
824.25	25285
824.389	25228
824.529	25221
824.669	25228
824.809	25400
824.949	25190
825.089	25343
825.228	25164
825.368	25164
825.508	25057
825.648	25076
825.787	25198
825.927	25255
826.067	25015
826.206	25118
826.346	25129
826.485	25228
826.625	25228
826.765	25152
826.904	25266
827.044	24791
827.183	24913
827.323	24738
827.462	24791
827.601	24825
827.741	24844
827.88	24928
828.02	24620
828.159	24726
828.298	24817
828.437	24886
828.577	24848
828.716	24958
828.855	24681
828.994	24498
829.134	24498
829.273	24642
829.412	24521
829.551	24445
829.69	24498
829.829	24460
829.968	24654
830.107	24540
830.246	24570
830.385	24399
830.524	24342
830.663	24372
830.802	24178
830.941	24018
831.08	23946
831.219	24311
831.357	24270
831.496	24350
831.635	24091
831.774	23977
831.913	24026
832.051	23965
832.19	24011
832.329	23988
832.467	23859
832.606	23714
832.744	23828
832.883	23802
833.022	23729
833.16	23927
833.299	23840
833.437	23863
833.576	23874
833.714	23764
833.852	24041
833.991	23984
834.129	23992
834.267	23828
834.406	23973
834.544	23824
834.682	23840
834.821	23836
834.959	24144
835.097	23729
835.235	23855
835.373	23847
835.511	23737
835.65	23813
835.788	23779
835.926	23687
836.064	23463
836.202	23566
836.34	23611
836.478	23756
836.615	23729
836.753	23703
836.891	23722
837.029	23649
837.167	23653
837.305	23608
837.443	23558
837.58	23520
837.718	23642
837.856	23452
837.993	23501
838.131	23505
838.269	23398
838.406	23402
838.544	23315
838.681	23227
838.819	23086
838.956	23029
839.094	23060
839.231	23037
839.369	23311
839.506	23471
839.643	23227
839.781	23052
839.918	22866
840.055	22911
840.193	22991
840.33	22869
840.467	22980
840.604	23041
840.742	23258
840.879	22862
841.016	22847
841.153	22805
841.29	22873
841.427	22885
841.564	22896
841.701	22885
841.838	22927
841.975	22790
842.112	22866
842.249	22736
842.385	22694
842.522	22949
842.659	22649
842.796	22755
842.933	22618
843.069	22645
843.206	22584
843.343	22721
843.479	22630
843.616	22702
843.752	22409
843.889	22428
844.025	22599
844.162	22497
844.298	22573
844.435	22329
844.571	22348
844.708	22447
844.844	22561
844.98	22565
845.117	22599
845.253	22306
845.389	22204
845.525	22295
845.661	22424
845.798	22166
845.934	22310
846.07	22238
846.206	22310
846.342	22325
846.478	22268
846.614	22097
846.75	21884
846.886	21926
847.022	21987
847.158	21918
847.294	21899
847.429	21934
847.565	21762
847.701	22139
847.837	21652
847.972	21709
848.108	21778
848.244	21785
848.379	21416
848.515	21428
848.65	21439
848.786	21561
848.921	21469
849.057	21633
849.192	21625
849.328	21591
849.463	21515
849.598	21496
849.734	21462
849.869	21283
850.004	21321
850.14	21359
850.275	21344
850.41	21161
850.545	21237
850.68	21165
850.815	21283
850.95	21222
851.085	21412
851.22	21382
851.355	21226
851.49	21222
851.625	21336
851.76	21249
851.895	21135
852.03	21222
852.165	21287
852.299	21233
852.434	21389
852.569	21348
852.703	21260
852.838	21329
852.973	21348
853.107	21344
853.242	21268
853.376	20979
853.511	20956
853.645	21009
853.78	21226
853.914	21131
854.048	21020
854.183	21032
854.317	21131
854.451	21302
854.585	21077
854.72	21093
854.854	21203
854.988	21116
855.122	21039
855.256	21013
855.39	21013
855.524	21268
855.658	21157
855.792	21051
855.926	21157
856.06	21260
856.194	21081
856.327	21085
856.461	20975
856.595	21028
856.729	21066
856.862	21199
856.996	21119
857.13	21142
857.263	21165
857.397	21237
857.53	21093
857.664	21188
857.797	21184
857.931	21127
858.064	21199
858.197	21180
858.331	21013
858.464	20998
858.597	21005
858.731	20933
858.864	20990
858.997	21028
859.13	21028
859.263	21081
859.396	21085
859.529	21150
859.662	21047
859.795	21043
859.928	21093
860.061	21325
860.194	21161
860.327	21313
860.46	21119
860.592	21218
860.725	21306
860.858	21214
860.99	21142
861.123	21036
861.256	21112
861.388	21089
861.521	21747
861.653	20979
861.786	20925
861.918	21043
862.05	20918
862.183	21005
862.315	21085
862.447	21131
862.58	20937
862.712	20902
862.844	20746
862.976	20971
863.108	20849
863.24	21203
863.372	20697
863.504	20853
863.636	20777
863.768	20792
863.9	20804
864.032	20678
864.164	20686
864.296	20906
864.428	20925
864.559	20819
864.691	20830
864.823	20838
864.954	20762
865.086	20800
865.217	20651
865.349	20648
865.48	20651
865.612	20697
865.743	20880
865.875	20754
866.006	20769
866.137	20674
866.269	20731
866.4	20602
866.531	20613
866.662	20617
866.793	20594
866.924	20629
867.055	20629
867.186	20651
867.317	20564
867.448	20583
867.579	20575
867.71	20564
867.841	20564
867.972	20693
868.103	20651
868.233	20743
868.364	20682
868.495	20651
868.625	20762
868.756	20979
868.886	20762
869.017	20826
869.147	20891
869.278	20979
869.408	20956
869.539	20902
869.669	20998
869.799	21001
869.929	20979
870.06	21089
870.19	21199
870.32	21173
870.45	21131
870.58	21226
870.71	21329
870.84	21378
870.97	21222
871.1	21291
871.23	21462
871.36	21564
871.489	21412
871.619	21447
871.749	21447
871.879	21603
872.008	21481
872.138	21450
872.267	21450
872.397	21325
872.526	21321
872.656	21504
872.785	21348
872.915	21572
873.044	21572
873.173	21523
873.303	21519
873.432	21542
873.561	21500
873.69	21473
873.819	21656
873.948	21462
874.077	21431
874.206	21351
874.335	21473
874.464	21618
874.593	21663
874.722	21667
874.851	21762
874.979	21831
875.108	21812
875.237	21713
875.365	21686
875.494	21641
875.623	21857
875.751	21663
875.88	21816
876.008	21903
876.136	21903
876.265	22158
876.393	22246
876.521	22181
876.65	22219
876.778	22120
876.906	22101
877.034	22025
877.162	22082
877.29	22055
877.418	22090
877.546	22070
877.674	21991
877.802	22040
877.93	22086
878.058	22055
878.185	22021
878.313	21994
878.441	22029
878.568	21953
878.696	22097
878.824	22101
878.951	22078
879.079	22207
879.206	22367
879.333	22185
879.461	22147
879.588	22150
879.715	22322
879.842	22356
879.97	22257
880.097	21888
880.224	21926
880.351	21975
880.478	22032
880.605	21861
880.732	21831
880.859	22166
880.986	21846
881.112	21880
881.239	21781
881.366	21580
881.493	21637
881.619	21405
881.746	21587
881.872	21492
881.999	21473
882.125	21526
882.252	21542
882.378	21408
882.505	21553
882.631	21370
882.757	21138
882.883	21245
883.01	21310
883.136	21195
883.262	21077
883.388	21058
883.514	21230
883.64	21222
883.766	20956
883.892	20910
884.018	20982
884.143	21062
884.269	21241
884.395	20823
884.52	20800
884.646	20861
884.772	20804
884.897	20781
885.023	20765
885.148	20918
885.274	20960
885.399	20982
885.524	20853
885.65	20891
885.775	20895
885.9	20712
886.025	20872
886.15	20902
886.275	20883
886.4	20720
886.525	20811
886.65	20792
886.775	20834
886.9	20963
887.025	21108
887.149	20746
887.274	20571
887.399	20655
887.523	20708
887.648	20530
887.773	20587
887.897	20609
888.021	20754
888.146	20552
888.27	20655
888.395	20651
888.519	20606
888.643	20636
888.767	20693
888.891	20419
889.015	20286
889.139	20461
889.263	20492
889.387	20396
889.511	20583
889.635	20545
889.759	20355
889.883	20256
890.006	20415
890.13	20454
890.254	20381
890.377	20286
890.501	20168
890.624	20168
890.748	20107
890.871	20157
890.995	19913
891.118	19875
891.241	19967
891.364	19940
891.488	20119
891.611	19890
891.734	19936
891.857	20050
891.98	19936
892.103	20039
892.226	19947
892.349	19940
892.471	19883
892.594	19906
892.717	19894
892.839	19822
892.962	19932
893.085	19936
893.207	19860
893.33	19811
893.452	19712
893.575	20005
893.697	19849
893.819	20081
893.941	20050
894.064	20012
894.186	19795
894.308	19841
894.43	19894
894.552	19967
894.674	19913
894.796	19830
894.918	19902
895.04	19830
895.161	19875
895.283	19947
895.405	19807
895.526	19936
895.648	19727
895.769	19875
895.891	19845
896.012	20031
896.134	19951
896.255	19932
896.376	19837
896.498	19951
896.619	19989
896.74	19909
896.861	19951
896.982	20271
897.103	20404
897.224	20130
897.345	20100
897.466	20016
897.587	20111
897.708	20210
897.828	20191
897.949	20081
898.07	19906
898.19	20043
898.311	20233
898.431	20100
898.552	20058
898.672	20221
898.792	20180
898.913	20149
899.033	20027
899.153	19909
899.273	19837
899.393	19803
899.513	19959
899.633	19852
899.753	19932
899.873	19814
899.993	19917
900.113	19818
900.232	19951
900.352	19734
900.472	19731
900.591	19525
900.711	19693
900.83	19571
900.95	19757
901.069	19700
901.189	19491
901.308	19312
901.427	19179
901.546	19217
901.665	19206
901.784	19270
901.904	19141
902.023	19004
902.141	18776
902.26	18757
902.379	18878
902.498	18776
902.617	18692
902.735	18787
902.854	18741
902.973	18703
903.091	18471
903.21	18479
903.328	18437
903.446	18296
903.565	18213
903.683	18190
903.801	18068
903.919	18277
904.038	18140
904.156	17980
904.274	18049
904.392	17912
904.51	17980
904.627	17942
904.745	18064
904.863	18087
904.981	17882
905.098	17684
905.216	17790
905.334	17741
905.451	17718
905.569	17687
905.686	17695
905.803	17771
905.921	17486
906.038	17577
906.155	17455
906.272	17315
906.389	17421
906.506	17235
906.623	17208
906.74	17341
906.857	17143
906.974	17170
907.091	17250
907.208	17341
907.324	17220
907.441	17132
907.557	17029
907.674	16858
907.79	16968
907.907	16862
908.023	16847
908.139	16885
908.256	16839
908.372	16725
908.488	16790
908.604	16706
908.72	16558
908.836	16656
908.952	16607
909.068	16592
909.184	16835
909.3	16622
909.415	16710
909.531	16713
909.647	16382
909.762	16318
909.878	16325
909.993	16356
910.108	16360
910.224	16352
910.339	16329
910.454	16200
910.57	16150
910.685	16162
910.8	16428
910.915	16314
911.03	16204
911.145	16013
911.259	15949
911.374	15934
911.489	15865
911.604	15941
911.718	15682
911.833	15618
911.947	15751
912.062	15641
912.176	15739
912.291	15797
912.405	15766
912.519	15876
912.633	15903
912.748	15739
912.862	15717
912.976	15584
913.09	15393
913.204	15549
913.318	15504
913.431	15633
913.545	15603
913.659	15759
913.772	15500
913.886	15386
914	15405
914.113	15504
914.226	15435
914.34	15485
914.453	15222
914.566	15355
914.68	15325
914.793	15226
914.906	15005
915.019	14967
915.132	14921
915.245	14982
915.358	15009
915.47	14902
915.583	14963
915.696	14994
915.809	15047
915.921	15043
916.034	14895
916.146	14891
916.259	14861
916.371	14944
916.483	14864
916.595	14823
916.708	14785
916.82	14781
916.932	14769
917.044	14834
917.156	14823
917.268	14697
917.38	14701
917.491	14587
917.603	14651
917.715	14750
917.826	14564
917.938	14583
918.049	14450
918.161	14526
918.272	14724
918.384	14640
918.495	14617
918.606	14362
918.717	14271
918.828	14328
918.939	14423
919.05	14328
919.161	14267
919.272	14237
919.383	14119
919.494	14339
919.604	14602
919.715	14419
919.826	14214
919.936	14385
920.047	14454
920.157	14473
920.267	14484
920.378	14454
920.488	14431
920.598	14590
920.708	14640
920.818	14514
920.928	14541
921.038	14518
921.148	14560
921.258	14263
921.368	14149
921.477	14157
921.587	14172
921.697	13978
921.806	14119
921.916	13959
922.025	13818
922.134	13712
922.244	13753
922.353	13803
922.462	13670
922.571	13529
922.68	13453
922.789	13422
922.898	13491
923.007	13236
923.116	13400
923.224	13369
923.333	13331
923.442	13228
923.55	13206
923.659	13206
923.767	13236
923.876	13129
923.984	13240
924.092	13152
924.201	13137
924.309	13099
924.417	13175
924.525	12993
924.633	13164
924.741	13852
924.849	12905
924.956	13042
925.064	12867
925.172	12791
925.279	12776
925.387	12848
925.494	12825
925.602	12947
925.709	12867
925.816	12795
925.924	12791
926.031	12840
926.138	12810
926.245	12795
926.352	12658
926.459	12863
926.566	12795
926.673	12722
926.779	12506
926.886	12559
926.993	12467
927.099	12429
927.206	12346
927.312	12403
927.419	12365
927.525	12330
927.631	12410
927.737	12338
927.843	12266
927.95	12152
928.056	12163
928.162	12148
928.267	12273
928.373	12863
928.479	12273
928.585	12064
928.69	12228
928.796	12228
928.901	12060
929.007	12022
929.112	12194
929.218	12144
929.323	11977
929.428	11973
929.533	12068
929.638	11897
929.743	11920
929.848	11973
929.953	11824
930.058	11798
930.163	11634
930.267	11684
930.372	11821
930.477	11539
930.581	11775
930.685	11680
930.79	11600
930.894	11505
930.998	11452
931.103	11726
931.207	11277
931.311	11227
931.415	11143
931.519	10927
931.623	10847
