Data from test_V78500241_2979.txt Node
Date: Fri Mar 25 16:02:26 CST 2022
User: usil
Spectrometer: V785-0024
Trigger mode: 0
Integration Time (sec): 4.000000E-1
Scans to average: 1
Nonlinearity correction enabled: false
Boxcar width: 0
Storing dark spectrum: false
XAxis mode: Wavelengths
Number of Pixels in Spectrum: 1024
>>>>>Begin Spectral Data<<<<<
801.071	28211
801.214	28253
801.356	27991
801.499	27914
801.641	27808
801.783	27675
801.926	27842
802.068	27751
802.211	27816
802.353	27614
802.496	27526
802.638	27431
802.78	27477
802.923	27332
803.065	27386
803.208	27485
803.35	27401
803.492	27603
803.635	27747
803.777	27477
803.919	27648
804.061	28002
804.204	27663
804.346	27519
804.488	27591
804.63	27679
804.773	27656
804.915	27622
805.057	27793
805.199	27724
805.341	27732
805.483	27812
805.626	27895
805.768	27713
805.91	27895
806.052	27804
806.194	27705
806.336	27983
806.478	27835
806.62	27884
806.762	27857
806.904	28078
807.046	28337
807.188	28219
807.33	28310
807.472	28360
807.614	28166
807.756	28272
807.898	27968
808.04	28063
808.182	28029
808.324	28249
808.465	28139
808.607	28200
808.749	28523
808.891	28535
809.033	28649
809.174	28382
809.316	28451
809.458	28607
809.6	28489
809.741	28748
809.883	28634
810.025	28786
810.166	28869
810.308	28771
810.45	28656
810.591	28736
810.733	28405
810.875	28527
811.016	28497
811.158	28474
811.299	28569
811.441	28466
811.582	28755
811.724	28493
811.865	28615
812.007	28508
812.148	28424
812.29	28485
812.431	28675
812.573	28881
812.714	28850
812.855	29067
812.997	28987
813.138	29368
813.279	28995
813.421	28946
813.562	28987
813.703	28881
813.845	28831
813.986	28398
814.127	28360
814.268	28181
814.41	28135
814.551	28344
814.692	28382
814.833	28181
814.974	28188
815.115	28268
815.256	28055
815.397	28177
815.539	28055
815.68	27983
815.821	27793
815.962	28051
816.103	27972
816.244	27781
816.385	27778
816.526	27804
816.666	27515
816.807	27439
816.948	27515
817.089	27583
817.23	27412
817.371	27473
817.512	27618
817.653	27450
817.793	27485
817.934	27545
818.075	27435
818.216	27496
818.356	27439
818.497	27313
818.638	27367
818.778	27310
818.919	27180
819.06	27378
819.2	27317
819.341	27583
819.481	27515
819.622	27587
819.762	27873
819.903	27732
820.043	27720
820.184	27663
820.324	27888
820.465	27580
820.605	27595
820.746	27625
820.886	27538
821.026	27572
821.167	27564
821.307	27663
821.447	27534
821.588	27454
821.728	27283
821.868	27116
822.008	26906
822.149	27013
822.289	27024
822.429	26880
822.569	26568
822.709	26705
822.849	26400
822.99	26427
823.13	26427
823.27	26476
823.41	26324
823.55	26218
823.69	26381
823.83	26271
823.97	26252
824.11	26122
824.25	26164
824.389	26183
824.529	26294
824.669	26138
824.809	26271
824.949	26305
825.089	26187
825.228	26256
825.368	25970
825.508	26187
825.648	25966
825.787	26115
825.927	26039
826.067	26012
826.206	25906
826.346	26050
826.485	26001
826.625	25944
826.765	26092
826.904	26005
827.044	25803
827.183	25849
827.323	25674
827.462	25822
827.601	25780
827.741	25662
827.88	25822
828.02	25712
828.159	25677
828.298	25830
828.437	25811
828.577	25696
828.716	25875
828.855	25620
828.994	25457
829.134	25441
829.273	25411
829.412	25282
829.551	25354
829.69	25457
829.829	25609
829.968	25415
830.107	25487
830.246	25403
830.385	25346
830.524	25339
830.663	25095
830.802	25084
830.941	25088
831.08	24924
831.219	24992
831.357	25183
831.496	25285
831.635	24943
831.774	24985
831.913	24878
832.051	24795
832.19	24829
832.329	24734
832.467	24665
832.606	24570
832.744	24669
832.883	24700
833.022	24654
833.16	24760
833.299	24631
833.437	24707
833.576	24681
833.714	24802
833.852	24719
833.991	24795
834.129	24871
834.267	24787
834.406	24776
834.544	24772
834.682	24802
834.821	24867
834.959	24962
835.097	24597
835.235	24795
835.373	24749
835.511	24703
835.65	24650
835.788	24528
835.926	24540
836.064	24422
836.202	24414
836.34	24604
836.478	24669
836.615	24639
836.753	24502
836.891	24772
837.029	24593
837.167	24509
837.305	24467
837.443	24391
837.58	24403
837.718	24448
837.856	24452
837.993	24327
838.131	24422
838.269	24308
838.406	24338
838.544	24190
838.681	24076
838.819	24083
838.956	23984
839.094	23904
839.231	23893
839.369	24148
839.506	24197
839.643	24190
839.781	23920
839.918	23885
840.055	23851
840.193	23927
840.33	23783
840.467	23748
840.604	23836
840.742	24095
840.879	23722
841.016	23699
841.153	23589
841.29	23965
841.427	23897
841.564	23794
841.701	23741
841.838	23668
841.975	23566
842.112	23707
842.249	23604
842.385	23592
842.522	23779
842.659	23634
842.796	23589
842.933	23490
843.069	23414
843.206	23520
843.343	23581
843.479	23745
843.616	23558
843.752	23341
843.889	23364
844.025	23410
844.162	23395
844.298	23520
844.435	23337
844.571	23292
844.708	23334
844.844	23585
844.98	23505
845.117	23459
845.253	23303
845.389	23170
845.525	23166
845.661	23193
845.798	23033
845.934	23128
846.07	23022
846.206	23166
846.342	23258
846.478	22991
846.614	22786
846.75	22736
846.886	22729
847.022	22843
847.158	22820
847.294	22828
847.429	22793
847.565	22706
847.701	23109
847.837	22618
847.972	22478
848.108	22786
848.244	22519
848.379	22436
848.515	22413
848.65	22310
848.786	22352
848.921	22352
849.057	22538
849.192	22497
849.328	22405
849.463	22470
849.598	22322
849.734	22417
849.869	22287
850.004	22112
850.14	22131
850.275	22169
850.41	22055
850.545	22017
850.68	22162
850.815	22154
850.95	22246
851.085	22291
851.22	22177
851.355	22185
851.49	22135
851.625	22093
851.76	22120
851.895	22143
852.03	22120
852.165	22242
852.299	22177
852.434	22276
852.569	22166
852.703	22135
852.838	22242
852.973	22306
853.107	22219
853.242	22078
853.376	21972
853.511	21819
853.645	21934
853.78	22051
853.914	21945
854.048	21899
854.183	21972
854.317	21964
854.451	22139
854.585	21991
854.72	21979
854.854	22051
854.988	21915
855.122	21968
855.256	21903
855.39	22048
855.524	22059
855.658	21941
855.792	21953
855.926	22025
856.06	22040
856.194	22097
856.327	21972
856.461	21922
856.595	21876
856.729	21915
856.862	22109
856.996	21915
857.13	21979
857.263	22002
857.397	21945
857.53	21888
857.664	21972
857.797	22063
857.931	21994
858.064	22074
858.197	22192
858.331	21842
858.464	21854
858.597	21804
858.731	21907
858.864	21850
858.997	21949
859.13	22063
859.263	22048
859.396	21915
859.529	21994
859.662	21907
859.795	21899
859.928	21975
860.061	22139
860.194	22192
860.327	22101
860.46	21972
860.592	22006
860.725	22192
860.858	22074
860.99	21960
861.123	21964
861.256	21922
861.388	22006
861.521	22717
861.653	21812
861.786	21751
861.918	21739
862.05	21861
862.183	21808
862.315	21861
862.447	22021
862.58	21873
862.712	21793
862.844	21644
862.976	21869
863.108	21838
863.24	22166
863.372	21591
863.504	21778
863.636	21755
863.768	21816
863.9	21770
864.032	21736
864.164	21641
864.296	21831
864.428	21819
864.559	21778
864.691	21892
864.823	21648
864.954	21629
865.086	21743
865.217	21572
865.349	21443
865.48	21629
865.612	21534
865.743	21698
865.875	21641
866.006	21538
866.137	21538
866.269	21580
866.4	21572
866.531	21553
866.662	21431
866.793	21538
866.924	21435
867.055	21530
867.186	21530
867.317	21515
867.448	21389
867.579	21435
867.71	21405
867.841	21351
867.972	21561
868.103	21382
868.233	21454
868.364	21564
868.495	21580
868.625	21732
868.756	21899
868.886	21622
869.017	21720
869.147	21892
869.278	21797
869.408	21701
869.539	21850
869.669	21869
869.799	21793
869.929	21979
870.06	21854
870.19	22090
870.32	22040
870.45	22051
870.58	22196
870.71	22257
870.84	22249
870.97	22207
871.1	22143
871.23	22272
871.36	22303
871.489	22200
871.619	22409
871.749	22295
871.879	22405
872.008	22299
872.138	22352
872.267	22352
872.397	22386
872.526	22150
872.656	22230
872.785	22131
872.915	22470
873.044	22546
873.173	22318
873.303	22516
873.432	22436
873.561	22504
873.69	22485
873.819	22318
873.948	22489
874.077	22500
874.206	22287
874.335	22367
874.464	22455
874.593	22573
874.722	22607
874.851	22565
874.979	22508
875.108	22611
875.237	22603
875.365	22493
875.494	22455
875.623	22691
875.751	22546
875.88	22615
876.008	22687
876.136	22797
876.265	22980
876.393	23136
876.521	23079
876.65	23159
876.778	22999
876.906	22961
877.034	22790
877.162	22980
877.29	22934
877.418	22991
877.546	22938
877.674	23033
877.802	22885
877.93	23056
878.058	23086
878.185	22748
878.313	22869
878.441	22919
878.568	22698
878.696	22892
878.824	22946
878.951	23128
879.079	23216
879.206	23318
879.333	23022
879.461	22991
879.588	23041
879.715	23170
879.842	23322
879.97	23056
880.097	22660
880.224	22816
880.351	22805
880.478	22835
880.605	22729
880.732	22782
880.859	23018
880.986	22759
881.112	22831
881.239	22577
881.366	22538
881.493	22573
881.619	22318
881.746	22371
881.872	22314
881.999	22356
882.125	22276
882.252	22356
882.378	22337
882.505	22474
882.631	22135
882.757	22029
882.883	21968
883.01	22044
883.136	21930
883.262	21922
883.388	21876
883.514	22040
883.64	21968
883.766	21895
883.892	21789
884.018	21793
884.143	21915
884.269	21911
884.395	21785
884.52	21564
884.646	21781
884.772	21492
884.897	21519
885.023	21724
885.148	21755
885.274	21778
885.399	21789
885.524	21686
885.65	21705
885.775	21686
885.9	21591
886.025	21698
886.15	21770
886.275	21545
886.4	21557
886.525	21644
886.65	21504
886.775	21511
886.9	21694
887.025	21934
887.149	21519
887.274	21466
887.399	21401
887.523	21412
887.648	21405
887.773	21420
887.897	21473
888.021	21443
888.146	21351
888.27	21488
888.395	21492
888.519	21492
888.643	21439
888.767	21378
888.891	21287
889.015	21176
889.139	21291
889.263	21150
889.387	21218
889.511	21370
889.635	21317
889.759	21135
889.883	21096
890.006	21298
890.13	21161
890.254	21036
890.377	21119
890.501	20986
890.624	21017
890.748	20906
890.871	20864
890.995	20697
891.118	20701
891.241	20781
891.364	20807
891.488	20899
891.611	20724
891.734	20682
891.857	20918
891.98	20769
892.103	20811
892.226	20708
892.349	20659
892.471	20686
892.594	20693
892.717	20731
892.839	20769
892.962	20617
893.085	20640
893.207	20670
893.33	20503
893.452	20571
893.575	20705
893.697	20667
893.819	20891
893.941	20826
894.064	20727
894.186	20659
894.308	20579
894.43	20727
894.552	20910
894.674	20659
894.796	20495
894.918	20606
895.04	20571
895.161	20560
895.283	20727
895.405	20575
895.526	20613
895.648	20609
895.769	20663
895.891	20602
896.012	20773
896.134	20659
896.255	20693
896.376	20659
896.498	20636
896.619	20640
896.74	20564
896.861	20735
896.982	20861
897.103	21138
897.224	20933
897.345	20967
897.466	20811
897.587	20788
897.708	21005
897.828	21001
897.949	20842
898.07	20663
898.19	20781
898.311	20861
898.431	20773
898.552	20750
898.672	21009
898.792	20823
898.913	20838
899.033	20815
899.153	20629
899.273	20511
899.393	20533
899.513	20678
899.633	20568
899.753	20621
899.873	20590
899.993	20697
900.113	20541
900.232	20636
900.352	20457
900.472	20427
900.591	20358
900.711	20454
900.83	20320
900.95	20454
901.069	20438
901.189	20301
901.308	20130
901.427	19967
901.546	19928
901.665	20035
901.784	20001
901.904	19769
902.023	19833
902.141	19601
902.26	19639
902.379	19502
902.498	19426
902.617	19407
902.735	19521
902.854	19396
902.973	19308
903.091	19141
903.21	19095
903.328	19091
903.446	19027
903.565	18962
903.683	18863
903.801	18700
903.919	18897
904.038	18814
904.156	18677
904.274	18730
904.392	18673
904.51	18677
904.627	18707
904.745	18688
904.863	18753
904.981	18486
905.098	18296
905.216	18289
905.334	18437
905.451	18300
905.569	18228
905.686	18433
905.803	18388
905.921	18148
906.038	18289
906.155	18148
906.272	18053
906.389	18049
906.506	17874
906.623	17882
906.74	17828
906.857	17733
906.974	17786
907.091	17984
907.208	17935
907.324	17969
907.441	17817
907.557	17627
907.674	17554
907.79	17448
907.907	17459
908.023	17566
908.139	17493
908.256	17600
908.372	17402
908.488	17482
908.604	17288
908.72	17258
908.836	17341
908.952	17204
909.068	17311
909.184	17322
909.3	17410
909.415	17360
909.531	17307
909.647	17045
909.762	16873
909.878	17048
909.993	17010
910.108	16949
910.224	17029
910.339	16900
910.454	16820
910.57	16774
910.685	16717
910.8	17003
910.915	16953
911.03	16744
911.145	16649
911.259	16645
911.374	16588
911.489	16493
911.604	16489
911.718	16314
911.833	16402
911.947	16188
912.062	16257
912.176	16360
912.291	16360
912.405	16398
912.519	16443
912.633	16478
912.748	16478
912.862	16348
912.976	16257
913.09	16025
913.204	16074
913.318	16162
913.431	16276
913.545	16219
913.659	16188
913.772	15991
913.886	15998
914	16013
914.113	16040
914.226	16010
914.34	16059
914.453	15903
914.566	16013
914.68	15865
914.793	15835
914.906	15504
915.019	15591
915.132	15488
915.245	15564
915.358	15576
915.47	15534
915.583	15526
915.696	15549
915.809	15599
915.921	15614
916.034	15591
916.146	15496
916.259	15325
916.371	15488
916.483	15439
916.595	15370
916.708	15363
916.82	15344
916.932	15412
917.044	15401
917.156	15252
917.268	15245
917.38	15195
917.491	15119
917.603	15176
917.715	15245
917.826	15154
917.938	15005
918.049	15024
918.161	15093
918.272	15291
918.384	15249
918.495	15097
918.606	15020
918.717	14845
918.828	14941
918.939	14914
919.05	14823
919.161	14899
919.272	14648
919.383	14773
919.494	14937
919.604	15097
919.715	14838
919.826	14800
919.936	14815
920.047	14975
920.157	14849
920.267	14975
920.378	14929
920.488	14819
920.598	15093
920.708	15127
920.818	15001
920.928	14948
921.038	15081
921.148	15085
921.258	14811
921.368	14731
921.477	14579
921.587	14522
921.697	14419
921.806	14670
921.916	14454
922.025	14317
922.134	14339
922.244	14195
922.353	14275
922.462	14164
922.571	14054
922.68	13799
922.789	13879
922.898	13818
923.007	13864
923.116	13894
923.224	13871
923.333	13849
923.442	13795
923.55	13731
923.659	13818
923.767	13845
923.876	13685
923.984	13753
924.092	13639
924.201	13624
924.309	13647
924.417	13639
924.525	13639
924.633	13674
924.741	14225
924.849	13392
924.956	13533
925.064	13346
925.172	13289
925.279	13308
925.387	13365
925.494	13278
925.602	13419
925.709	13460
925.816	13225
925.924	13225
926.031	13301
926.138	13263
926.245	13369
926.352	13266
926.459	13297
926.566	13350
926.673	13194
926.779	13072
926.886	13072
926.993	12905
927.099	12817
927.206	12894
927.312	12833
927.419	12932
927.525	12848
927.631	12939
927.737	12798
927.843	12711
927.95	12642
928.056	12722
928.162	12700
928.267	12749
928.373	13308
928.479	12730
928.585	12498
928.69	12673
928.796	12734
928.901	12475
929.007	12437
929.112	12525
929.218	12513
929.323	12437
929.428	12467
929.533	12498
929.638	12380
929.743	12346
929.848	12452
929.953	12365
930.058	12228
930.163	12171
930.267	12125
930.372	12209
930.477	12057
930.581	12243
930.685	12114
930.79	11946
930.894	12030
930.998	11889
931.103	12102
931.207	11688
931.311	11691
931.415	11562
931.519	11349
931.623	11379
