Data from test_V78500241_369.txt Node
Date: Fri Mar 25 15:44:21 CST 2022
User: usil
Spectrometer: V785-0024
Trigger mode: 0
Integration Time (sec): 4.000000E-1
Scans to average: 1
Nonlinearity correction enabled: false
Boxcar width: 0
Storing dark spectrum: false
XAxis mode: Wavelengths
Number of Pixels in Spectrum: 1024
>>>>>Begin Spectral Data<<<<<
801.071	29604
801.214	29638
801.356	29452
801.499	29326
801.641	29185
801.783	29094
801.926	29311
802.068	29162
802.211	29136
802.353	28972
802.496	28843
802.638	28828
802.78	28847
802.923	28888
803.065	28809
803.208	28748
803.35	28881
803.492	29010
803.635	29067
803.777	28888
803.919	28873
804.061	29486
804.204	29261
804.346	29006
804.488	29022
804.63	29044
804.773	28771
804.915	29140
805.057	29105
805.199	29018
805.341	29159
805.483	29102
805.626	29003
805.768	28938
805.91	29181
806.052	29273
806.194	29067
806.336	29292
806.478	29254
806.62	29235
806.762	29440
806.904	29520
807.046	29646
807.188	29623
807.33	29695
807.472	29745
807.614	29547
807.756	29554
807.898	29493
808.04	29497
808.182	29307
808.324	29436
808.465	29452
808.607	29722
808.749	29847
808.891	29977
809.033	30015
809.174	29901
809.316	29859
809.458	29786
809.6	29832
809.741	30045
809.883	30087
810.025	30106
810.166	30102
810.308	30300
810.45	30152
810.591	30117
810.733	30057
810.875	29950
811.016	29764
811.158	29718
811.299	29859
811.441	30064
811.582	29977
811.724	29904
811.865	29882
812.007	29798
812.148	29729
812.29	29847
812.431	30174
812.573	30152
812.714	30323
812.855	30311
812.997	30410
813.138	30597
813.279	30429
813.421	30357
813.562	30239
813.703	30182
813.845	30007
813.986	29726
814.127	29551
814.268	29516
814.41	29551
814.551	29478
814.692	29649
814.833	29280
814.974	29497
815.115	29581
815.256	29436
815.397	29528
815.539	29307
815.68	29227
815.821	29235
815.962	29239
816.103	29345
816.244	29052
816.385	29170
816.526	29056
816.666	28957
816.807	28839
816.948	28763
817.089	28790
817.23	28896
817.371	28888
817.512	28812
817.653	28744
817.793	28778
817.934	28828
818.075	28774
818.216	28782
818.356	28622
818.497	28603
818.638	28668
818.778	28599
818.919	28557
819.06	28432
819.2	28641
819.341	28698
819.481	28710
819.622	28919
819.762	29067
819.903	28938
820.043	28820
820.184	28934
820.324	28957
820.465	28885
820.605	28881
820.746	28968
820.886	28793
821.026	28843
821.167	28687
821.307	28965
821.447	28801
821.588	28618
821.728	28394
821.868	28375
822.008	28257
822.149	28169
822.289	28067
822.429	27968
822.569	27762
822.709	27937
822.849	27717
822.99	27648
823.13	27656
823.27	27564
823.41	27500
823.55	27363
823.69	27488
823.83	27469
823.97	27435
824.11	27161
824.25	27184
824.389	27180
824.529	27291
824.669	27321
824.809	27412
824.949	27454
825.089	27321
825.228	27370
825.368	27127
825.508	27032
825.648	27165
825.787	27192
825.927	27173
826.067	26990
826.206	27047
826.346	27176
826.485	27119
826.625	27157
826.765	27058
826.904	27226
827.044	26872
827.183	26952
827.323	26701
827.462	26807
827.601	26819
827.741	26746
827.88	26864
828.02	26648
828.159	26613
828.298	26785
828.437	26956
828.577	26670
828.716	26788
828.855	26697
828.994	26575
829.134	26495
829.273	26408
829.412	26389
829.551	26438
829.69	26507
829.829	26549
829.968	26408
830.107	26389
830.246	26518
830.385	26518
830.524	26286
830.663	26176
830.802	26077
830.941	26043
831.08	26012
831.219	26065
831.357	26092
831.496	26233
831.635	26062
831.774	26005
831.913	25966
832.051	25757
832.19	25822
832.329	25795
832.467	25731
832.606	25700
832.744	25647
832.883	25662
833.022	25658
833.16	25605
833.299	25731
833.437	25681
833.576	25727
833.714	25750
833.852	25731
833.991	25814
834.129	25788
834.267	25852
834.406	25734
834.544	25647
834.682	25750
834.821	25499
834.959	25898
835.097	25597
835.235	25655
835.373	25658
835.511	25559
835.65	25582
835.788	25537
835.926	25438
836.064	25464
836.202	25324
836.34	25506
836.478	25594
836.615	25411
836.753	25426
836.891	25559
837.029	25430
837.167	25552
837.305	25468
837.443	25411
837.58	25297
837.718	25438
837.856	25384
837.993	25240
838.131	25358
838.269	25225
838.406	25168
838.544	25046
838.681	25015
838.819	24939
838.956	24779
839.094	24741
839.231	24821
839.369	24913
839.506	25114
839.643	24932
839.781	24817
839.918	24642
840.055	24677
840.193	24639
840.33	24665
840.467	24639
840.604	24627
840.742	24962
840.879	24582
841.016	24616
841.153	24498
841.29	24612
841.427	24555
841.564	24551
841.701	24460
841.838	24608
841.975	24551
842.112	24608
842.249	24513
842.385	24300
842.522	24566
842.659	24372
842.796	24327
842.933	24403
843.069	24258
843.206	24277
843.343	24323
843.479	24311
843.616	24365
843.752	24133
843.889	24117
844.025	24247
844.162	24068
844.298	24091
844.435	24300
844.571	24022
844.708	24133
844.844	24140
844.98	24197
845.117	24186
845.253	24018
845.389	23920
845.525	23965
845.661	23817
845.798	23828
845.934	23927
846.07	23756
846.206	23813
846.342	23973
846.478	23703
846.614	23516
846.75	23360
846.886	23729
847.022	23554
847.158	23600
847.294	23516
847.429	23760
847.565	23455
847.701	23771
847.837	23223
847.972	23292
848.108	23368
848.244	23277
848.379	23075
848.515	23105
848.65	23056
848.786	22980
848.921	23155
849.057	23178
849.192	23128
849.328	23136
849.463	23147
849.598	23071
849.734	23014
849.869	22835
850.004	22831
850.14	22782
850.275	22889
850.41	22755
850.545	22850
850.68	22824
850.815	22778
850.95	22672
851.085	22949
851.22	22892
851.355	22892
851.49	22797
851.625	22790
851.76	22771
851.895	22725
852.03	22809
852.165	22771
852.299	22873
852.434	22934
852.569	22892
852.703	22820
852.838	22927
852.973	22839
853.107	22740
853.242	22679
853.376	22710
853.511	22592
853.645	22577
853.78	22752
853.914	22603
854.048	22561
854.183	22428
854.317	22569
854.451	22816
854.585	22592
854.72	22607
854.854	22588
854.988	22504
855.122	22653
855.256	22405
855.39	22554
855.524	22622
855.658	22592
855.792	22607
855.926	22592
856.06	22702
856.194	22687
856.327	22519
856.461	22512
856.595	22603
856.729	22474
856.862	22664
856.996	22744
857.13	22596
857.263	22615
857.397	22656
857.53	22660
857.664	22660
857.797	22538
857.931	22645
858.064	22637
858.197	22729
858.331	22565
858.464	22474
858.597	22428
858.731	22474
858.864	22360
858.997	22554
859.13	22599
859.263	22637
859.396	22622
859.529	22462
859.662	22470
859.795	22462
859.928	22565
860.061	22687
860.194	22679
860.327	22634
860.46	22527
860.592	22653
860.725	22729
860.858	22637
860.99	22538
861.123	22512
861.256	22481
861.388	22596
861.521	23117
861.653	22527
861.786	22360
861.918	22523
862.05	22333
862.183	22550
862.315	22538
862.447	22660
862.58	22531
862.712	22375
862.844	22295
862.976	22246
863.108	22367
863.24	22759
863.372	22196
863.504	22242
863.636	22173
863.768	22177
863.9	22048
864.032	22242
864.164	22310
864.296	22249
864.428	22390
864.559	22265
864.691	22234
864.823	22234
864.954	22261
865.086	22166
865.217	22135
865.349	21998
865.48	22082
865.612	22105
865.743	22166
865.875	22078
866.006	22131
866.137	22162
866.269	22268
866.4	22086
866.531	22002
866.662	22105
866.793	22097
866.924	22105
867.055	21972
867.186	22101
867.317	22086
867.448	21998
867.579	22070
867.71	21956
867.841	22048
867.972	22124
868.103	22082
868.233	22040
868.364	22090
868.495	22090
868.625	22341
868.756	22405
868.886	22124
869.017	22367
869.147	22287
869.278	22352
869.408	22337
869.539	22356
869.669	22284
869.799	22318
869.929	22379
870.06	22363
870.19	22603
870.32	22569
870.45	22462
870.58	22721
870.71	22752
870.84	22790
870.97	22748
871.1	22565
871.23	22805
871.36	22843
871.489	22752
871.619	22820
871.749	22911
871.879	22923
872.008	22828
872.138	22866
872.267	22968
872.397	22805
872.526	22649
872.656	22831
872.785	22694
872.915	22904
873.044	23033
873.173	22824
873.303	23010
873.432	22908
873.561	22957
873.69	22854
873.819	22915
873.948	22999
874.077	22847
874.206	22869
874.335	22976
874.464	22999
874.593	23128
874.722	23060
874.851	23113
874.979	23132
875.108	23071
875.237	23010
875.365	23010
875.494	22946
875.623	23246
875.751	23064
875.88	23090
876.008	23334
876.136	23307
876.265	23554
876.393	23554
876.521	23539
876.65	23528
876.778	23516
876.906	23398
877.034	23497
877.162	23539
877.29	23376
877.418	23501
877.546	23425
877.674	23573
877.802	23429
877.93	23402
878.058	23322
878.185	23474
878.313	23497
878.441	23307
878.568	23140
878.696	23303
878.824	23410
878.951	23467
879.079	23619
879.206	23691
879.333	23516
879.461	23520
879.588	23627
879.715	23535
879.842	23722
879.97	23512
880.097	23242
880.224	23242
880.351	23318
880.478	23170
880.605	23246
880.732	23288
880.859	23452
880.986	23284
881.112	23341
881.239	23124
881.366	23056
881.493	23003
881.619	22801
881.746	22900
881.872	22938
881.999	22866
882.125	22850
882.252	22881
882.378	22915
882.505	22892
882.631	22725
882.757	22557
882.883	22440
883.01	22596
883.136	22417
883.262	22504
883.388	22367
883.514	22637
883.64	22527
883.766	22440
883.892	22261
884.018	22177
884.143	22455
884.269	22618
884.395	22242
884.52	22097
884.646	22272
884.772	22070
884.897	22074
885.023	22097
885.148	22238
885.274	22291
885.399	22265
885.524	22055
885.65	22188
885.775	22154
885.9	22032
886.025	22181
886.15	22207
886.275	22048
886.4	22036
886.525	22166
886.65	22082
886.775	22150
886.9	22226
887.025	22268
887.149	22131
887.274	21915
887.399	21892
887.523	21922
887.648	21770
887.773	21747
887.897	22074
888.021	22044
888.146	21743
888.27	22002
888.395	21945
888.519	21941
888.643	21972
888.767	21930
888.891	21762
889.015	21739
889.139	21686
889.263	21709
889.387	21778
889.511	21869
889.635	21778
889.759	21511
889.883	21724
890.006	21717
890.13	21679
890.254	21641
890.377	21644
890.501	21435
890.624	21325
890.748	21549
890.871	21431
890.995	21218
891.118	21112
891.241	21310
891.364	21336
891.488	21222
891.611	21245
891.734	21188
891.857	21298
891.98	21169
892.103	21214
892.226	21218
892.349	21146
892.471	20994
892.594	21112
892.717	21039
892.839	21013
892.962	21119
893.085	21051
893.207	21036
893.33	20998
893.452	20944
893.575	21173
893.697	21066
893.819	21222
893.941	21367
894.064	21230
894.186	21089
894.308	21089
894.43	21249
894.552	21287
894.674	21195
894.796	20861
894.918	20944
895.04	21032
895.161	21150
895.283	21039
895.405	21013
895.526	21089
895.648	21131
895.769	21203
895.891	21119
896.012	21226
896.134	21157
896.255	21165
896.376	21123
896.498	21028
896.619	21154
896.74	21093
896.861	21199
896.982	21526
897.103	21595
897.224	21416
897.345	21325
897.466	21367
897.587	21241
897.708	21477
897.828	21310
897.949	21272
898.07	21047
898.19	21355
898.311	21367
898.431	21306
898.552	21275
898.672	21370
898.792	21283
898.913	21237
899.033	21222
899.153	21047
899.273	20990
899.393	20979
899.513	21020
899.633	21062
899.753	20910
899.873	20967
899.993	20994
900.113	20929
900.232	20982
900.352	20899
900.472	20830
900.591	20777
900.711	20807
900.83	20819
900.95	20883
901.069	20781
901.189	20655
901.308	20423
901.427	20214
901.546	20275
901.665	20336
901.784	20366
901.904	20122
902.023	20202
902.141	19947
902.26	19784
902.379	19852
902.498	19731
902.617	19772
902.735	19845
902.854	19883
902.973	19784
903.091	19476
903.21	19472
903.328	19403
903.446	19384
903.565	19327
903.683	19324
903.801	19103
903.919	19228
904.038	19232
904.156	19107
904.274	19148
904.392	18970
904.51	19099
904.627	18958
904.745	19012
904.863	19019
904.981	18738
905.098	18639
905.216	18631
905.334	18692
905.451	18623
905.569	18703
905.686	18677
905.803	18658
905.921	18475
906.038	18570
906.155	18604
906.272	18369
906.389	18464
906.506	18247
906.623	18251
906.74	18285
906.857	18140
906.974	18186
907.091	18220
907.208	18315
907.324	18121
907.441	18068
907.557	17923
907.674	17870
907.79	17882
907.907	17901
908.023	17904
908.139	17954
908.256	17832
908.372	17733
908.488	17805
908.604	17642
908.72	17512
908.836	17619
908.952	17570
909.068	17520
909.184	17733
909.3	17520
909.415	17566
909.531	17589
909.647	17311
909.762	17277
909.878	17159
909.993	17318
910.108	17322
910.224	17258
910.339	17227
910.454	17162
910.57	17048
910.685	16976
910.8	17250
910.915	17143
911.03	17083
911.145	16949
911.259	16904
911.374	16961
911.489	16710
911.604	16717
911.718	16561
911.833	16584
911.947	16489
912.062	16455
912.176	16679
912.291	16683
912.405	16538
912.519	16858
912.633	16668
912.748	16645
912.862	16535
912.976	16459
913.09	16402
913.204	16284
913.318	16322
913.431	16565
913.545	16516
913.659	16466
913.772	16402
913.886	16230
914	16280
914.113	16154
914.226	16344
914.34	16234
914.453	16234
914.566	16192
914.68	16109
914.793	16105
914.906	15789
915.019	15808
915.132	15755
915.245	15762
915.358	15838
915.47	15827
915.583	15736
915.696	15762
915.809	15964
915.921	15865
916.034	15728
916.146	15618
916.259	15557
916.371	15755
916.483	15762
916.595	15549
916.708	15724
916.82	15648
916.932	15675
917.044	15572
917.156	15530
917.268	15405
917.38	15523
917.491	15450
917.603	15412
917.715	15443
917.826	15481
917.938	15241
918.049	15340
918.161	15340
918.272	15507
918.384	15439
918.495	15310
918.606	15024
918.717	15150
918.828	15135
918.939	15108
919.05	14979
919.161	15180
919.272	14861
919.383	14963
919.494	15093
919.604	15401
919.715	15142
919.826	15058
919.936	15043
920.047	15154
920.157	14971
920.267	15237
920.378	15039
920.488	15062
920.598	15157
920.708	15374
920.818	15272
920.928	15161
921.038	15408
921.148	15344
921.258	14998
921.368	14967
921.477	14765
921.587	14765
921.697	14678
921.806	14750
921.916	14617
922.025	14469
922.134	14457
922.244	14305
922.353	14454
922.462	14278
922.571	14164
922.68	14164
922.789	14020
922.898	14123
923.007	14027
923.116	14077
923.224	14027
923.333	14058
923.442	13917
923.55	13887
923.659	13894
923.767	13849
923.876	13879
923.984	13879
924.092	13772
924.201	13689
924.309	13784
924.417	13746
924.525	13696
924.633	13731
924.741	14530
924.849	13460
924.956	13628
925.064	13472
925.172	13403
925.279	13400
925.387	13392
925.494	13384
925.602	13628
925.709	13537
925.816	13388
925.924	13350
926.031	13525
926.138	13335
926.245	13521
926.352	13255
926.459	13441
926.566	13460
926.673	13297
926.779	13137
926.886	13122
926.993	13046
927.099	13034
927.206	12958
927.312	12886
927.419	12977
927.525	13050
927.631	12943
927.737	12905
927.843	12878
927.95	12745
928.056	12768
928.162	12779
928.267	12840
928.373	13434
928.479	12848
928.585	12616
928.69	12779
928.796	12829
928.901	12616
929.007	12452
929.112	12601
929.218	12578
929.323	12566
929.428	12513
929.533	12563
929.638	12456
929.743	12494
929.848	12551
929.953	12452
930.058	12315
930.163	12163
930.267	12205
930.372	12327
930.477	12114
930.581	12353
930.685	12178
930.79	12110
930.894	12182
930.998	12117
931.103	12201
931.207	11745
931.311	11672
931.415	11558
931.519	11440
931.623	11330
