Data from test_V78500241_1466.txt Node
Date: Fri Mar 25 15:51:57 CST 2022
User: usil
Spectrometer: V785-0024
Trigger mode: 0
Integration Time (sec): 4.000000E-1
Scans to average: 1
Nonlinearity correction enabled: false
Boxcar width: 0
Storing dark spectrum: false
XAxis mode: Wavelengths
Number of Pixels in Spectrum: 1024
>>>>>Begin Spectral Data<<<<<
801.071	28040
801.214	28036
801.356	27850
801.499	27717
801.641	27747
801.783	27557
801.926	27568
802.068	27561
802.211	27591
802.353	27519
802.496	27393
802.638	27275
802.78	27336
802.923	27230
803.065	27093
803.208	27214
803.35	27294
803.492	27367
803.635	27519
803.777	27329
803.919	27397
804.061	27842
804.204	27545
804.346	27466
804.488	27412
804.63	27462
804.773	27443
804.915	27561
805.057	27599
805.199	27523
805.341	27523
805.483	27622
805.626	27538
805.768	27401
805.91	27576
806.052	27629
806.194	27633
806.336	27835
806.478	27728
806.62	27701
806.762	27759
806.904	27934
807.046	28139
807.188	28093
807.33	28013
807.472	28166
807.614	28074
807.756	28051
807.898	28002
808.04	27956
808.182	27914
808.324	27949
808.465	27983
808.607	28169
808.749	28276
808.891	28382
809.033	28519
809.174	28284
809.316	28253
809.458	28177
809.6	28207
809.741	28360
809.883	28588
810.025	28618
810.166	28557
810.308	28580
810.45	28550
810.591	28459
810.733	28367
810.875	28386
811.016	28318
811.158	28204
811.299	28341
811.441	28413
811.582	28516
811.724	28280
811.865	28200
812.007	28261
812.148	28204
812.29	28261
812.431	28390
812.573	28653
812.714	28569
812.855	28831
812.997	28915
813.138	28968
813.279	28809
813.421	28862
813.562	28797
813.703	28596
813.845	28466
813.986	28310
814.127	28013
814.268	28002
814.41	28063
814.551	27953
814.692	28120
814.833	27892
814.974	27892
815.115	28021
815.256	27895
815.397	27956
815.539	27804
815.68	27835
815.821	27793
815.962	27812
816.103	27713
816.244	27606
816.385	27667
816.526	27583
816.666	27214
816.807	27268
816.948	27416
817.089	27329
817.23	27298
817.371	27302
817.512	27275
817.653	27275
817.793	27176
817.934	27203
818.075	27279
818.216	27279
818.356	27252
818.497	27176
818.638	27051
818.778	27001
818.919	27051
819.06	27017
819.2	27123
819.341	27173
819.481	27192
819.622	27348
819.762	27610
819.903	27618
820.043	27374
820.184	27447
820.324	27408
820.465	27279
820.605	27412
820.746	27374
820.886	27317
821.026	27302
821.167	27310
821.307	27496
821.447	27355
821.588	27176
821.728	27074
821.868	26823
822.008	26762
822.149	26785
822.289	26864
822.429	26461
822.569	26328
822.709	26404
822.849	26343
822.99	26389
823.13	26275
823.27	26263
823.41	26199
823.55	26046
823.69	26111
823.83	25951
823.97	26012
824.11	25772
824.25	25753
824.389	25761
824.529	26096
824.669	25921
824.809	26145
824.949	25940
825.089	26001
825.228	25997
825.368	25845
825.508	25807
825.648	25765
825.787	25868
825.927	25776
826.067	25674
826.206	25776
826.346	25928
826.485	25909
826.625	25830
826.765	25795
826.904	25753
827.044	25499
827.183	25552
827.323	25518
827.462	25719
827.601	25559
827.741	25540
827.88	25502
828.02	25403
828.159	25438
828.298	25445
828.437	25552
828.577	25316
828.716	25578
828.855	25441
828.994	25202
829.134	25160
829.273	25308
829.412	25206
829.551	25000
829.69	25274
829.829	25114
829.968	25263
830.107	25187
830.246	25164
830.385	25137
830.524	25099
830.663	25065
830.802	24977
830.941	24753
831.08	24665
831.219	24821
831.357	24859
831.496	24932
831.635	24749
831.774	24631
831.913	24677
832.051	24608
832.19	24559
832.329	24601
832.467	24448
832.606	24292
832.744	24372
832.883	24475
833.022	24475
833.16	24475
833.299	24551
833.437	24448
833.576	24521
833.714	24502
833.852	24559
833.991	24563
834.129	24395
834.267	24547
834.406	24532
834.544	24502
834.682	24570
834.821	24445
834.959	24589
835.097	24517
835.235	24445
835.373	24525
835.511	24486
835.65	24220
835.788	24399
835.926	24216
836.064	24155
836.202	24106
836.34	24410
836.478	24536
836.615	24296
836.753	24369
836.891	24418
837.029	24365
837.167	24350
837.305	24262
837.443	24148
837.58	24079
837.718	24254
837.856	24334
837.993	24281
838.131	24182
838.269	24015
838.406	23977
838.544	24095
838.681	23859
838.819	23805
838.956	23539
839.094	23611
839.231	23687
839.369	23703
839.506	24022
839.643	23847
839.781	23615
839.918	23676
840.055	23676
840.193	23672
840.33	23543
840.467	23619
840.604	23642
840.742	23767
840.879	23505
841.016	23372
841.153	23433
841.29	23695
841.427	23509
841.564	23528
841.701	23547
841.838	23623
841.975	23509
842.112	23436
842.249	23406
842.385	23212
842.522	23608
842.659	23353
842.796	23288
842.933	23269
843.069	23383
843.206	23231
843.343	23337
843.479	23254
843.616	23227
843.752	23147
843.889	23018
844.025	23258
844.162	23037
844.298	23227
844.435	23094
844.571	23140
844.708	23162
844.844	23170
844.98	23250
845.117	23166
845.253	23048
845.389	22991
845.525	22995
845.661	22854
845.798	22748
845.934	22866
846.07	22710
846.206	22900
846.342	23003
846.478	22812
846.614	22630
846.75	22417
846.886	22394
847.022	22706
847.158	22519
847.294	22550
847.429	22641
847.565	22405
847.701	22771
847.837	22344
847.972	22322
848.108	22375
848.244	22265
848.379	22162
848.515	22025
848.65	22173
848.786	22154
848.921	22196
849.057	22158
849.192	22185
849.328	22196
849.463	22166
849.598	22120
849.734	22082
849.869	22010
850.004	21949
850.14	21941
850.275	21956
850.41	21808
850.545	21842
850.68	21808
850.815	21949
850.95	21793
851.085	21975
851.22	21926
851.355	21934
851.49	21781
851.625	21937
851.76	21892
851.895	21781
852.03	21694
852.165	21797
852.299	21960
852.434	21960
852.569	21895
852.703	21968
852.838	21907
852.973	22029
853.107	22112
853.242	21854
853.376	21774
853.511	21603
853.645	21751
853.78	21762
853.914	21728
854.048	21762
854.183	21701
854.317	21793
854.451	21918
854.585	21816
854.72	21717
854.854	21736
854.988	21679
855.122	21671
855.256	21530
855.39	21675
855.524	21682
855.658	21641
855.792	21747
855.926	21675
856.06	21865
856.194	21846
856.327	21774
856.461	21751
856.595	21679
856.729	21694
856.862	21781
856.996	21675
857.13	21865
857.263	21800
857.397	21739
857.53	21713
857.664	21762
857.797	21766
857.931	21797
858.064	21774
858.197	21873
858.331	21690
858.464	21622
858.597	21633
858.731	21629
858.864	21743
858.997	21705
859.13	21739
859.263	21671
859.396	21926
859.529	21679
859.662	21671
859.795	21572
859.928	21660
860.061	21926
860.194	21880
860.327	21732
860.46	21869
860.592	21850
860.725	21934
860.858	21907
860.99	21812
861.123	21747
861.256	21557
861.388	21701
861.521	22531
861.653	21732
861.786	21504
861.918	21705
862.05	21587
862.183	21591
862.315	21641
862.447	21724
862.58	21633
862.712	21450
862.844	21363
862.976	21515
863.108	21500
863.24	21930
863.372	21272
863.504	21481
863.636	21363
863.768	21496
863.9	21401
864.032	21412
864.164	21428
864.296	21389
864.428	21428
864.559	21412
864.691	21534
864.823	21504
864.954	21412
865.086	21382
865.217	21348
865.349	21252
865.48	21363
865.612	21458
865.743	21485
865.875	21325
866.006	21321
866.137	21336
866.269	21344
866.4	21340
866.531	21214
866.662	21222
866.793	21260
866.924	21192
867.055	21222
867.186	21275
867.317	21154
867.448	21230
867.579	21214
867.71	21180
867.841	21081
867.972	21165
868.103	21268
868.233	21211
868.364	21237
868.495	21272
868.625	21504
868.756	21610
868.886	21587
869.017	21462
869.147	21595
869.278	21614
869.408	21591
869.539	21561
869.669	21580
869.799	21450
869.929	21663
870.06	21542
870.19	21838
870.32	21861
870.45	21831
870.58	21770
870.71	21998
870.84	21949
870.97	21819
871.1	21880
871.23	21922
871.36	22006
871.489	21979
871.619	21991
871.749	22021
871.879	22109
872.008	22181
872.138	22105
872.267	22181
872.397	21968
872.526	21892
872.656	22032
872.785	22013
872.915	22162
873.044	22226
873.173	22177
873.303	22124
873.432	22090
873.561	22242
873.69	22188
873.819	22131
873.948	22207
874.077	22063
874.206	22215
874.335	22131
874.464	22200
874.593	22379
874.722	22382
874.851	22405
874.979	22352
875.108	22417
875.237	22291
875.365	22246
875.494	22303
875.623	22394
875.751	22360
875.88	22390
876.008	22436
876.136	22603
876.265	22752
876.393	22824
876.521	22839
876.65	22771
876.778	22733
876.906	22702
877.034	22618
877.162	22691
877.29	22664
877.418	22660
877.546	22710
877.674	22805
877.802	22774
877.93	22721
878.058	22603
878.185	22664
878.313	22710
878.441	22729
878.568	22569
878.696	22664
878.824	22717
878.951	22904
879.079	22961
879.206	22862
879.333	22839
879.461	22706
879.588	22744
879.715	22953
879.842	22854
879.97	22687
880.097	22466
880.224	22599
880.351	22546
880.478	22596
880.605	22394
880.732	22497
880.859	22698
880.986	22554
881.112	22550
881.239	22348
881.366	22109
881.493	22207
881.619	22135
881.746	22192
881.872	22177
881.999	22086
882.125	21899
882.252	22192
882.378	22112
882.505	22128
882.631	21915
882.757	21785
882.883	21823
883.01	21717
883.136	21652
883.262	21686
883.388	21557
883.514	21778
883.64	21918
883.766	21698
883.892	21542
884.018	21496
884.143	21698
884.269	21797
884.395	21473
884.52	21454
884.646	21492
884.772	21351
884.897	21321
885.023	21348
885.148	21477
885.274	21583
885.399	21408
885.524	21428
885.65	21466
885.775	21351
885.9	21382
886.025	21454
886.15	21450
886.275	21382
886.4	21272
886.525	21287
886.65	21469
886.775	21272
886.9	21447
887.025	21553
887.149	21466
887.274	21279
887.399	21188
887.523	21123
887.648	21127
887.773	21074
887.897	21199
888.021	21138
888.146	21127
888.27	21184
888.395	21207
888.519	21096
888.643	21252
888.767	21211
888.891	21116
889.015	20994
889.139	21039
889.263	21001
889.387	21150
889.511	21329
889.635	21146
889.759	20963
889.883	20963
890.006	20925
890.13	21123
890.254	20880
890.377	20963
890.501	20720
890.624	20682
890.748	20777
890.871	20613
890.995	20518
891.118	20480
891.241	20655
891.364	20621
891.488	20640
891.611	20530
891.734	20511
891.857	20590
891.98	20522
892.103	20678
892.226	20465
892.349	20571
892.471	20298
892.594	20393
892.717	20438
892.839	20355
892.962	20549
893.085	20465
893.207	20381
893.33	20263
893.452	20290
893.575	20393
893.697	20336
893.819	20530
893.941	20655
894.064	20552
894.186	20362
894.308	20366
894.43	20446
894.552	20503
894.674	20457
894.796	20389
894.918	20362
895.04	20377
895.161	20488
895.283	20473
895.405	20294
895.526	20351
895.648	20446
895.769	20309
895.891	20476
896.012	20503
896.134	20655
896.255	20476
896.376	20347
896.498	20522
896.619	20427
896.74	20438
896.861	20419
896.982	20735
897.103	20948
897.224	20773
897.345	20659
897.466	20609
897.587	20727
897.708	20731
897.828	20743
897.949	20629
898.07	20442
898.19	20530
898.311	20708
898.431	20594
898.552	20686
898.672	20678
898.792	20629
898.913	20708
899.033	20602
899.153	20511
899.273	20393
899.393	20423
899.513	20446
899.633	20446
899.753	20461
899.873	20317
899.993	20374
900.113	20347
900.232	20362
900.352	20317
900.472	20210
900.591	20195
900.711	20328
900.83	20168
900.95	20298
901.069	20286
901.189	20126
901.308	19761
901.427	19734
901.546	19761
901.665	19822
901.784	19753
901.904	19609
902.023	19559
902.141	19206
902.26	19282
902.379	19403
902.498	19312
902.617	19274
902.735	19202
902.854	19247
902.973	19194
903.091	18871
903.21	18916
903.328	18916
903.446	18821
903.565	18753
903.683	18726
903.801	18551
903.919	18669
904.038	18608
904.156	18483
904.274	18521
904.392	18464
904.51	18388
904.627	18448
904.745	18456
904.863	18486
904.981	18270
905.098	18159
905.216	18186
905.334	18171
905.451	18277
905.569	18167
905.686	18106
905.803	18144
905.921	17916
906.038	18072
906.155	18007
906.272	17817
906.389	17775
906.506	17695
906.623	17672
906.74	17653
906.857	17634
906.974	17611
907.091	17649
907.208	17741
907.324	17573
907.441	17608
907.557	17493
907.674	17345
907.79	17383
907.907	17353
908.023	17425
908.139	17322
908.256	17303
908.372	17334
908.488	17299
908.604	17166
908.72	17083
908.836	17113
908.952	17136
909.068	17208
909.184	17258
909.3	17124
909.415	17003
909.531	17151
909.647	16904
909.762	16858
909.878	16896
909.993	16805
910.108	16778
910.224	16736
910.339	16824
910.454	16767
910.57	16622
910.685	16645
910.8	16748
910.915	16790
911.03	16542
911.145	16428
911.259	16436
911.374	16421
911.489	16310
911.604	16207
911.718	16158
911.833	16158
911.947	16029
912.062	16078
912.176	16097
912.291	16036
912.405	16116
912.519	16310
912.633	16360
912.748	16158
912.862	16215
912.976	16013
913.09	15915
913.204	15949
913.318	15880
913.431	16055
913.545	16002
913.659	16063
913.772	15926
913.886	15880
914	15736
914.113	15762
914.226	15899
914.34	15797
914.453	15568
914.566	15743
914.68	15644
914.793	15568
914.906	15443
915.019	15382
915.132	15367
915.245	15306
915.358	15291
915.47	15412
915.583	15416
915.696	15359
915.809	15523
915.921	15462
916.034	15325
916.146	15233
916.259	15252
916.371	15408
916.483	15294
916.595	15176
916.708	15226
916.82	15287
916.932	15116
917.044	15161
917.156	15074
917.268	14990
917.38	14956
917.491	15043
917.603	15013
917.715	15001
917.826	14963
917.938	14960
918.049	14899
918.161	14960
918.272	15116
918.384	15108
918.495	14872
918.606	14720
918.717	14659
918.828	14693
918.939	14788
919.05	14621
919.161	14781
919.272	14530
919.383	14651
919.494	14880
919.604	14876
919.715	14750
919.826	14606
919.936	14655
920.047	14746
920.157	14724
920.267	14876
920.378	14697
920.488	14617
920.598	14868
920.708	14998
920.818	14838
920.928	14811
921.038	14921
921.148	14960
921.258	14697
921.368	14640
921.477	14427
921.587	14438
921.697	14355
921.806	14442
921.916	14278
922.025	14123
922.134	14062
922.244	13989
922.353	13993
922.462	13944
922.571	14016
922.68	13753
922.789	13696
922.898	13784
923.007	13689
923.116	13689
923.224	13757
923.333	13677
923.442	13677
923.55	13483
923.659	13476
923.767	13601
923.876	13559
923.984	13578
924.092	13472
924.201	13411
924.309	13480
924.417	13521
924.525	13327
924.633	13400
924.741	14206
924.849	13213
924.956	13396
925.064	13175
925.172	13152
925.279	13118
925.387	13164
925.494	13118
925.602	13209
925.709	13202
925.816	13050
925.924	13103
926.031	13206
926.138	13034
926.245	13053
926.352	12905
926.459	13084
926.566	13168
926.673	12966
926.779	12875
926.886	12859
926.993	12707
927.099	12719
927.206	12669
927.312	12654
927.419	12795
927.525	12711
927.631	12696
927.737	12665
927.843	12540
927.95	12361
928.056	12509
928.162	12521
928.267	12509
928.373	13240
928.479	12604
928.585	12308
928.69	12456
928.796	12475
928.901	12380
929.007	12190
929.112	12422
929.218	12338
929.323	12292
929.428	12209
929.533	12388
929.638	12102
929.743	12136
929.848	12235
929.953	12167
930.058	12019
930.163	11916
930.267	11904
930.372	12133
930.477	11866
930.581	12057
930.685	11958
930.79	11817
930.894	11874
930.998	11878
931.103	11996
931.207	11547
931.311	11486
931.415	11356
931.519	11246
931.623	11159
