Data from test_V78500241_1739.txt Node
Date: Fri Mar 25 15:53:50 CST 2022
User: usil
Spectrometer: V785-0024
Trigger mode: 0
Integration Time (sec): 4.000000E-1
Scans to average: 1
Nonlinearity correction enabled: false
Boxcar width: 0
Storing dark spectrum: false
XAxis mode: Wavelengths
Number of Pixels in Spectrum: 1024
>>>>>Begin Spectral Data<<<<<
801.071	28504
801.214	28306
801.356	28398
801.499	28314
801.641	28105
801.783	28063
801.926	28078
802.068	27991
802.211	27926
802.353	28017
802.496	27675
802.638	27705
802.78	27682
802.923	27603
803.065	27633
803.208	27705
803.35	27747
803.492	27804
803.635	27964
803.777	27766
803.919	28013
804.061	28261
804.204	27987
804.346	27831
804.488	27762
804.63	27922
804.773	27846
804.915	28059
805.057	28010
805.199	27930
805.341	27960
805.483	28067
805.626	28143
805.768	27960
805.91	28074
806.052	28101
806.194	28078
806.336	28207
806.478	28185
806.62	27949
806.762	28169
806.904	28375
807.046	28592
807.188	28523
807.33	28519
807.472	28603
807.614	28451
807.756	28489
807.898	28257
808.04	28310
808.182	28371
808.324	28348
808.465	28394
808.607	28660
808.749	28630
808.891	28809
809.033	28862
809.174	28839
809.316	28702
809.458	28702
809.6	28706
809.741	28885
809.883	28854
810.025	29014
810.166	28881
810.308	29121
810.45	28976
810.591	28919
810.733	28721
810.875	28664
811.016	28630
811.158	28618
811.299	28896
811.441	29044
811.582	28793
811.724	28793
811.865	28828
812.007	28615
812.148	28805
812.29	28976
812.431	28805
812.573	29044
812.714	29288
812.855	29273
812.997	29334
813.138	29455
813.279	29337
813.421	29280
813.562	29235
813.703	28968
813.845	29029
813.986	28710
814.127	28542
814.268	28603
814.41	28573
814.551	28466
814.692	28535
814.833	28447
814.974	28443
815.115	28630
815.256	28303
815.397	28409
815.539	28344
815.68	28295
815.821	28223
815.962	28253
816.103	28207
816.244	27991
816.385	28021
816.526	28101
816.666	27994
816.807	27747
816.948	27873
817.089	27903
817.23	27842
817.371	27819
817.512	27705
817.653	27663
817.793	27648
817.934	27816
818.075	27587
818.216	27797
818.356	27549
818.497	27641
818.638	27568
818.778	27625
818.919	27568
819.06	27587
819.2	27656
819.341	27713
819.481	27808
819.622	27972
819.762	28090
819.903	28002
820.043	27949
820.184	27911
820.324	27888
820.465	28029
820.605	27728
820.746	27804
820.886	27854
821.026	27850
821.167	27709
821.307	27998
821.447	27819
821.588	27625
821.728	27614
821.868	27367
822.008	27412
822.149	27214
822.289	27233
822.429	27074
822.569	26906
822.709	26963
822.849	26773
822.99	26826
823.13	26735
823.27	26720
823.41	26492
823.55	26480
823.69	26450
823.83	26541
823.97	26568
824.11	26415
824.25	26240
824.389	26309
824.529	26351
824.669	26408
824.809	26499
824.949	26518
825.089	26537
825.228	26393
825.368	26252
825.508	26358
825.648	26256
825.787	26259
825.927	26336
826.067	26294
826.206	26275
826.346	26374
826.485	26381
826.625	26324
826.765	26431
826.904	26317
827.044	25989
827.183	26081
827.323	25963
827.462	25917
827.601	25978
827.741	25871
827.88	25966
828.02	25928
828.159	25795
828.298	25951
828.437	25974
828.577	25925
828.716	25993
828.855	25944
828.994	25757
829.134	25742
829.273	25788
829.412	25624
829.551	25643
829.69	25540
829.829	25738
829.968	25826
830.107	25769
830.246	25712
830.385	25677
830.524	25681
830.663	25430
830.802	25411
830.941	25301
831.08	25316
831.219	25297
831.357	25312
831.496	25479
831.635	25240
831.774	25206
831.913	25194
832.051	25072
832.19	25057
832.329	25095
832.467	24886
832.606	24951
832.744	24863
832.883	25057
833.022	24916
833.16	24996
833.299	25148
833.437	25053
833.576	24905
833.714	25034
833.852	24989
833.991	25107
834.129	25148
834.267	25050
834.406	24954
834.544	24966
834.682	24992
834.821	24962
834.959	25080
835.097	24981
835.235	25012
835.373	24928
835.511	24798
835.65	24802
835.788	24939
835.926	24623
836.064	24669
836.202	24715
836.34	24962
836.478	24867
836.615	24741
836.753	24852
836.891	24970
837.029	24894
837.167	24806
837.305	24840
837.443	24749
837.58	24612
837.718	24741
837.856	24589
837.993	24654
838.131	24566
838.269	24490
838.406	24570
838.544	24601
838.681	24319
838.819	24197
838.956	23980
839.094	24194
839.231	24182
839.369	24220
839.506	24426
839.643	24441
839.781	23984
839.918	24083
840.055	24163
840.193	24140
840.33	24026
840.467	24144
840.604	24026
840.742	24285
840.879	23904
841.016	24053
841.153	23923
841.29	24015
841.427	23870
841.564	24045
841.701	23950
841.838	24121
841.975	23786
842.112	23893
842.249	23859
842.385	23840
842.522	23920
842.659	23954
842.796	23722
842.933	23722
843.069	23805
843.206	23729
843.343	23813
843.479	23802
843.616	23729
843.752	23577
843.889	23600
844.025	23649
844.162	23531
844.298	23566
844.435	23608
844.571	23630
844.708	23509
844.844	23779
844.98	23699
845.117	23581
845.253	23425
845.389	23452
845.525	23440
845.661	23330
845.798	23395
845.934	23425
846.07	23242
846.206	23398
846.342	23379
846.478	23284
846.614	23239
846.75	23041
846.886	22984
847.022	23143
847.158	22999
847.294	22999
847.429	22957
847.565	22934
847.701	23261
847.837	22771
847.972	22816
848.108	22774
848.244	22771
848.379	22618
848.515	22637
848.65	22493
848.786	22596
848.921	22645
849.057	22618
849.192	22729
849.328	22679
849.463	22523
849.598	22645
849.734	22542
849.869	22459
850.004	22291
850.14	22363
850.275	22386
850.41	22253
850.545	22310
850.68	22329
850.815	22489
850.95	22428
851.085	22527
851.22	22474
851.355	22417
851.49	22211
851.625	22371
851.76	22280
851.895	22284
852.03	22226
852.165	22405
852.299	22402
852.434	22451
852.569	22424
852.703	22375
852.838	22348
852.973	22474
853.107	22432
853.242	22386
853.376	22116
853.511	21960
853.645	22112
853.78	22356
853.914	22188
854.048	22223
854.183	22109
854.317	22219
854.451	22500
854.585	22139
854.72	22162
854.854	22325
854.988	22166
855.122	22192
855.256	22097
855.39	22276
855.524	22284
855.658	22173
855.792	22207
855.926	22055
856.06	22219
856.194	22257
856.327	22204
856.461	22169
856.595	22044
856.729	22093
856.862	22257
856.996	22177
857.13	22329
857.263	22226
857.397	22367
857.53	22158
857.664	22246
857.797	22215
857.931	22325
858.064	22219
858.197	22291
858.331	22173
858.464	22048
858.597	22109
858.731	22059
858.864	22090
858.997	22143
859.13	22116
859.263	22173
859.396	22276
859.529	22238
859.662	22150
859.795	22177
859.928	22067
860.061	22185
860.194	22344
860.327	22261
860.46	22200
860.592	22291
860.725	22322
860.858	22280
860.99	22177
861.123	22036
861.256	22192
861.388	22139
861.521	22930
861.653	22112
861.786	21873
861.918	22013
862.05	22116
862.183	22124
862.315	22238
862.447	22109
862.58	22109
862.712	21937
862.844	21869
862.976	21857
863.108	21857
863.24	22291
863.372	21785
863.504	21854
863.636	21972
863.768	21850
863.9	21819
864.032	21759
864.164	21846
864.296	21865
864.428	21888
864.559	21983
864.691	21842
864.823	21937
864.954	21781
865.086	21800
865.217	21812
865.349	21633
865.48	21804
865.612	21728
865.743	21930
865.875	21682
866.006	21774
866.137	21755
866.269	21789
866.4	21705
866.531	21675
866.662	21641
866.793	21618
866.924	21720
867.055	21774
867.186	21671
867.317	21618
867.448	21625
867.579	21698
867.71	21614
867.841	21587
867.972	21682
868.103	21583
868.233	21736
868.364	21675
868.495	21850
868.625	21892
868.756	21960
868.886	21884
869.017	22025
869.147	22116
869.278	21994
869.408	21941
869.539	21922
869.669	21964
869.799	22032
869.929	22044
870.06	22017
870.19	22173
870.32	22139
870.45	22166
870.58	22356
870.71	22367
870.84	22360
870.97	22413
871.1	22413
871.23	22436
871.36	22470
871.489	22470
871.619	22497
871.749	22550
871.879	22565
872.008	22523
872.138	22424
872.267	22485
872.397	22341
872.526	22356
872.656	22291
872.785	22268
872.915	22527
873.044	22569
873.173	22542
873.303	22489
873.432	22683
873.561	22603
873.69	22622
873.819	22569
873.948	22557
874.077	22588
874.206	22516
874.335	22603
874.464	22660
874.593	22786
874.722	22691
874.851	22934
874.979	22752
875.108	22782
875.237	22805
875.365	22630
875.494	22626
875.623	22812
875.751	22801
875.88	22698
876.008	22771
876.136	22923
876.265	23326
876.393	23360
876.521	23258
876.65	23170
876.778	23060
876.906	22984
877.034	22984
877.162	23018
877.29	23033
877.418	22934
877.546	22984
877.674	22968
877.802	23273
877.93	23098
878.058	23041
878.185	22911
878.313	23109
878.441	23022
878.568	22778
878.696	22976
878.824	23124
878.951	23121
879.079	23258
879.206	23372
879.333	23231
879.461	23166
879.588	23174
879.715	23356
879.842	23379
879.97	23162
880.097	23056
880.224	22869
880.351	22812
880.478	22919
880.605	22923
880.732	23006
880.859	23174
880.986	22957
881.112	22831
881.239	22675
881.366	22675
881.493	22550
881.619	22424
881.746	22421
881.872	22504
881.999	22451
882.125	22356
882.252	22561
882.378	22478
882.505	22519
882.631	22356
882.757	22131
882.883	22303
883.01	22063
883.136	22268
883.262	22067
883.388	22086
883.514	22093
883.64	22234
883.766	22010
883.892	21880
884.018	22051
884.143	22090
884.269	22143
884.395	21819
884.52	21797
884.646	21797
884.772	21701
884.897	21663
885.023	21823
885.148	21812
885.274	21838
885.399	21918
885.524	21736
885.65	21808
885.775	21762
885.9	21713
886.025	21785
886.15	21865
886.275	21690
886.4	21720
886.525	21793
886.65	21682
886.775	21755
886.9	21915
887.025	21979
887.149	21686
887.274	21633
887.399	21545
887.523	21485
887.648	21538
887.773	21435
887.897	21614
888.021	21667
888.146	21477
888.27	21538
888.395	21728
888.519	21622
888.643	21538
888.767	21663
888.891	21462
889.015	21332
889.139	21340
889.263	21363
889.387	21431
889.511	21606
889.635	21481
889.759	21321
889.883	21272
890.006	21325
890.13	21504
890.254	21367
890.377	21313
890.501	21150
890.624	21127
890.748	21180
890.871	21093
890.995	20910
891.118	20967
891.241	20857
891.364	20941
891.488	20975
891.611	20880
891.734	20975
891.857	20876
891.98	20937
892.103	20868
892.226	20941
892.349	20906
892.471	20773
892.594	20868
892.717	21032
892.839	20785
892.962	20921
893.085	21005
893.207	20861
893.33	20674
893.452	20678
893.575	20921
893.697	20842
893.819	20921
893.941	21013
894.064	20929
894.186	20792
894.308	20796
894.43	20883
894.552	20857
894.674	20925
894.796	20750
894.918	20769
895.04	20811
895.161	20929
895.283	20906
895.405	20834
895.526	20769
895.648	20686
895.769	20899
895.891	20735
896.012	20864
896.134	20872
896.255	20826
896.376	20746
896.498	20743
896.619	20845
896.74	20712
896.861	20880
896.982	21081
897.103	21264
897.224	21119
897.345	21135
897.466	21028
897.587	20971
897.708	21085
897.828	21112
897.949	20994
898.07	20883
898.19	20982
898.311	21047
898.431	20982
898.552	20994
898.672	21009
898.792	21104
898.913	21047
899.033	20948
899.153	20925
899.273	20712
899.393	20815
899.513	20769
899.633	20826
899.753	20815
899.873	20781
899.993	20758
900.113	20648
900.232	20765
900.352	20689
900.472	20579
900.591	20533
900.711	20621
900.83	20480
900.95	20697
901.069	20670
901.189	20442
901.308	20168
901.427	20062
901.546	20191
901.665	20153
901.784	20008
901.904	20012
902.023	19894
902.141	19674
902.26	19731
902.379	19712
902.498	19689
902.617	19651
902.735	19677
902.854	19556
902.973	19563
903.091	19320
903.21	19285
903.328	19217
903.446	19232
903.565	19080
903.683	19240
903.801	19065
903.919	19004
904.038	19099
904.156	18787
904.274	18791
904.392	18817
904.51	18840
904.627	18852
904.745	18817
904.863	18897
904.981	18551
905.098	18547
905.216	18467
905.334	18486
905.451	18547
905.569	18376
905.686	18593
905.803	18437
905.921	18235
906.038	18384
906.155	18361
906.272	18095
906.389	18171
906.506	18125
906.623	18068
906.74	18087
906.857	17866
906.974	17950
907.091	18079
907.208	18186
907.324	18068
907.441	17969
907.557	17733
907.674	17760
907.79	17600
907.907	17695
908.023	17741
908.139	17714
908.256	17642
908.372	17634
908.488	17619
908.604	17608
908.72	17376
908.836	17512
908.952	17429
909.068	17490
909.184	17627
909.3	17429
909.415	17414
909.531	17452
909.647	17296
909.762	17113
909.878	17193
909.993	17098
910.108	17189
910.224	17052
910.339	17151
910.454	17075
910.57	16873
910.685	16862
910.8	17197
910.915	16957
911.03	16885
911.145	16767
911.259	16843
911.374	16733
911.489	16755
911.604	16645
911.718	16417
911.833	16512
911.947	16390
912.062	16341
912.176	16531
912.291	16512
912.405	16470
912.519	16763
912.633	16694
912.748	16573
912.862	16462
912.976	16386
913.09	16173
913.204	16204
913.318	16230
913.431	16394
913.545	16337
913.659	16375
913.772	16371
913.886	16131
914	16120
914.113	16158
914.226	16215
914.34	16055
914.453	16044
914.566	15941
914.68	15899
914.793	16013
914.906	15835
915.019	15709
915.132	15652
915.245	15637
915.358	15660
915.47	15667
915.583	15603
915.696	15633
915.809	15823
915.921	15823
916.034	15523
916.146	15622
916.259	15576
916.371	15564
916.483	15625
916.595	15481
916.708	15511
916.82	15416
916.932	15485
917.044	15507
917.156	15367
917.268	15355
917.38	15237
917.491	15283
917.603	15241
917.715	15378
917.826	15435
917.938	15321
918.049	15218
918.161	15176
918.272	15340
918.384	15401
918.495	15264
918.606	15093
918.717	14982
918.828	15032
918.939	15097
919.05	14937
919.161	15043
919.272	14914
919.383	14933
919.494	15066
919.604	15154
919.715	15047
919.826	14941
919.936	14960
920.047	15070
920.157	15024
920.267	15233
920.378	14921
920.488	14994
920.598	15214
920.708	15252
920.818	15214
920.928	15055
921.038	15192
921.148	15291
921.258	14921
921.368	14781
921.477	14765
921.587	14670
921.697	14564
921.806	14754
921.916	14678
922.025	14518
922.134	14256
922.244	14278
922.353	14412
922.462	14233
922.571	14062
922.68	14058
922.789	13967
922.898	13997
923.007	14008
923.116	13997
923.224	13887
923.333	13928
923.442	13830
923.55	13841
923.659	13894
923.767	13864
923.876	13780
923.984	13811
924.092	13662
924.201	13784
924.309	13742
924.417	13734
924.525	13662
924.633	13639
924.741	14507
924.849	13460
924.956	13601
925.064	13411
925.172	13354
925.279	13426
925.387	13487
925.494	13441
925.602	13476
925.709	13441
925.816	13312
925.924	13335
926.031	13362
926.138	13278
926.245	13400
926.352	13308
926.459	13339
926.566	13384
926.673	13160
926.779	13190
926.886	13061
926.993	12962
927.099	12993
927.206	12962
927.312	12897
927.419	12996
927.525	12947
927.631	12916
927.737	12837
927.843	12795
927.95	12707
928.056	12692
928.162	12715
928.267	12787
928.373	13335
928.479	12821
928.585	12665
928.69	12787
928.796	12692
928.901	12642
929.007	12479
929.112	12612
929.218	12585
929.323	12544
929.428	12570
929.533	12525
929.638	12418
929.743	12456
929.848	12448
929.953	12486
930.058	12311
930.163	12098
930.267	12197
930.372	12330
930.477	12022
930.581	12304
930.685	12186
930.79	12045
930.894	12049
930.998	11984
931.103	12064
931.207	11703
931.311	11726
931.415	11581
931.519	11478
931.623	11334
