Data from test_V78500241_57.txt Node
Date: Fri Mar 25 15:42:11 CST 2022
User: usil
Spectrometer: V785-0024
Trigger mode: 0
Integration Time (sec): 4.000000E-1
Scans to average: 1
Nonlinearity correction enabled: false
Boxcar width: 0
Storing dark spectrum: false
XAxis mode: Wavelengths
Number of Pixels in Spectrum: 1024
>>>>>Begin Spectral Data<<<<<
801.071	29657
801.214	29535
801.356	29311
801.499	29121
801.641	29181
801.783	29124
801.926	29037
802.068	29090
802.211	28961
802.353	28976
802.496	28767
802.638	28748
802.78	28816
802.923	28656
803.065	28664
803.208	28790
803.35	28664
803.492	28831
803.635	28858
803.777	28740
803.919	28965
804.061	29239
804.204	28927
804.346	28927
804.488	28778
804.63	28930
804.773	28725
804.915	28820
805.057	28896
805.199	28915
805.341	28942
805.483	28980
805.626	28938
805.768	28911
805.91	28942
806.052	28976
806.194	28949
806.336	29204
806.478	28995
806.62	28919
806.762	29064
806.904	29220
807.046	29444
807.188	29379
807.33	29315
807.472	29486
807.614	29231
807.756	29292
807.898	29064
808.04	28980
808.182	29006
808.324	29037
808.465	29170
808.607	29258
808.749	29398
808.891	29581
809.033	29497
809.174	29356
809.316	29486
809.458	29543
809.6	29372
809.741	29425
809.883	29638
810.025	29676
810.166	29737
810.308	29760
810.45	29638
810.591	29634
810.733	29501
810.875	29467
811.016	29337
811.158	29341
811.299	29535
811.441	29490
811.582	29478
811.724	29436
811.865	29277
812.007	29421
812.148	29490
812.29	29383
812.431	29623
812.573	29779
812.714	29828
812.855	29764
812.997	29855
813.138	30064
813.279	30110
813.421	29904
813.562	29866
813.703	29798
813.845	29467
813.986	29318
814.127	29086
814.268	28934
814.41	28972
814.551	28923
814.692	28984
814.833	28938
814.974	28976
815.115	28873
815.256	28911
815.397	28740
815.539	28854
815.68	28675
815.821	28683
815.962	28736
816.103	28672
816.244	28622
816.385	28573
816.526	28360
816.666	28124
816.807	28044
816.948	28253
817.089	28238
817.23	28226
817.371	28017
817.512	28147
817.653	28162
817.793	27907
817.934	28139
818.075	28177
818.216	28124
818.356	28040
818.497	27941
818.638	27770
818.778	27739
818.919	27846
819.06	27774
819.2	27869
819.341	27865
819.481	27880
819.622	28276
819.762	28261
819.903	28238
820.043	28143
820.184	28128
820.324	28067
820.465	27994
820.605	28029
820.746	28010
820.886	27953
821.026	28002
821.167	27979
821.307	28063
821.447	28029
821.588	27861
821.728	27747
821.868	27519
822.008	27458
822.149	27420
822.289	27477
822.429	27131
822.569	27119
822.709	27249
822.849	26830
822.99	26960
823.13	26891
823.27	26788
823.41	26693
823.55	26590
823.69	26678
823.83	26674
823.97	26590
824.11	26503
824.25	26488
824.389	26469
824.529	26545
824.669	26488
824.809	26511
824.949	26438
825.089	26358
825.228	26526
825.368	26282
825.508	26229
825.648	26119
825.787	26187
825.927	26259
826.067	26180
826.206	26187
826.346	26225
826.485	26339
826.625	26202
826.765	26278
826.904	26187
827.044	25906
827.183	25803
827.323	25986
827.462	25917
827.601	25936
827.741	25890
827.88	25830
828.02	25712
828.159	25799
828.298	25826
828.437	25928
828.577	25761
828.716	25902
828.855	25769
828.994	25578
829.134	25548
829.273	25510
829.412	25578
829.551	25476
829.69	25521
829.829	25537
829.968	25632
830.107	25616
830.246	25438
830.385	25415
830.524	25381
830.663	25190
830.802	25213
830.941	25118
831.08	25118
831.219	25126
831.357	25183
831.496	25373
831.635	25129
831.774	24825
831.913	24966
832.051	24821
832.19	24825
832.329	24734
832.467	24650
832.606	24658
832.744	24536
832.883	24738
833.022	24696
833.16	24601
833.299	24719
833.437	24681
833.576	24608
833.714	24711
833.852	24753
833.991	24741
834.129	24920
834.267	24764
834.406	24700
834.544	24760
834.682	24650
834.821	24532
834.959	24863
835.097	24623
835.235	24711
835.373	24566
835.511	24582
835.65	24513
835.788	24467
835.926	24388
836.064	24220
836.202	24327
836.34	24505
836.478	24593
836.615	24338
836.753	24673
836.891	24627
837.029	24448
837.167	24437
837.305	24315
837.443	24235
837.58	24194
837.718	24266
837.856	24319
837.993	24110
838.131	24281
838.269	24057
838.406	24121
838.544	24057
838.681	23908
838.819	23874
838.956	23764
839.094	23699
839.231	23809
839.369	23885
839.506	24072
839.643	23870
839.781	23695
839.918	23577
840.055	23733
840.193	23676
840.33	23585
840.467	23608
840.604	23676
840.742	23726
840.879	23421
841.016	23524
841.153	23577
841.29	23745
841.427	23646
841.564	23516
841.701	23490
841.838	23596
841.975	23463
842.112	23452
842.249	23376
842.385	23315
842.522	23474
842.659	23436
842.796	23326
842.933	23265
843.069	23159
843.206	23151
843.343	23299
843.479	23121
843.616	23071
843.752	22892
843.889	22934
844.025	23208
844.162	22911
844.298	23003
844.435	22930
844.571	22877
844.708	23006
844.844	23189
844.98	23060
845.117	23064
845.253	22927
845.389	22847
845.525	22835
845.661	22694
845.798	22668
845.934	22687
846.07	22656
846.206	22649
846.342	22767
846.478	22717
846.614	22428
846.75	22303
846.886	22322
847.022	22390
847.158	22466
847.294	22341
847.429	22405
847.565	22360
847.701	22557
847.837	22173
847.972	22082
848.108	22139
848.244	22097
848.379	21926
848.515	21876
848.65	21816
848.786	21922
848.921	21945
849.057	22029
849.192	22040
849.328	21987
849.463	21953
849.598	21873
849.734	21808
849.869	21800
850.004	21561
850.14	21743
850.275	21618
850.41	21618
850.545	21747
850.68	21564
850.815	21553
850.95	21698
851.085	21720
851.22	21751
851.355	21591
851.49	21557
851.625	21614
851.76	21633
851.895	21561
852.03	21641
852.165	21603
852.299	21656
852.434	21686
852.569	21576
852.703	21633
852.838	21656
852.973	21766
853.107	21698
853.242	21564
853.376	21545
853.511	21332
853.645	21424
853.78	21526
853.914	21591
854.048	21431
854.183	21435
854.317	21382
854.451	21679
854.585	21393
854.72	21469
854.854	21576
854.988	21348
855.122	21519
855.256	21332
855.39	21351
855.524	21386
855.658	21587
855.792	21500
855.926	21408
856.06	21428
856.194	21652
856.327	21412
856.461	21351
856.595	21367
856.729	21325
856.862	21473
856.996	21564
857.13	21428
857.263	21462
857.397	21534
857.53	21370
857.664	21496
857.797	21439
857.931	21492
858.064	21473
858.197	21496
858.331	21340
858.464	21241
858.597	21332
858.731	21325
858.864	21329
858.997	21340
859.13	21306
859.263	21348
859.396	21374
859.529	21374
859.662	21355
859.795	21458
859.928	21367
860.061	21473
860.194	21561
860.327	21351
860.46	21367
860.592	21336
860.725	21454
860.858	21374
860.99	21317
861.123	21374
861.256	21310
861.388	21348
861.521	21979
861.653	21173
861.786	21066
861.918	21214
862.05	21317
862.183	21466
862.315	21359
862.447	21447
862.58	21393
862.712	21146
862.844	21074
862.976	21226
863.108	21150
863.24	21412
863.372	21032
863.504	20971
863.636	20960
863.768	21157
863.9	21108
864.032	20952
864.164	20998
864.296	21020
864.428	21070
864.559	21218
864.691	21043
864.823	20994
864.954	20994
865.086	21024
865.217	20967
865.349	20872
865.48	20937
865.612	20853
865.743	21058
865.875	20823
866.006	20891
866.137	20960
866.269	20925
866.4	20891
866.531	20986
866.662	20838
866.793	20777
866.924	20895
867.055	20914
867.186	20853
867.317	20777
867.448	20773
867.579	20830
867.71	20598
867.841	20674
867.972	20804
868.103	20735
868.233	20746
868.364	20727
868.495	20921
868.625	21013
868.756	21203
868.886	20918
869.017	21116
869.147	21237
869.278	21287
869.408	21062
869.539	21055
869.669	21188
869.799	21032
869.929	21214
870.06	21104
870.19	21469
870.32	21370
870.45	21397
870.58	21367
870.71	21412
870.84	21538
870.97	21428
871.1	21530
871.23	21713
871.36	21644
871.489	21568
871.619	21713
871.749	21553
871.879	21701
872.008	21625
872.138	21816
872.267	21595
872.397	21549
872.526	21542
872.656	21431
872.785	21568
872.915	21660
873.044	21770
873.173	21736
873.303	21618
873.432	21694
873.561	21797
873.69	21637
873.819	21648
873.948	21816
874.077	21766
874.206	21644
874.335	21762
874.464	21751
874.593	21983
874.722	21930
874.851	21960
874.979	21884
875.108	22055
875.237	21861
875.365	21774
875.494	21918
875.623	22051
875.751	21857
875.88	21857
876.008	21949
876.136	22158
876.265	22276
876.393	22481
876.521	22344
876.65	22360
876.778	22291
876.906	22329
877.034	22166
877.162	22318
877.29	22291
877.418	22185
877.546	22325
877.674	22310
877.802	22261
877.93	22249
878.058	22257
878.185	22162
878.313	22219
878.441	22177
878.568	22051
878.696	22158
878.824	22230
878.951	22535
879.079	22421
879.206	22512
879.333	22375
879.461	22276
879.588	22310
879.715	22474
879.842	22717
879.97	22352
880.097	22093
880.224	22109
880.351	22120
880.478	22105
880.605	22097
880.732	22090
880.859	22443
880.986	22177
881.112	21991
881.239	21888
881.366	21755
881.493	21789
881.619	21804
881.746	21713
881.872	21641
881.999	21793
882.125	21656
882.252	21770
882.378	21667
882.505	21759
882.631	21663
882.757	21458
882.883	21401
883.01	21412
883.136	21268
883.262	21336
883.388	21180
883.514	21500
883.64	21370
883.766	21268
883.892	21192
884.018	21058
884.143	21420
884.269	21428
884.395	21169
884.52	20994
884.646	21081
884.772	21047
884.897	20853
885.023	21100
885.148	21093
885.274	21214
885.399	21093
885.524	21062
885.65	20979
885.775	21089
885.9	21005
886.025	21119
886.15	21116
886.275	20902
886.4	20948
886.525	21047
886.65	20956
886.775	20944
886.9	21085
887.025	21230
887.149	20971
887.274	20712
887.399	20701
887.523	20758
887.648	20746
887.773	20686
887.897	20838
888.021	20838
888.146	20667
888.27	20845
888.395	20830
888.519	20891
888.643	20746
888.767	20868
888.891	20758
889.015	20465
889.139	20598
889.263	20545
889.387	20594
889.511	20845
889.635	20739
889.759	20480
889.883	20629
890.006	20613
890.13	20727
890.254	20476
890.377	20461
890.501	20305
890.624	20282
890.748	20408
890.871	20107
890.995	20180
891.118	20103
891.241	20153
891.364	20202
891.488	20214
891.611	20119
891.734	20054
891.857	20248
891.98	20103
892.103	20233
892.226	20180
892.349	20065
892.471	19955
892.594	19986
892.717	20039
892.839	20100
892.962	20020
893.085	20180
893.207	19989
893.33	19982
893.452	19974
893.575	19993
893.697	20058
893.819	20195
893.941	20271
894.064	20065
894.186	19909
894.308	20008
894.43	20088
894.552	20206
894.674	20248
894.796	20005
894.918	19955
895.04	19993
895.161	20012
895.283	20100
895.405	19917
895.526	20149
895.648	20100
895.769	20126
895.891	20130
896.012	20077
896.134	20145
896.255	20153
896.376	20081
896.498	20164
896.619	20058
896.74	20191
896.861	20161
896.982	20347
897.103	20583
897.224	20404
897.345	20286
897.466	20229
897.587	20275
897.708	20313
897.828	20301
897.949	20157
898.07	20031
898.19	20256
898.311	20317
898.431	20278
898.552	20218
898.672	20355
898.792	20225
898.913	20199
899.033	20058
899.153	19890
899.273	19902
899.393	19921
899.513	19868
899.633	19890
899.753	19928
899.873	19799
899.993	20001
900.113	19913
900.232	19845
900.352	19887
900.472	19681
900.591	19681
900.711	19628
900.83	19597
900.95	19757
901.069	19807
901.189	19655
901.308	19358
901.427	19362
901.546	19278
901.665	19392
901.784	19350
901.904	19202
902.023	19141
902.141	18905
902.26	18852
902.379	18916
902.498	18802
902.617	18863
902.735	18863
902.854	18795
902.973	18677
903.091	18353
903.21	18448
903.328	18525
903.446	18418
903.565	18296
903.683	18296
903.801	18129
903.919	18220
904.038	18304
904.156	18034
904.274	18178
904.392	18095
904.51	18057
904.627	18068
904.745	18117
904.863	18068
904.981	17927
905.098	17695
905.216	17687
905.334	17714
905.451	17786
905.569	17665
905.686	17638
905.803	17619
905.921	17433
906.038	17634
906.155	17543
906.272	17368
906.389	17406
906.506	17098
906.623	17200
906.74	17280
906.857	17098
906.974	17159
907.091	17345
907.208	17326
907.324	17220
907.441	17109
907.557	16938
907.674	16980
907.79	16831
907.907	16919
908.023	16869
908.139	16923
908.256	16873
908.372	16843
908.488	16755
908.604	16622
908.72	16596
908.836	16630
908.952	16451
909.068	16554
909.184	16694
909.3	16618
909.415	16611
909.531	16565
909.647	16341
909.762	16344
909.878	16268
909.993	16306
910.108	16150
910.224	16147
910.339	16261
910.454	16150
910.57	16059
910.685	16029
910.8	16325
910.915	16291
911.03	16086
911.145	15903
911.259	15915
911.374	15861
911.489	15778
911.604	15778
911.718	15542
911.833	15603
911.947	15610
912.062	15519
912.176	15717
912.291	15675
912.405	15705
912.519	15797
912.633	15789
912.748	15557
912.862	15633
912.976	15450
913.09	15211
913.204	15272
913.318	15370
913.431	15572
913.545	15466
913.659	15618
913.772	15329
913.886	15199
914	15180
914.113	15310
914.226	15302
914.34	15283
914.453	15131
914.566	15211
914.68	15195
914.793	15055
914.906	14941
915.019	14830
915.132	14777
915.245	14849
915.358	14853
915.47	14864
915.583	14819
915.696	14918
915.809	14925
915.921	14883
916.034	14739
916.146	14701
916.259	14735
916.371	14762
916.483	14842
916.595	14613
916.708	14682
916.82	14629
916.932	14716
917.044	14598
917.156	14492
917.268	14503
917.38	14533
917.491	14545
917.603	14518
917.715	14473
917.826	14465
917.938	14431
918.049	14294
918.161	14465
918.272	14473
918.384	14541
918.495	14476
918.606	14343
918.717	14263
918.828	14191
918.939	14294
919.05	14088
919.161	14332
919.272	14073
919.383	14096
919.494	14199
919.604	14454
919.715	14229
919.826	14134
919.936	14168
920.047	14214
920.157	14126
920.267	14271
920.378	14286
920.488	14180
920.598	14355
920.708	14484
920.818	14404
920.928	14244
921.038	14442
921.148	14457
921.258	14138
921.368	14134
921.477	13822
921.587	13928
921.697	13826
921.806	13974
921.916	13833
922.025	13556
922.134	13620
922.244	13445
922.353	13559
922.462	13518
922.571	13377
922.68	13312
922.789	13206
922.898	13236
923.007	13069
923.116	13209
923.224	13232
923.333	13129
923.442	13091
923.55	13050
923.659	13046
923.767	13076
923.876	12985
923.984	13057
924.092	12928
924.201	13019
924.309	12909
924.417	13015
924.525	12909
924.633	12833
924.741	13799
924.849	12684
924.956	12757
925.064	12642
925.172	12589
925.279	12669
925.387	12673
925.494	12696
925.602	12772
925.709	12627
925.816	12585
925.924	12654
926.031	12700
926.138	12582
926.245	12722
926.352	12429
926.459	12677
926.566	12593
926.673	12517
926.779	12441
926.886	12429
926.993	12365
927.099	12262
927.206	12144
927.312	12140
927.419	12273
927.525	12205
927.631	12292
927.737	12152
927.843	12034
927.95	11961
928.056	12038
928.162	12057
928.267	12125
928.373	12719
928.479	12117
928.585	11828
928.69	12019
928.796	11939
928.901	11866
929.007	11783
929.112	11946
929.218	11866
929.323	11756
929.428	11779
929.533	11851
929.638	11722
929.743	11767
929.848	11718
929.953	11779
930.058	11570
930.163	11433
930.267	11524
930.372	11585
930.477	11383
930.581	11577
930.685	11524
930.79	11322
930.894	11395
930.998	11315
931.103	11398
931.207	11079
931.311	10999
931.415	10885
931.519	10649
931.623	10698
