Data from test_V78500241_771.txt Node
Date: Fri Mar 25 15:47:08 CST 2022
User: usil
Spectrometer: V785-0024
Trigger mode: 0
Integration Time (sec): 4.000000E-1
Scans to average: 1
Nonlinearity correction enabled: false
Boxcar width: 0
Storing dark spectrum: false
XAxis mode: Wavelengths
Number of Pixels in Spectrum: 1024
>>>>>Begin Spectral Data<<<<<
801.071	28109
801.214	28013
801.356	27823
801.499	27873
801.641	27500
801.783	27694
801.926	27652
802.068	27561
802.211	27561
802.353	27511
802.496	27340
802.638	27302
802.78	27336
802.923	27188
803.065	27268
803.208	27340
803.35	27401
803.492	27329
803.635	27424
803.777	27466
803.919	27614
804.061	27785
804.204	27500
804.346	27500
804.488	27462
804.63	27485
804.773	27427
804.915	27435
805.057	27576
805.199	27427
805.341	27549
805.483	27743
805.626	27739
805.768	27500
805.91	27606
806.052	27652
806.194	27553
806.336	27937
806.478	27755
806.62	27644
806.762	27759
806.904	27934
807.046	28162
807.188	28128
807.33	28082
807.472	28074
807.614	27960
807.756	28029
807.898	27972
808.04	27720
808.182	27873
808.324	27911
808.465	27930
808.607	28192
808.749	28246
808.891	28325
809.033	28527
809.174	28253
809.316	28196
809.458	28284
809.6	28204
809.741	28428
809.883	28428
810.025	28516
810.166	28550
810.308	28432
810.45	28474
810.591	28516
810.733	28424
810.875	28226
811.016	28242
811.158	28143
811.299	28561
811.441	28504
811.582	28424
811.724	28443
811.865	28265
812.007	28242
812.148	28272
812.29	28363
812.431	28596
812.573	28702
812.714	28748
812.855	28809
812.997	28858
813.138	29014
813.279	28934
813.421	28782
813.562	28786
813.703	28489
813.845	28554
813.986	28253
814.127	28040
814.268	28032
814.41	27960
814.551	28090
814.692	27911
814.833	27911
814.974	27964
815.115	27930
815.256	27743
815.397	27949
815.539	27827
815.68	27934
815.821	27599
815.962	27743
816.103	27762
816.244	27759
816.385	27504
816.526	27675
816.666	27427
816.807	27272
816.948	27351
817.089	27500
817.23	27329
817.371	27454
817.512	27268
817.653	27310
817.793	27207
817.934	27275
818.075	27329
818.216	27161
818.356	27161
818.497	27112
818.638	27017
818.778	27066
818.919	27108
819.06	27135
819.2	27055
819.341	27340
819.481	27226
819.622	27351
819.762	27720
819.903	27511
820.043	27587
820.184	27382
820.324	27519
820.465	27443
820.605	27458
820.746	27264
820.886	27332
821.026	27393
821.167	27287
821.307	27351
821.447	27313
821.588	27180
821.728	27062
821.868	26849
822.008	26777
822.149	26670
822.289	26785
822.429	26507
822.569	26423
822.709	26415
822.849	26199
822.99	26336
823.13	26225
823.27	26202
823.41	26126
823.55	26046
823.69	26081
823.83	26088
823.97	25993
824.11	25970
824.25	25864
824.389	25791
824.529	26001
824.669	25879
824.809	26168
824.949	26111
825.089	25955
825.228	25993
825.368	25776
825.508	25693
825.648	25822
825.787	25890
825.927	25917
826.067	25791
826.206	25826
826.346	25795
826.485	25795
826.625	25746
826.765	25909
826.904	25868
827.044	25605
827.183	25601
827.323	25533
827.462	25472
827.601	25468
827.741	25419
827.88	25537
828.02	25327
828.159	25620
828.298	25403
828.437	25594
828.577	25472
828.716	25693
828.855	25354
828.994	25274
829.134	25312
829.273	25251
829.412	25084
829.551	25099
829.69	25202
829.829	25255
829.968	25240
830.107	25148
830.246	25320
830.385	25274
830.524	25099
830.663	25050
830.802	24913
830.941	24821
831.08	24840
831.219	24909
831.357	24833
831.496	24951
831.635	24882
831.774	24829
831.913	24650
832.051	24532
832.19	24551
832.329	24639
832.467	24505
832.606	24437
832.744	24445
832.883	24559
833.022	24566
833.16	24502
833.299	24601
833.437	24635
833.576	24585
833.714	24551
833.852	24578
833.991	24635
834.129	24700
834.267	24768
834.406	24631
834.544	24707
834.682	24494
834.821	24715
834.959	24700
835.097	24528
835.235	24684
835.373	24620
835.511	24578
835.65	24353
835.788	24445
835.926	24258
836.064	24159
836.202	24076
836.34	24437
836.478	24525
836.615	24266
836.753	24460
836.891	24513
837.029	24433
837.167	24327
837.305	24323
837.443	24304
837.58	24232
837.718	24197
837.856	24262
837.993	24098
838.131	24159
838.269	24064
838.406	24174
838.544	24133
838.681	23920
838.819	23824
838.956	23714
839.094	23691
839.231	23737
839.369	23824
839.506	24011
839.643	23885
839.781	23691
839.918	23661
840.055	23657
840.193	23581
840.33	23676
840.467	23707
840.604	23611
840.742	23942
840.879	23573
841.016	23554
841.153	23570
841.29	23680
841.427	23577
841.564	23581
841.701	23627
841.838	23562
841.975	23436
842.112	23459
842.249	23551
842.385	23322
842.522	23596
842.659	23505
842.796	23421
842.933	23364
843.069	23231
843.206	23299
843.343	23391
843.479	23368
843.616	23311
843.752	23102
843.889	23181
844.025	23269
844.162	23067
844.298	23159
844.435	22972
844.571	23178
844.708	23117
844.844	23200
844.98	23246
845.117	23166
845.253	22999
845.389	23010
845.525	23006
845.661	22938
845.798	22915
845.934	22904
846.07	22771
846.206	22980
846.342	23025
846.478	22801
846.614	22634
846.75	22561
846.886	22497
847.022	22641
847.158	22717
847.294	22618
847.429	22645
847.565	22440
847.701	22831
847.837	22325
847.972	22291
848.108	22409
848.244	22382
848.379	22162
848.515	22166
848.65	22341
848.786	22158
848.921	22070
849.057	22265
849.192	22226
849.328	22188
849.463	22070
849.598	22181
849.734	21915
849.869	21994
850.004	21998
850.14	21880
850.275	21934
850.41	21835
850.545	21941
850.68	21880
850.815	22044
850.95	21873
851.085	22070
851.22	22109
851.355	21827
851.49	22013
851.625	21926
851.76	21884
851.895	21854
852.03	21945
852.165	21987
852.299	22013
852.434	21888
852.569	21941
852.703	22010
852.838	21983
852.973	22040
853.107	21915
853.242	21865
853.376	21899
853.511	21629
853.645	21766
853.78	21842
853.914	21857
854.048	21675
854.183	21793
854.317	21774
854.451	21937
854.585	21732
854.72	21781
854.854	21838
854.988	21591
855.122	21732
855.256	21572
855.39	21717
855.524	21713
855.658	21785
855.792	21755
855.926	21781
856.06	21876
856.194	21804
856.327	21724
856.461	21622
856.595	21713
856.729	21625
856.862	21857
856.996	21618
857.13	21774
857.263	21797
857.397	21937
857.53	21774
857.664	21903
857.797	21846
857.931	21831
858.064	21793
858.197	21827
858.331	21629
858.464	21614
858.597	21675
858.731	21686
858.864	21800
858.997	21652
859.13	21762
859.263	21785
859.396	21751
859.529	21660
859.662	21641
859.795	21633
859.928	21846
860.061	21892
860.194	21899
860.327	21804
860.46	21759
860.592	21880
860.725	21934
860.858	21865
860.99	21679
861.123	21724
861.256	21736
861.388	21698
861.521	22272
861.653	21614
861.786	21580
861.918	21606
862.05	21553
862.183	21652
862.315	21698
862.447	21816
862.58	21736
862.712	21450
862.844	21458
862.976	21492
863.108	21393
863.24	21953
863.372	21458
863.504	21397
863.636	21439
863.768	21515
863.9	21355
864.032	21477
864.164	21370
864.296	21469
864.428	21660
864.559	21397
864.691	21519
864.823	21397
864.954	21329
865.086	21420
865.217	21447
865.349	21249
865.48	21340
865.612	21237
865.743	21473
865.875	21428
866.006	21370
866.137	21336
866.269	21348
866.4	21424
866.531	21169
866.662	21412
866.793	21268
866.924	21340
867.055	21363
867.186	21287
867.317	21321
867.448	21249
867.579	21279
867.71	21237
867.841	21138
867.972	21275
868.103	21279
868.233	21340
868.364	21351
868.495	21405
868.625	21545
868.756	21462
868.886	21450
869.017	21454
869.147	21614
869.278	21652
869.408	21606
869.539	21504
869.669	21580
869.799	21614
869.929	21641
870.06	21610
870.19	21728
870.32	21876
870.45	21854
870.58	21930
870.71	21968
870.84	21918
870.97	21880
871.1	21907
871.23	22143
871.36	22086
871.489	21975
871.619	22044
871.749	22063
871.879	22120
872.008	22177
872.138	22063
872.267	22074
872.397	21979
872.526	21892
872.656	21945
872.785	21972
872.915	22101
873.044	22405
873.173	22051
873.303	22211
873.432	22090
873.561	22169
873.69	22059
873.819	22215
873.948	22238
874.077	22097
874.206	22055
874.335	22078
874.464	22192
874.593	22375
874.722	22344
874.851	22333
874.979	22375
875.108	22481
875.237	22375
875.365	22135
875.494	22268
875.623	22470
875.751	22303
875.88	22303
876.008	22516
876.136	22580
876.265	22831
876.393	22805
876.521	22733
876.65	22881
876.778	22782
876.906	22812
877.034	22801
877.162	22622
877.29	22713
877.418	22675
877.546	22721
877.674	22706
877.802	22694
877.93	22748
878.058	22675
878.185	22565
878.313	22535
878.441	22748
878.568	22497
878.696	22725
878.824	22778
878.951	22733
879.079	22805
879.206	22923
879.333	22786
879.461	22721
879.588	22869
879.715	22866
879.842	22968
879.97	22702
880.097	22447
880.224	22493
880.351	22542
880.478	22603
880.605	22466
880.732	22531
880.859	22755
880.986	22421
881.112	22622
881.239	22424
881.366	22257
881.493	22177
881.619	22093
881.746	22059
881.872	22207
881.999	22070
882.125	21945
882.252	22128
882.378	22158
882.505	22150
882.631	22032
882.757	21827
882.883	21831
883.01	21724
883.136	21797
883.262	21580
883.388	21724
883.514	21762
883.64	21903
883.766	21637
883.892	21473
884.018	21591
884.143	21823
884.269	21793
884.395	21545
884.52	21435
884.646	21363
884.772	21363
884.897	21131
885.023	21443
885.148	21488
885.274	21606
885.399	21553
885.524	21363
885.65	21447
885.775	21412
885.9	21283
886.025	21469
886.15	21473
886.275	21336
886.4	21348
886.525	21401
886.65	21374
886.775	21275
886.9	21523
887.025	21580
887.149	21408
887.274	21157
887.399	21268
887.523	21096
887.648	21127
887.773	21005
887.897	21226
888.021	21241
888.146	21176
888.27	21237
888.395	21252
888.519	21241
888.643	21169
888.767	21389
888.891	21112
889.015	20998
889.139	21089
889.263	20849
889.387	21047
889.511	21226
889.635	21062
889.759	20914
889.883	20921
890.006	20925
890.13	21047
890.254	20921
890.377	21001
890.501	20663
890.624	20773
890.748	20716
890.871	20507
890.995	20526
891.118	20419
891.241	20514
891.364	20457
891.488	20686
891.611	20590
891.734	20655
891.857	20568
891.98	20568
892.103	20518
892.226	20541
892.349	20484
892.471	20309
892.594	20507
892.717	20621
892.839	20431
892.962	20530
893.085	20587
893.207	20427
893.33	20275
893.452	20362
893.575	20415
893.697	20495
893.819	20507
893.941	20609
894.064	20473
894.186	20389
894.308	20400
894.43	20583
894.552	20609
894.674	20427
894.796	20385
894.918	20389
895.04	20427
895.161	20423
895.283	20621
895.405	20324
895.526	20442
895.648	20480
895.769	20419
895.891	20396
896.012	20431
896.134	20431
896.255	20442
896.376	20431
896.498	20332
896.619	20412
896.74	20434
896.861	20385
896.982	20769
897.103	20918
897.224	20701
897.345	20625
897.466	20530
897.587	20518
897.708	20823
897.828	20693
897.949	20530
898.07	20461
898.19	20602
898.311	20686
898.431	20575
898.552	20621
898.672	20686
898.792	20609
898.913	20629
899.033	20385
899.153	20556
899.273	20385
899.393	20381
899.513	20518
899.633	20393
899.753	20366
899.873	20339
899.993	20377
900.113	20347
900.232	20389
900.352	20336
900.472	20225
900.591	20157
900.711	20206
900.83	20016
900.95	20339
901.069	20256
901.189	19967
901.308	19841
901.427	19704
901.546	19772
901.665	19818
901.784	19693
901.904	19601
902.023	19559
902.141	19259
902.26	19388
902.379	19411
902.498	19251
902.617	19179
902.735	19312
902.854	19179
902.973	19209
903.091	18966
903.21	18909
903.328	18958
903.446	18932
903.565	18730
903.683	18601
903.801	18585
903.919	18650
904.038	18646
904.156	18506
904.274	18528
904.392	18441
904.51	18509
904.627	18464
904.745	18509
904.863	18544
904.981	18232
905.098	18194
905.216	18117
905.334	18247
905.451	18190
905.569	18091
905.686	18213
905.803	18110
905.921	17984
906.038	18003
906.155	18003
906.272	17863
906.389	17805
906.506	17684
906.623	17680
906.74	17630
906.857	17589
906.974	17573
907.091	17729
907.208	17805
907.324	17653
907.441	17596
907.557	17459
907.674	17512
907.79	17387
907.907	17372
908.023	17417
908.139	17440
908.256	17258
908.372	17353
908.488	17307
908.604	17155
908.72	17136
908.836	17140
908.952	17075
909.068	17159
909.184	17208
909.3	17143
909.415	17140
909.531	17090
909.647	16843
909.762	16831
909.878	16820
909.993	16843
910.108	16854
910.224	16809
910.339	16797
910.454	16820
910.57	16611
910.685	16622
910.8	16892
910.915	16717
911.03	16599
911.145	16550
911.259	16466
911.374	16459
911.489	16341
911.604	16329
911.718	16162
911.833	16143
911.947	16097
912.062	16036
912.176	16166
912.291	16230
912.405	16219
912.519	16390
912.633	16318
912.748	16192
912.862	16158
912.976	15983
913.09	15808
913.204	15922
913.318	15975
913.431	15991
913.545	16029
913.659	16101
913.772	15888
913.886	15819
914	15739
914.113	15895
914.226	15846
914.34	15854
914.453	15633
914.566	15789
914.68	15713
914.793	15618
914.906	15511
915.019	15344
915.132	15332
915.245	15382
915.358	15412
915.47	15363
915.583	15344
915.696	15435
915.809	15564
915.921	15462
916.034	15256
916.146	15279
916.259	15279
916.371	15416
916.483	15340
916.595	15192
916.708	15272
916.82	15100
916.932	15108
917.044	15123
917.156	15047
917.268	14975
917.38	15058
917.491	15001
917.603	14967
917.715	15017
917.826	15195
917.938	14963
918.049	14906
918.161	14941
918.272	15081
918.384	15036
918.495	14880
918.606	14872
918.717	14758
918.828	14735
918.939	14743
919.05	14655
919.161	14739
919.272	14610
919.383	14625
919.494	14758
919.604	14967
919.715	14716
919.826	14556
919.936	14712
920.047	14746
920.157	14750
920.267	14921
920.378	14720
920.488	14769
920.598	14952
920.708	14952
920.818	14887
920.928	14800
921.038	14998
921.148	14986
921.258	14674
921.368	14621
921.477	14514
921.587	14385
921.697	14313
921.806	14442
921.916	14328
922.025	14123
922.134	14130
922.244	14115
922.353	14191
922.462	13902
922.571	13898
922.68	13746
922.789	13696
922.898	13769
923.007	13571
923.116	13742
923.224	13693
923.333	13620
923.442	13590
923.55	13449
923.659	13537
923.767	13674
923.876	13552
923.984	13628
924.092	13430
924.201	13518
924.309	13483
924.417	13480
924.525	13426
924.633	13483
924.741	14336
924.849	13198
924.956	13320
925.064	13217
925.172	13156
925.279	13110
925.387	13225
925.494	13118
925.602	13263
925.709	13145
925.816	12973
925.924	13099
926.031	13145
926.138	13076
926.245	13114
926.352	13008
926.459	13152
926.566	13107
926.673	13023
926.779	12852
926.886	12890
926.993	12768
927.099	12757
927.206	12639
927.312	12650
927.419	12711
927.525	12673
927.631	12715
927.737	12627
927.843	12528
927.95	12551
928.056	12506
928.162	12494
928.267	12616
928.373	13217
928.479	12608
928.585	12380
928.69	12498
928.796	12582
928.901	12384
929.007	12182
929.112	12388
929.218	12311
929.323	12239
929.428	12220
929.533	12380
929.638	12243
929.743	12201
929.848	12175
929.953	12155
930.058	12182
930.163	11927
930.267	11931
930.372	12049
930.477	11912
930.581	12083
930.685	11965
930.79	11828
930.894	11942
930.998	11805
931.103	11832
931.207	11627
931.311	11467
931.415	11410
931.519	11105
931.623	11208
