Data from test_V78500241_1263.txt Node
Date: Fri Mar 25 15:50:33 CST 2022
User: usil
Spectrometer: V785-0024
Trigger mode: 0
Integration Time (sec): 4.000000E-1
Scans to average: 1
Nonlinearity correction enabled: false
Boxcar width: 0
Storing dark spectrum: false
XAxis mode: Wavelengths
Number of Pixels in Spectrum: 1024
>>>>>Begin Spectral Data<<<<<
801.071	29109
801.214	28816
801.356	28573
801.499	28535
801.641	28424
801.783	28379
801.926	28390
802.068	28443
802.211	28459
802.353	28268
802.496	28272
802.638	28128
802.78	28097
802.923	28017
803.065	28013
803.208	28032
803.35	28162
803.492	28291
803.635	28382
803.777	28337
803.919	28500
804.061	28607
804.204	28622
804.346	28360
804.488	28352
804.63	28466
804.773	28261
804.915	28329
805.057	28538
805.199	28497
805.341	28485
805.483	28561
805.626	28565
805.768	28375
805.91	28634
806.052	28698
806.194	28508
806.336	28782
806.478	28755
806.62	28622
806.762	28847
806.904	28923
807.046	29204
807.188	28953
807.33	29048
807.472	29121
807.614	28862
807.756	29064
807.898	28908
808.04	28847
808.182	28892
808.324	28885
808.465	28923
808.607	29052
808.749	29284
808.891	29292
809.033	29395
809.174	29334
809.316	29208
809.458	29315
809.6	29239
809.741	29554
809.883	29406
810.025	29653
810.166	29589
810.308	29585
810.45	29764
810.591	29486
810.733	29356
810.875	29395
811.016	29349
811.158	29231
811.299	29406
811.441	29611
811.582	29482
811.724	29284
811.865	29303
812.007	29353
812.148	29349
812.29	29349
812.431	29581
812.573	29737
812.714	29615
812.855	29878
812.997	29988
813.138	30258
813.279	29923
813.421	29977
813.562	29862
813.703	29783
813.845	29509
813.986	29250
814.127	29105
814.268	29143
814.41	29136
814.551	28991
814.692	29102
814.833	29083
814.974	28976
815.115	29086
815.256	29056
815.397	28900
815.539	28915
815.68	28831
815.821	28698
815.962	28915
816.103	28805
816.244	28622
816.385	28630
816.526	28641
816.666	28409
816.807	28287
816.948	28310
817.089	28451
817.23	28424
817.371	28333
817.512	28333
817.653	28424
817.793	28192
817.934	28443
818.075	28421
818.216	28485
818.356	28432
818.497	28211
818.638	28204
818.778	28055
818.919	28154
819.06	28154
819.2	28230
819.341	28379
819.481	28295
819.622	28653
819.762	28698
819.903	28615
820.043	28679
820.184	28615
820.324	28443
820.465	28523
820.605	28641
820.746	28481
820.886	28428
821.026	28474
821.167	28459
821.307	28565
821.447	28455
821.588	28291
821.728	28173
821.868	27972
822.008	27778
822.149	27816
822.289	27945
822.429	27698
822.569	27572
822.709	27515
822.849	27317
822.99	27378
823.13	27367
823.27	27260
823.41	27264
823.55	27199
823.69	27230
823.83	27165
823.97	27093
824.11	27157
824.25	26994
824.389	27066
824.529	27047
824.669	27036
824.809	27195
824.949	27085
825.089	27199
825.228	27195
825.368	26792
825.508	26880
825.648	26876
825.787	26876
825.927	26998
826.067	26807
826.206	26975
826.346	26914
826.485	27036
826.625	27051
826.765	27108
826.904	26918
827.044	26830
827.183	26861
827.323	26518
827.462	26811
827.601	26701
827.741	26598
827.88	26617
828.02	26533
828.159	26579
828.298	26705
828.437	26800
828.577	26617
828.716	26648
828.855	26602
828.994	26370
829.134	26377
829.273	26400
829.412	26324
829.551	26271
829.69	26294
829.829	26393
829.968	26427
830.107	26507
830.246	26419
830.385	26256
830.524	26153
830.663	26210
830.802	26065
830.941	25788
831.08	25974
831.219	25925
831.357	26027
831.496	26206
831.635	25966
831.774	25913
831.913	25894
832.051	25765
832.19	25769
832.329	25841
832.467	25651
832.606	25662
832.744	25670
832.883	25609
833.022	25586
833.16	25548
833.299	25605
833.437	25601
833.576	25738
833.714	25643
833.852	25765
833.991	25822
834.129	25769
834.267	25757
834.406	25746
834.544	25746
834.682	25632
834.821	25685
834.959	25951
835.097	25655
835.235	25723
835.373	25647
835.511	25639
835.65	25552
835.788	25556
835.926	25434
836.064	25384
836.202	25312
836.34	25510
836.478	25689
836.615	25483
836.753	25590
836.891	25567
837.029	25514
837.167	25487
837.305	25331
837.443	25457
837.58	25346
837.718	25506
837.856	25316
837.993	25373
838.131	25415
838.269	25312
838.406	25350
838.544	25179
838.681	24943
838.819	25057
838.956	24951
839.094	24837
839.231	24814
839.369	24970
839.506	25137
839.643	24916
839.781	24776
839.918	24776
840.055	24749
840.193	24802
840.33	24703
840.467	24753
840.604	24772
840.742	25004
840.879	24692
841.016	24631
841.153	24650
841.29	24798
841.427	24844
841.564	24772
841.701	24753
841.838	24711
841.975	24639
842.112	24631
842.249	24544
842.385	24513
842.522	24544
842.659	24532
842.796	24475
842.933	24490
843.069	24357
843.206	24460
843.343	24521
843.479	24407
843.616	24429
843.752	24213
843.889	24167
844.025	24216
844.162	24155
844.298	24258
844.435	24201
844.571	24148
844.708	24330
844.844	24388
844.98	24403
845.117	24262
845.253	24205
845.389	24167
845.525	24163
845.661	24114
845.798	23984
845.934	24133
846.07	23893
846.206	23965
846.342	23878
846.478	23996
846.614	23535
846.75	23767
846.886	23642
847.022	23596
847.158	23699
847.294	23699
847.429	23745
847.565	23718
847.701	23805
847.837	23417
847.972	23433
848.108	23554
848.244	23440
848.379	23345
848.515	23265
848.65	23349
848.786	23311
848.921	23299
849.057	23391
849.192	23379
849.328	23269
849.463	23200
849.598	23200
849.734	23166
849.869	23083
850.004	23037
850.14	23025
850.275	23014
850.41	22957
850.545	22820
850.68	22877
850.815	23003
850.95	23010
851.085	23261
851.22	23136
851.355	23075
851.49	23025
851.625	22991
851.76	22972
851.895	22984
852.03	22961
852.165	23117
852.299	23185
852.434	23102
852.569	22972
852.703	22957
852.838	22904
852.973	23098
853.107	23162
853.242	23067
853.376	22869
853.511	22733
853.645	22866
853.78	22980
853.914	22885
854.048	22820
854.183	22752
854.317	22892
854.451	23010
854.585	22801
854.72	22862
854.854	22930
854.988	22740
855.122	22801
855.256	22774
855.39	22763
855.524	22961
855.658	22809
855.792	22729
855.926	22820
856.06	22847
856.194	22881
856.327	22801
856.461	22801
856.595	22755
856.729	22889
856.862	22889
856.996	22869
857.13	22999
857.263	22946
857.397	22843
857.53	22828
857.664	22801
857.797	22900
857.931	22919
858.064	22831
858.197	22968
858.331	22862
858.464	22835
858.597	22645
858.731	22774
858.864	22946
858.997	22771
859.13	22919
859.263	22889
859.396	22984
859.529	22778
859.662	22683
859.795	22698
859.928	22767
860.061	22915
860.194	23029
860.327	22889
860.46	22961
860.592	22965
860.725	23064
860.858	23014
860.99	22831
861.123	22820
861.256	22793
861.388	22930
861.521	23573
861.653	22698
861.786	22698
861.918	22653
862.05	22710
862.183	22801
862.315	22790
862.447	22755
862.58	22713
862.712	22535
862.844	22535
862.976	22607
863.108	22527
863.24	22869
863.372	22436
863.504	22485
863.636	22535
863.768	22481
863.9	22607
864.032	22451
864.164	22455
864.296	22557
864.428	22691
864.559	22565
864.691	22596
864.823	22565
864.954	22504
865.086	22603
865.217	22440
865.349	22291
865.48	22447
865.612	22424
865.743	22432
865.875	22455
866.006	22443
866.137	22432
866.269	22405
866.4	22432
866.531	22325
866.662	22363
866.793	22284
866.924	22424
867.055	22478
867.186	22371
867.317	22280
867.448	22303
867.579	22272
867.71	22390
867.841	22265
867.972	22356
868.103	22318
868.233	22287
868.364	22306
868.495	22375
868.625	22607
868.756	22599
868.886	22538
869.017	22580
869.147	22554
869.278	22710
869.408	22702
869.539	22596
869.669	22611
869.799	22542
869.929	22717
870.06	22519
870.19	22877
870.32	22889
870.45	22949
870.58	22923
870.71	23044
870.84	23094
870.97	23006
871.1	23003
871.23	22953
871.36	23208
871.489	23029
871.619	23071
871.749	23113
871.879	23235
872.008	23345
872.138	23197
872.267	23124
872.397	22896
872.526	23006
872.656	23197
872.785	23086
872.915	23330
873.044	23261
873.173	23181
873.303	23254
873.432	23246
873.561	23277
873.69	23060
873.819	23083
873.948	23273
874.077	23136
874.206	23132
874.335	23090
874.464	23216
874.593	23341
874.722	23353
874.851	23497
874.979	23444
875.108	23395
875.237	23265
875.365	23311
875.494	23189
875.623	23414
875.751	23337
875.88	23490
876.008	23589
876.136	23676
876.265	23760
876.393	23912
876.521	23866
876.65	23866
876.778	23836
876.906	23703
877.034	23703
877.162	23760
877.29	23649
877.418	23771
877.546	23836
877.674	23665
877.802	23661
877.93	23687
878.058	23554
878.185	23592
878.313	23608
878.441	23760
878.568	23592
878.696	23699
878.824	23794
878.951	23748
879.079	23923
879.206	23996
879.333	23973
879.461	23748
879.588	23805
879.715	23961
879.842	23999
879.97	23832
880.097	23493
880.224	23570
880.351	23535
880.478	23566
880.605	23452
880.732	23592
880.859	23646
880.986	23471
881.112	23604
881.239	23440
881.366	23261
881.493	23265
881.619	23128
881.746	23117
881.872	23162
881.999	23121
882.125	23143
882.252	23132
882.378	23060
882.505	23124
882.631	22957
882.757	22759
882.883	22896
883.01	22721
883.136	22675
883.262	22679
883.388	22542
883.514	22854
883.64	22801
883.766	22653
883.892	22500
884.018	22569
884.143	22710
884.269	22759
884.395	22470
884.52	22356
884.646	22596
884.772	22432
884.897	22150
885.023	22352
885.148	22440
885.274	22497
885.399	22398
885.524	22379
885.65	22413
885.775	22398
885.9	22276
886.025	22360
886.15	22443
886.275	22226
886.4	22234
886.525	22280
886.65	22284
886.775	22143
886.9	22523
887.025	22611
887.149	22284
887.274	22105
887.399	22192
887.523	22371
887.648	22044
887.773	22070
887.897	22238
888.021	22204
888.146	22162
888.27	22253
888.395	22223
888.519	22211
888.643	22196
888.767	22173
888.891	22070
889.015	21964
889.139	22002
889.263	21960
889.387	22078
889.511	22059
889.635	22025
889.759	21884
889.883	21842
890.006	21956
890.13	22036
890.254	21835
890.377	21861
890.501	21705
890.624	21599
890.748	21717
890.871	21614
890.995	21523
891.118	21408
891.241	21473
891.364	21431
891.488	21625
891.611	21450
891.734	21511
891.857	21553
891.98	21519
892.103	21511
892.226	21458
892.349	21424
892.471	21370
892.594	21401
892.717	21363
892.839	21332
892.962	21302
893.085	21450
893.207	21332
893.33	21237
893.452	21211
893.575	21450
893.697	21298
893.819	21496
893.941	21641
894.064	21492
894.186	21336
894.308	21226
894.43	21458
894.552	21370
894.674	21348
894.796	21397
894.918	21195
895.04	21351
895.161	21447
895.283	21393
895.405	21351
895.526	21363
895.648	21336
895.769	21454
895.891	21351
896.012	21359
896.134	21389
896.255	21348
896.376	21226
896.498	21298
896.619	21462
896.74	21351
896.861	21382
896.982	21648
897.103	21724
897.224	21530
897.345	21469
897.466	21355
897.587	21580
897.708	21606
897.828	21591
897.949	21481
898.07	21321
898.19	21397
898.311	21690
898.431	21488
898.552	21466
898.672	21576
898.792	21629
898.913	21435
899.033	21405
899.153	21279
899.273	21199
899.393	21310
899.513	21348
899.633	21230
899.753	21260
899.873	21222
899.993	21325
900.113	21195
900.232	21146
900.352	21150
900.472	21058
900.591	21051
900.711	21081
900.83	20868
900.95	21032
901.069	21058
901.189	20967
901.308	20716
901.427	20598
901.546	20484
901.665	20564
901.784	20507
901.904	20442
902.023	20309
902.141	20119
902.26	20145
902.379	20214
902.498	20088
902.617	20020
902.735	20039
902.854	19989
902.973	19970
903.091	19784
903.21	19746
903.328	19776
903.446	19632
903.565	19525
903.683	19525
903.801	19430
903.919	19514
904.038	19422
904.156	19381
904.274	19316
904.392	19316
904.51	19259
904.627	19278
904.745	19358
904.863	19426
904.981	19107
905.098	18863
905.216	18939
905.334	19050
905.451	18909
905.569	18901
905.686	18951
905.803	18962
905.921	18719
906.038	18779
906.155	18722
906.272	18665
906.389	18646
906.506	18361
906.623	18525
906.74	18479
906.857	18414
906.974	18350
907.091	18525
907.208	18620
907.324	18486
907.441	18388
907.557	18258
907.674	18110
907.79	18117
907.907	18068
908.023	18190
908.139	18057
908.256	18087
908.372	18117
908.488	17977
908.604	17946
908.72	17927
908.836	17824
908.952	17946
909.068	17885
909.184	18045
909.3	17855
909.415	17824
909.531	17866
909.647	17600
909.762	17642
909.878	17463
909.993	17619
910.108	17509
910.224	17486
910.339	17554
910.454	17520
910.57	17303
910.685	17311
910.8	17592
910.915	17501
911.03	17372
911.145	17280
911.259	17178
911.374	17121
911.489	17090
911.604	17151
911.718	16961
911.833	16904
911.947	16790
912.062	16729
912.176	16961
912.291	16965
912.405	16923
912.519	17075
912.633	17079
912.748	16908
912.862	16889
912.976	16660
913.09	16554
913.204	16691
913.318	16615
913.431	16706
913.545	16752
913.659	16713
913.772	16558
913.886	16519
914	16531
914.113	16622
914.226	16538
914.34	16523
914.453	16363
914.566	16398
914.68	16284
914.793	16341
914.906	16158
915.019	16067
915.132	16074
915.245	16002
915.358	16109
915.47	16139
915.583	16017
915.696	16032
915.809	16200
915.921	16299
916.034	15945
916.146	15949
916.259	15899
916.371	15991
916.483	16032
916.595	15846
916.708	15926
916.82	15854
916.932	15854
917.044	15793
917.156	15766
917.268	15736
917.38	15686
917.491	15739
917.603	15622
917.715	15724
917.826	15770
917.938	15606
918.049	15500
918.161	15538
918.272	15717
918.384	15637
918.495	15648
918.606	15382
918.717	15344
918.828	15462
918.939	15507
919.05	15325
919.161	15447
919.272	15294
919.383	15268
919.494	15370
919.604	15671
919.715	15378
919.826	15313
919.936	15439
920.047	15424
920.157	15428
920.267	15530
920.378	15401
920.488	15367
920.598	15545
920.708	15755
920.818	15443
920.928	15439
921.038	15652
921.148	15507
921.258	15272
921.368	15252
921.477	15249
921.587	15100
921.697	14944
921.806	15081
921.916	14929
922.025	14830
922.134	14727
922.244	14682
922.353	14811
922.462	14537
922.571	14564
922.68	14484
922.789	14298
922.898	14377
923.007	14317
923.116	14320
923.224	14313
923.333	14267
923.442	14187
923.55	14134
923.659	14119
923.767	14221
923.876	14088
923.984	14210
924.092	14039
924.201	14046
924.309	14111
924.417	13967
924.525	13936
924.633	13974
924.741	14880
924.849	13837
924.956	13868
925.064	13837
925.172	13670
925.279	13696
925.387	13757
925.494	13776
925.602	13791
925.709	13670
925.816	13639
925.924	13708
926.031	13753
926.138	13647
926.245	13712
926.352	13502
926.459	13670
926.566	13734
926.673	13533
926.779	13434
926.886	13521
926.993	13335
927.099	13266
927.206	13183
927.312	13141
927.419	13278
927.525	13331
927.631	13225
927.737	13183
927.843	13061
927.95	13053
928.056	12993
928.162	13088
928.267	13110
928.373	13696
928.479	13194
928.585	12894
928.69	12935
928.796	13137
928.901	12932
929.007	12779
929.112	12939
929.218	12859
929.323	12810
929.428	12700
929.533	12848
929.638	12612
929.743	12719
929.848	12825
929.953	12707
930.058	12601
930.163	12448
930.267	12433
930.372	12593
930.477	12422
930.581	12616
930.685	12437
930.79	12311
930.894	12395
930.998	12216
931.103	12372
931.207	12110
931.311	11923
931.415	11893
931.519	11729
931.623	11627
