Data from test_V78500241_3160.txt Node
Date: Fri Mar 25 16:03:41 CST 2022
User: usil
Spectrometer: V785-0024
Trigger mode: 0
Integration Time (sec): 4.000000E-1
Scans to average: 1
Nonlinearity correction enabled: false
Boxcar width: 0
Storing dark spectrum: false
XAxis mode: Wavelengths
Number of Pixels in Spectrum: 1024
>>>>>Begin Spectral Data<<<<<
801.071	28546
801.214	28409
801.356	28215
801.499	28181
801.641	28074
801.783	27964
801.926	28158
802.068	28090
802.211	27964
802.353	27869
802.496	27854
802.638	27895
802.78	27686
802.923	27618
803.065	27644
803.208	27732
803.35	27762
803.492	27835
803.635	27991
803.777	27854
803.919	27880
804.061	28128
804.204	27934
804.346	27800
804.488	27930
804.63	27987
804.773	27926
804.915	27941
805.057	28070
805.199	27869
805.341	28093
805.483	28070
805.626	28055
805.768	28078
805.91	28013
806.052	28078
806.194	28040
806.336	28310
806.478	28063
806.62	28059
806.762	28268
806.904	28333
807.046	28649
807.188	28519
807.33	28508
807.472	28565
807.614	28421
807.756	28485
807.898	28375
808.04	28341
808.182	28363
808.324	28428
808.465	28474
808.607	28615
808.749	28812
808.891	28877
809.033	29094
809.174	28683
809.316	28828
809.458	28672
809.6	28816
809.741	28824
809.883	28869
810.025	29094
810.166	29018
810.308	29117
810.45	29018
810.591	28885
810.733	28752
810.875	28900
811.016	28611
811.158	28687
811.299	28847
811.441	29052
811.582	28915
811.724	28740
811.865	28755
812.007	28744
812.148	28767
812.29	28820
812.431	28881
812.573	29292
812.714	29170
812.855	29265
812.997	29277
813.138	29474
813.279	29345
813.421	29341
813.562	29212
813.703	29121
813.845	28900
813.986	28725
814.127	28489
814.268	28478
814.41	28485
814.551	28459
814.692	28565
814.833	28538
814.974	28447
815.115	28508
815.256	28428
815.397	28386
815.539	28318
815.68	28337
815.821	28276
815.962	28443
816.103	28253
816.244	28093
816.385	28124
816.526	28166
816.666	27892
816.807	27682
816.948	27842
817.089	27873
817.23	27831
817.371	27766
817.512	27789
817.653	27675
817.793	27713
817.934	27762
818.075	27930
818.216	27865
818.356	27762
818.497	27648
818.638	27667
818.778	27606
818.919	27610
819.06	27523
819.2	27732
819.341	27884
819.481	27869
819.622	27945
819.762	28150
819.903	28048
820.043	27926
820.184	27918
820.324	27903
820.465	28002
820.605	27964
820.746	27876
820.886	27770
821.026	28006
821.167	27850
821.307	27895
821.447	27831
821.588	27660
821.728	27519
821.868	27663
822.008	27252
822.149	27397
822.289	27310
822.429	27013
822.569	26952
822.709	26883
822.849	26796
822.99	26735
823.13	26788
823.27	26648
823.41	26499
823.55	26476
823.69	26560
823.83	26625
823.97	26431
824.11	26343
824.25	26381
824.389	26438
824.529	26613
824.669	26453
824.809	26526
824.949	26560
825.089	26518
825.228	26499
825.368	26313
825.508	26187
825.648	26427
825.787	26438
825.927	26313
826.067	26339
826.206	26256
826.346	26374
826.485	26332
826.625	26415
826.765	26427
826.904	26172
827.044	26172
827.183	26069
827.323	25974
827.462	26081
827.601	26100
827.741	26119
827.88	26027
828.02	25822
828.159	26001
828.298	25997
828.437	25944
828.577	25974
828.716	26134
828.855	25951
828.994	25772
829.134	25803
829.273	25879
829.412	25765
829.551	25586
829.69	25712
829.829	25795
829.968	25822
830.107	25811
830.246	25685
830.385	25597
830.524	25441
830.663	25487
830.802	25331
830.941	25457
831.08	25194
831.219	25529
831.357	25365
831.496	25479
831.635	25441
831.774	25373
831.913	25206
832.051	25183
832.19	25152
832.329	25190
832.467	25019
832.606	24878
832.744	24894
832.883	24992
833.022	24958
833.16	25088
833.299	24977
833.437	25061
833.576	24996
833.714	25122
833.852	25133
833.991	25080
834.129	25084
834.267	25179
834.406	25084
834.544	25171
834.682	25152
834.821	24989
834.959	25190
835.097	25050
835.235	25213
835.373	25034
835.511	25069
835.65	24947
835.788	24913
835.926	24753
836.064	24623
836.202	24779
836.34	25065
836.478	24985
836.615	24886
836.753	24848
836.891	24981
837.029	24878
837.167	24825
837.305	24776
837.443	24798
837.58	24703
837.718	24901
837.856	24757
837.993	24703
838.131	24684
838.269	24642
838.406	24532
838.544	24429
838.681	24471
838.819	24334
838.956	24186
839.094	24209
839.231	24129
839.369	24403
839.506	24441
839.643	24547
839.781	24239
839.918	24220
840.055	24201
840.193	24270
840.33	24068
840.467	24022
840.604	24068
840.742	24369
840.879	23996
841.016	24034
841.153	23923
841.29	24076
841.427	24087
841.564	24102
841.701	24163
841.838	23988
841.975	23988
842.112	23958
842.249	23969
842.385	23790
842.522	24129
842.659	23855
842.796	23946
842.933	23824
843.069	23737
843.206	23767
843.343	23935
843.479	23851
843.616	23908
843.752	23570
843.889	23695
844.025	23809
844.162	23486
844.298	23805
844.435	23592
844.571	23589
844.708	23729
844.844	23684
844.98	23828
845.117	23714
845.253	23524
845.389	23455
845.525	23429
845.661	23497
845.798	23341
845.934	23372
846.07	23444
846.206	23398
846.342	23440
846.478	23414
846.614	23220
846.75	22987
846.886	23056
847.022	23067
847.158	23086
847.294	23185
847.429	23155
847.565	23048
847.701	23292
847.837	22839
847.972	22809
848.108	22881
848.244	22904
848.379	22774
848.515	22656
848.65	22630
848.786	22580
848.921	22573
849.057	22790
849.192	22691
849.328	22523
849.463	22710
849.598	22694
849.734	22512
849.869	22451
850.004	22405
850.14	22561
850.275	22512
850.41	22261
850.545	22424
850.68	22344
850.815	22565
850.95	22360
851.085	22683
851.22	22557
851.355	22630
851.49	22413
851.625	22478
851.76	22299
851.895	22371
852.03	22352
852.165	22333
852.299	22459
852.434	22675
852.569	22512
852.703	22466
852.838	22580
852.973	22649
853.107	22565
853.242	22242
853.376	22303
853.511	22188
853.645	22204
853.78	22268
853.914	22169
854.048	22249
854.183	22226
854.317	22257
854.451	22432
854.585	22291
854.72	22295
854.854	22371
854.988	22276
855.122	22371
855.256	22112
855.39	22329
855.524	22295
855.658	22192
855.792	22276
855.926	22234
856.06	22246
856.194	22185
856.327	22150
856.461	22185
856.595	22196
856.729	22226
856.862	22337
856.996	22325
857.13	22382
857.263	22322
857.397	22405
857.53	22207
857.664	22379
857.797	22341
857.931	22478
858.064	22188
858.197	22485
858.331	22322
858.464	22230
858.597	22093
858.731	22211
858.864	22249
858.997	22253
859.13	22329
859.263	22287
859.396	22398
859.529	22295
859.662	22101
859.795	22238
859.928	22333
860.061	22394
860.194	22512
860.327	22314
860.46	22265
860.592	22303
860.725	22322
860.858	22455
860.99	22169
861.123	22044
861.256	22303
861.388	22234
861.521	22797
861.653	22093
861.786	22070
861.918	22257
862.05	22128
862.183	22188
862.315	22257
862.447	22257
862.58	22185
862.712	22010
862.844	21953
862.976	22082
863.108	22139
863.24	22318
863.372	21956
863.504	22074
863.636	22021
863.768	22067
863.9	21930
864.032	21854
864.164	22002
864.296	22021
864.428	22196
864.559	22029
864.691	22048
864.823	21991
864.954	21998
865.086	21873
865.217	21869
865.349	21701
865.48	21838
865.612	21960
865.743	21991
865.875	21789
866.006	21774
866.137	21884
866.269	21842
866.4	21854
866.531	21739
866.662	21785
866.793	21816
866.924	21739
867.055	21903
867.186	21751
867.317	21755
867.448	21732
867.579	21736
867.71	21675
867.841	21690
867.972	21857
868.103	21850
868.233	21812
868.364	21785
868.495	21922
868.625	21869
868.756	22143
868.886	21876
869.017	22097
869.147	22135
869.278	22082
869.408	22055
869.539	22006
869.669	22051
869.799	22128
869.929	22192
870.06	22082
870.19	22352
870.32	22424
870.45	22428
870.58	22451
870.71	22409
870.84	22561
870.97	22348
871.1	22432
871.23	22447
871.36	22603
871.489	22580
871.619	22485
871.749	22596
871.879	22531
872.008	22786
872.138	22725
872.267	22607
872.397	22417
872.526	22417
872.656	22386
872.785	22542
872.915	22767
873.044	22759
873.173	22637
873.303	22763
873.432	22611
873.561	22763
873.69	22542
873.819	22729
873.948	22694
874.077	22649
874.206	22554
874.335	22694
874.464	22596
874.593	22824
874.722	22778
874.851	22927
874.979	22889
875.108	22866
875.237	22809
875.365	22854
875.494	22839
875.623	22934
875.751	22801
875.88	22946
876.008	22843
876.136	23086
876.265	23254
876.393	23269
876.521	23303
876.65	23398
876.778	23265
876.906	23151
877.034	23227
877.162	23231
877.29	23067
877.418	23200
877.546	23269
877.674	23132
877.802	23189
877.93	23147
878.058	23216
878.185	22999
878.313	23143
878.441	23193
878.568	22987
878.696	23117
878.824	23223
878.951	23269
879.079	23395
879.206	23558
879.333	23296
879.461	23083
879.588	23334
879.715	23356
879.842	23398
879.97	23330
880.097	23121
880.224	22987
880.351	23105
880.478	23071
880.605	23071
880.732	23128
880.859	23269
880.986	22877
881.112	23102
881.239	22786
881.366	22824
881.493	22668
881.619	22664
881.746	22733
881.872	22645
881.999	22569
882.125	22470
882.252	22459
882.378	22470
882.505	22729
882.631	22405
882.757	22322
882.883	22363
883.01	22219
883.136	22284
883.262	22097
883.388	22032
883.514	22192
883.64	22318
883.766	22215
883.892	22063
884.018	22032
884.143	22166
884.269	22329
884.395	22051
884.52	21865
884.646	21869
884.772	21876
884.897	21838
885.023	21857
885.148	21991
885.274	21975
885.399	21865
885.524	21903
885.65	21922
885.775	21915
885.9	21873
886.025	21960
886.15	22067
886.275	21728
886.4	21732
886.525	21846
886.65	21907
886.775	21835
886.9	21941
887.025	22158
887.149	21888
887.274	21698
887.399	21591
887.523	21561
887.648	21606
887.773	21511
887.897	21667
888.021	21755
888.146	21656
888.27	21759
888.395	21679
888.519	21694
888.643	21724
888.767	21675
888.891	21564
889.015	21500
889.139	21610
889.263	21408
889.387	21595
889.511	21603
889.635	21507
889.759	21454
889.883	21416
890.006	21340
890.13	21526
890.254	21344
890.377	21473
890.501	21272
890.624	21218
890.748	21131
890.871	21173
890.995	21032
891.118	20933
891.241	20872
891.364	21032
891.488	21085
891.611	21138
891.734	21047
891.857	21123
891.98	21017
892.103	21051
892.226	21131
892.349	20864
892.471	20887
892.594	20819
892.717	20975
892.839	20956
892.962	20948
893.085	20891
893.207	20990
893.33	20765
893.452	20777
893.575	20842
893.697	20842
893.819	21013
893.941	21108
894.064	21100
894.186	20906
894.308	20857
894.43	20925
894.552	20963
894.674	20933
894.796	20811
894.918	20956
895.04	20880
895.161	20971
895.283	20834
895.405	20868
895.526	20815
895.648	20815
895.769	20861
895.891	20956
896.012	20933
896.134	20929
896.255	20948
896.376	20880
896.498	20883
896.619	21001
896.74	20792
896.861	20941
896.982	21298
897.103	21382
897.224	21142
897.345	21100
897.466	21093
897.587	21028
897.708	21165
897.828	21032
897.949	21074
898.07	20891
898.19	21024
898.311	21245
898.431	21161
898.552	21119
898.672	21112
898.792	20963
898.913	21009
899.033	20979
899.153	20883
899.273	20746
899.393	20785
899.513	20845
899.633	20838
899.753	20876
899.873	20834
899.993	20887
900.113	20663
900.232	20800
900.352	20659
900.472	20682
900.591	20587
900.711	20693
900.83	20625
900.95	20781
901.069	20678
901.189	20415
901.308	20183
901.427	20050
901.546	20240
901.665	20191
901.784	20157
901.904	20111
902.023	19860
902.141	19860
902.26	19674
902.379	19765
902.498	19632
902.617	19563
902.735	19647
902.854	19620
902.973	19540
903.091	19369
903.21	19316
903.328	19316
903.446	19232
903.565	19072
903.683	19221
903.801	19175
903.919	19088
904.038	19088
904.156	19012
904.274	18928
904.392	18894
904.51	18856
904.627	18882
904.745	18954
904.863	18772
904.981	18726
905.098	18608
905.216	18608
905.334	18623
905.451	18654
905.569	18467
905.686	18604
905.803	18555
905.921	18319
906.038	18513
906.155	18369
906.272	18323
906.389	18251
906.506	18087
906.623	18015
906.74	18038
906.857	17980
906.974	18030
907.091	18057
907.208	18209
907.324	18076
907.441	18007
907.557	17836
907.674	17851
907.79	17760
907.907	17748
908.023	17805
908.139	17824
908.256	17885
908.372	17748
908.488	17726
908.604	17570
908.72	17528
908.836	17539
908.952	17421
909.068	17532
909.184	17535
909.3	17482
909.415	17315
909.531	17535
909.647	17166
909.762	17284
909.878	17246
909.993	17212
910.108	17185
910.224	17235
910.339	17208
910.454	17052
910.57	17006
910.685	16972
910.8	17216
910.915	17117
911.03	16927
911.145	16763
911.259	16816
911.374	16744
911.489	16702
911.604	16569
911.718	16592
911.833	16599
911.947	16363
912.062	16390
912.176	16432
912.291	16546
912.405	16660
912.519	16683
912.633	16649
912.748	16531
912.862	16519
912.976	16451
913.09	16284
913.204	16196
913.318	16398
913.431	16424
913.545	16337
913.659	16523
913.772	16211
913.886	16147
914	16181
914.113	16211
914.226	16265
914.34	16272
914.453	15907
914.566	16021
914.68	16074
914.793	15922
914.906	15827
915.019	15701
915.132	15682
915.245	15728
915.358	15618
915.47	15857
915.583	15728
915.696	15705
915.809	15736
915.921	15854
916.034	15644
916.146	15542
916.259	15599
916.371	15720
916.483	15625
916.595	15610
916.708	15580
916.82	15587
916.932	15443
917.044	15500
917.156	15473
917.268	15329
917.38	15378
917.491	15408
917.603	15310
917.715	15321
917.826	15401
917.938	15256
918.049	15294
918.161	15313
918.272	15462
918.384	15386
918.495	15268
918.606	15173
918.717	15089
918.828	15188
918.939	15112
919.05	15028
919.161	15058
919.272	14895
919.383	15017
919.494	15085
919.604	15264
919.715	15123
919.826	14895
919.936	15062
920.047	15085
920.157	15039
920.267	15119
920.378	14994
920.488	15043
920.598	15188
920.708	15298
920.818	15184
920.928	15146
921.038	15370
921.148	15298
921.258	15017
921.368	14876
921.477	14697
921.587	14800
921.697	14545
921.806	14811
921.916	14606
922.025	14408
922.134	14492
922.244	14358
922.353	14442
922.462	14309
922.571	14187
922.68	14157
922.789	14149
922.898	14092
923.007	14027
923.116	14081
923.224	14054
923.333	13970
923.442	13902
923.55	13734
923.659	13963
923.767	13925
923.876	13769
923.984	13883
924.092	13753
924.201	13795
924.309	13772
924.417	13811
924.525	13704
924.633	13761
924.741	14484
924.849	13537
924.956	13674
925.064	13464
925.172	13453
925.279	13407
925.387	13491
925.494	13434
925.602	13559
925.709	13449
925.816	13289
925.924	13365
926.031	13533
926.138	13438
926.245	13354
926.352	13232
926.459	13476
926.566	13411
926.673	13232
926.779	13160
926.886	13103
926.993	12996
927.099	13031
927.206	12977
927.312	12977
927.419	13004
927.525	13031
927.631	12886
927.737	12916
927.843	12806
927.95	12753
928.056	12821
928.162	12802
928.267	12783
928.373	13472
928.479	12753
928.585	12654
928.69	12738
928.796	12791
928.901	12681
929.007	12456
929.112	12532
929.218	12646
929.323	12532
929.428	12467
929.533	12608
929.638	12376
929.743	12578
929.848	12460
929.953	12395
930.058	12319
930.163	12175
930.267	12224
930.372	12300
930.477	12159
930.581	12304
930.685	12178
930.79	12038
930.894	12129
930.998	12102
931.103	12133
931.207	11866
931.311	11802
931.415	11642
931.519	11467
931.623	11383
