Data from test_V78500241_3343.txt Node
Date: Fri Mar 25 16:04:57 CST 2022
User: usil
Spectrometer: V785-0024
Trigger mode: 0
Integration Time (sec): 4.000000E-1
Scans to average: 1
Nonlinearity correction enabled: false
Boxcar width: 0
Storing dark spectrum: false
XAxis mode: Wavelengths
Number of Pixels in Spectrum: 1024
>>>>>Begin Spectral Data<<<<<
801.071	28862
801.214	28736
801.356	28356
801.499	28409
801.641	28382
801.783	28382
801.926	28268
802.068	28363
802.211	28322
802.353	28382
802.496	28097
802.638	28135
802.78	28147
802.923	27831
803.065	28063
803.208	28105
803.35	28006
803.492	28207
803.635	28356
803.777	28382
803.919	28211
804.061	28611
804.204	28379
804.346	28276
804.488	28215
804.63	28314
804.773	28394
804.915	28394
805.057	28516
805.199	28440
805.341	28542
805.483	28432
805.626	28337
805.768	28401
805.91	28440
806.052	28508
806.194	28489
806.336	28580
806.478	28561
806.62	28443
806.762	28569
806.904	28828
807.046	28972
807.188	28961
807.33	29003
807.472	29018
807.614	28816
807.756	28809
807.898	28831
808.04	28793
808.182	28782
808.324	28675
808.465	28702
808.607	28995
808.749	29212
808.891	29326
809.033	29379
809.174	29185
809.316	29261
809.458	29193
809.6	29090
809.741	29235
809.883	29364
810.025	29558
810.166	29433
810.308	29516
810.45	29486
810.591	29482
810.733	29220
810.875	29349
811.016	29174
811.158	29010
811.299	29277
811.441	29341
811.582	29296
811.724	29067
811.865	29159
812.007	29220
812.148	29155
812.29	29364
812.431	29315
812.573	29436
812.714	29707
812.855	29729
812.997	29726
813.138	29942
813.279	29794
813.421	29653
813.562	29714
813.703	29505
813.845	29421
813.986	29197
814.127	28991
814.268	28877
814.41	28957
814.551	28923
814.692	29029
814.833	28763
814.974	28877
815.115	28869
815.256	28877
815.397	28675
815.539	28824
815.68	28850
815.821	28668
815.962	28618
816.103	28630
816.244	28531
816.385	28634
816.526	28390
816.666	28398
816.807	28200
816.948	28333
817.089	28394
817.23	28207
817.371	28272
817.512	28295
817.653	28200
817.793	28185
817.934	28200
818.075	28181
818.216	28272
818.356	28135
818.497	28124
818.638	27884
818.778	27914
818.919	28002
819.06	28181
819.2	28017
819.341	28162
819.481	28154
819.622	28432
819.762	28527
819.903	28519
820.043	28459
820.184	28344
820.324	28295
820.465	28424
820.605	28432
820.746	28413
820.886	28215
821.026	28284
821.167	28280
821.307	28337
821.447	28382
821.588	28230
821.728	27907
821.868	27804
822.008	27637
822.149	27823
822.289	27675
822.429	27469
822.569	27469
822.709	27454
822.849	27245
822.99	27268
823.13	27146
823.27	27173
823.41	27062
823.55	26887
823.69	27062
823.83	27020
823.97	26979
824.11	26960
824.25	26773
824.389	26876
824.529	27074
824.669	26906
824.809	26910
824.949	26921
825.089	26994
825.228	26986
825.368	26823
825.508	26705
825.648	26800
825.787	26830
825.927	26667
826.067	26785
826.206	26765
826.346	26804
826.485	26857
826.625	26724
826.765	26861
826.904	26811
827.044	26670
827.183	26511
827.323	26514
827.462	26511
827.601	26541
827.741	26533
827.88	26598
828.02	26370
828.159	26514
828.298	26503
828.437	26499
828.577	26419
828.716	26495
828.855	26336
828.994	26103
829.134	26225
829.273	26180
829.412	26107
829.551	26122
829.69	26275
829.829	26164
829.968	26358
830.107	26275
830.246	26176
830.385	26096
830.524	26134
830.663	26058
830.802	25780
830.941	25715
831.08	25670
831.219	25803
831.357	25757
831.496	26107
831.635	25811
831.774	25712
831.913	25674
832.051	25563
832.19	25613
832.329	25548
832.467	25358
832.606	25453
832.744	25369
832.883	25460
833.022	25369
833.16	25441
833.299	25571
833.437	25441
833.576	25559
833.714	25274
833.852	25628
833.991	25445
834.129	25723
834.267	25590
834.406	25495
834.544	25457
834.682	25460
834.821	25362
834.959	25681
835.097	25438
835.235	25499
835.373	25453
835.511	25491
835.65	25415
835.788	25365
835.926	25209
836.064	25088
836.202	25320
836.34	25308
836.478	25426
836.615	25331
836.753	25320
836.891	25354
837.029	25362
837.167	25221
837.305	25255
837.443	25232
837.58	25187
837.718	25160
837.856	25194
837.993	25221
838.131	25126
838.269	25023
838.406	25046
838.544	24989
838.681	24840
838.819	24760
838.956	24585
839.094	24654
839.231	24661
839.369	24833
839.506	24970
839.643	24726
839.781	24559
839.918	24502
840.055	24585
840.193	24627
840.33	24467
840.467	24456
840.604	24608
840.742	24844
840.879	24361
841.016	24391
841.153	24540
841.29	24582
841.427	24509
841.564	24502
841.701	24559
841.838	24578
841.975	24441
842.112	24361
842.249	24216
842.385	24369
842.522	24380
842.659	24273
842.796	24163
842.933	24266
843.069	24155
843.206	24152
843.343	24357
843.479	24285
843.616	24399
843.752	23980
843.889	24106
844.025	24091
844.162	24079
844.298	24213
844.435	24011
844.571	24007
844.708	24076
844.844	24292
844.98	24216
845.117	24155
845.253	24011
845.389	23832
845.525	24034
845.661	23935
845.798	23840
845.934	23836
846.07	23718
846.206	23786
846.342	23859
846.478	23828
846.614	23516
846.75	23398
846.886	23421
847.022	23608
847.158	23528
847.294	23524
847.429	23520
847.565	23490
847.701	23802
847.837	23216
847.972	23246
848.108	23452
848.244	23239
848.379	23162
848.515	23079
848.65	23170
848.786	23128
848.921	23003
849.057	23261
849.192	23242
849.328	23022
849.463	23102
849.598	23003
849.734	22991
849.869	22908
850.004	22892
850.14	23014
850.275	22877
850.41	22881
850.545	22778
850.68	22911
850.815	22991
850.95	22801
851.085	23170
851.22	22927
851.355	22778
851.49	22991
851.625	22763
851.76	22892
851.895	22653
852.03	22782
852.165	22919
852.299	22801
852.434	22877
852.569	22965
852.703	22889
852.838	22965
852.973	22980
853.107	22965
853.242	22862
853.376	22740
853.511	22577
853.645	22592
853.78	22622
853.914	22626
854.048	22542
854.183	22618
854.317	22729
854.451	22862
854.585	22744
854.72	22725
854.854	22653
854.988	22615
855.122	22736
855.256	22599
855.39	22672
855.524	22641
855.658	22710
855.792	22679
855.926	22554
856.06	22637
856.194	22664
856.327	22759
856.461	22577
856.595	22615
856.729	22542
856.862	22805
856.996	22691
857.13	22721
857.263	22812
857.397	22729
857.53	22710
857.664	22683
857.797	22569
857.931	22843
858.064	22736
858.197	22881
858.331	22592
858.464	22717
858.597	22557
858.731	22713
858.864	22702
858.997	22634
859.13	22675
859.263	22664
859.396	22752
859.529	22611
859.662	22580
859.795	22592
859.928	22759
860.061	22824
860.194	22786
860.327	22752
860.46	22668
860.592	22763
860.725	22835
860.858	22831
860.99	22687
861.123	22641
861.256	22691
861.388	22630
861.521	23303
861.653	22527
861.786	22432
861.918	22546
862.05	22588
862.183	22622
862.315	22565
862.447	22599
862.58	22470
862.712	22413
862.844	22230
862.976	22550
863.108	22508
863.24	22927
863.372	22242
863.504	22394
863.636	22367
863.768	22470
863.9	22356
864.032	22314
864.164	22280
864.296	22440
864.428	22462
864.559	22470
864.691	22421
864.823	22306
864.954	22322
865.086	22371
865.217	22257
865.349	22101
865.48	22238
865.612	22280
865.743	22413
865.875	22318
866.006	22337
866.137	22226
866.269	22246
866.4	22097
866.531	22230
866.662	22128
866.793	22059
866.924	22070
867.055	22303
867.186	22265
867.317	22139
867.448	22105
867.579	22200
867.71	21979
867.841	22169
867.972	22135
868.103	22078
868.233	22166
868.364	22219
868.495	22265
868.625	22348
868.756	22474
868.886	22379
869.017	22318
869.147	22322
869.278	22379
869.408	22459
869.539	22413
869.669	22504
869.799	22470
869.929	22531
870.06	22447
870.19	22786
870.32	22672
870.45	22637
870.58	22877
870.71	22934
870.84	22930
870.97	22786
871.1	22930
871.23	22961
871.36	22991
871.489	22877
871.619	23056
871.749	22987
871.879	22949
872.008	23117
872.138	23048
872.267	23037
872.397	22858
872.526	22862
872.656	22854
872.785	22873
872.915	22908
873.044	23227
873.173	22930
873.303	23052
873.432	23102
873.561	23261
873.69	23018
873.819	23079
873.948	23010
874.077	23033
874.206	22976
874.335	23018
874.464	23132
874.593	23280
874.722	23246
874.851	23387
874.979	23258
875.108	23299
875.237	23223
875.365	23136
875.494	23280
875.623	23334
875.751	23250
875.88	23254
876.008	23505
876.136	23429
876.265	23665
876.393	23790
876.521	23729
876.65	23786
876.778	23649
876.906	23528
877.034	23562
877.162	23570
877.29	23611
877.418	23543
877.546	23497
877.674	23482
877.802	23710
877.93	23421
878.058	23566
878.185	23493
878.313	23531
878.441	23509
878.568	23524
878.696	23630
878.824	23653
878.951	23535
879.079	23786
879.206	23836
879.333	23676
879.461	23535
879.588	23703
879.715	23840
879.842	23912
879.97	23657
880.097	23307
880.224	23353
880.351	23516
880.478	23433
880.605	23299
880.732	23436
880.859	23615
880.986	23467
881.112	23448
881.239	23269
881.366	23147
881.493	23048
881.619	23014
881.746	22968
881.872	23105
881.999	22976
882.125	22892
882.252	23022
882.378	22965
882.505	22946
882.631	22801
882.757	22809
882.883	22733
883.01	22660
883.136	22584
883.262	22527
883.388	22436
883.514	22634
883.64	22611
883.766	22622
883.892	22417
884.018	22436
884.143	22527
884.269	22809
884.395	22360
884.52	22143
884.646	22291
884.772	22196
884.897	22188
885.023	22337
885.148	22440
885.274	22341
885.399	22295
885.524	22265
885.65	22299
885.775	22310
885.9	22166
886.025	22318
886.15	22242
886.275	22314
886.4	22150
886.525	22230
886.65	22207
886.775	22211
886.9	22447
887.025	22402
887.149	22348
887.274	22006
887.399	22070
887.523	22048
887.648	21922
887.773	21831
887.897	22093
888.021	21998
888.146	21907
888.27	21949
888.395	22097
888.519	21994
888.643	22025
888.767	21934
888.891	21998
889.015	21835
889.139	21892
889.263	21800
889.387	21991
889.511	22013
889.635	21983
889.759	21755
889.883	21755
890.006	21880
890.13	21884
890.254	21705
890.377	21709
890.501	21496
890.624	21572
890.748	21553
890.871	21458
890.995	21283
891.118	21313
891.241	21275
891.364	21370
891.488	21458
891.611	21306
891.734	21294
891.857	21443
891.98	21351
892.103	21386
892.226	21374
892.349	21260
892.471	21127
892.594	21169
892.717	21332
892.839	21264
892.962	21260
893.085	21393
893.207	21291
893.33	21161
893.452	21207
893.575	21260
893.697	21180
893.819	21416
893.941	21412
894.064	21492
894.186	21176
894.308	21222
894.43	21275
894.552	21332
894.674	21348
894.796	21142
894.918	21180
895.04	21154
895.161	21218
895.283	21256
895.405	21104
895.526	21173
895.648	21294
895.769	21184
895.891	21268
896.012	21203
896.134	21256
896.255	21264
896.376	21203
896.498	21268
896.619	21268
896.74	21298
896.861	21207
896.982	21507
897.103	21728
897.224	21458
897.345	21496
897.466	21351
897.587	21450
897.708	21618
897.828	21310
897.949	21439
898.07	21272
898.19	21264
898.311	21428
898.431	21294
898.552	21424
898.672	21488
898.792	21431
898.913	21397
899.033	21340
899.153	21184
899.273	21131
899.393	21291
899.513	21116
899.633	21165
899.753	21131
899.873	21024
899.993	21218
900.113	21116
900.232	21055
900.352	21020
900.472	20967
900.591	20838
900.711	21036
900.83	20891
900.95	20941
901.069	21028
901.189	20830
901.308	20724
901.427	20511
901.546	20514
901.665	20526
901.784	20408
901.904	20438
902.023	20176
902.141	19974
902.26	20008
902.379	20024
902.498	19982
902.617	19860
902.735	19997
902.854	20046
902.973	19982
903.091	19624
903.21	19609
903.328	19689
903.446	19605
903.565	19419
903.683	19491
903.801	19365
903.919	19362
904.038	19324
904.156	19225
904.274	19324
904.392	19008
904.51	19194
904.627	19050
904.745	19240
904.863	19217
904.981	18924
905.098	18924
905.216	18700
905.334	18882
905.451	18844
905.569	18787
905.686	18897
905.803	18837
905.921	18650
906.038	18886
906.155	18722
906.272	18506
906.389	18585
906.506	18338
906.623	18422
906.74	18422
906.857	18315
906.974	18308
907.091	18464
907.208	18441
907.324	18365
907.441	18190
907.557	18144
907.674	18068
907.79	18095
907.907	17988
908.023	17984
908.139	18072
908.256	17992
908.372	17965
908.488	17878
908.604	17878
908.72	17779
908.836	17756
908.952	17691
909.068	17836
909.184	17897
909.3	17786
909.415	17927
909.531	17805
909.647	17467
909.762	17490
909.878	17448
909.993	17509
910.108	17478
910.224	17402
910.339	17372
910.454	17307
910.57	17246
910.685	17277
910.8	17516
910.915	17402
911.03	17280
911.145	17124
911.259	17083
911.374	17022
911.489	16968
911.604	16938
911.718	16930
911.833	16774
911.947	16713
912.062	16687
912.176	16858
912.291	16854
912.405	16767
912.519	17006
912.633	16934
912.748	16927
912.862	16793
912.976	16656
913.09	16474
913.204	16558
913.318	16618
913.431	16755
913.545	16645
913.659	16698
913.772	16592
913.886	16508
914	16337
914.113	16504
914.226	16558
914.34	16512
914.453	16181
914.566	16382
914.68	16303
914.793	16131
914.906	16086
915.019	16078
915.132	15842
915.245	15865
915.358	16010
915.47	15953
915.583	16135
915.696	16116
915.809	16044
915.921	16048
916.034	15949
916.146	15797
916.259	15778
916.371	15972
916.483	15941
916.595	15819
916.708	15823
916.82	15762
916.932	15720
917.044	15732
917.156	15675
917.268	15633
917.38	15576
917.491	15603
917.603	15580
917.715	15595
917.826	15637
917.938	15523
918.049	15538
918.161	15515
918.272	15641
918.384	15606
918.495	15534
918.606	15416
918.717	15329
918.828	15405
918.939	15313
919.05	15256
919.161	15275
919.272	15074
919.383	15154
919.494	15397
919.604	15625
919.715	15378
919.826	15256
919.936	15313
920.047	15230
920.157	15268
920.267	15389
920.378	15294
920.488	15245
920.598	15367
920.708	15576
920.818	15435
920.928	15393
921.038	15435
921.148	15568
921.258	15195
921.368	15199
921.477	15070
921.587	15017
921.697	14944
921.806	14982
921.916	14807
922.025	14697
922.134	14670
922.244	14598
922.353	14670
922.462	14560
922.571	14473
922.68	14343
922.789	14317
922.898	14355
923.007	14210
923.116	14358
923.224	14153
923.333	14206
923.442	14100
923.55	14145
923.659	14084
923.767	14153
923.876	14096
923.984	14081
924.092	13986
924.201	14039
924.309	14008
924.417	13993
924.525	13906
924.633	13890
924.741	14800
924.849	13833
924.956	13841
925.064	13681
925.172	13559
925.279	13613
925.387	13639
925.494	13677
925.602	13799
925.709	13708
925.816	13559
925.924	13636
926.031	13647
926.138	13613
926.245	13715
926.352	13491
926.459	13582
926.566	13666
926.673	13453
926.779	13384
926.886	13365
926.993	13247
927.099	13263
927.206	13164
927.312	13122
927.419	13225
927.525	13244
927.631	13065
927.737	13133
927.843	13107
927.95	12833
928.056	12985
928.162	13000
928.267	13004
928.373	13548
928.479	13053
928.585	12810
928.69	13038
928.796	12993
928.901	12837
929.007	12772
929.112	12859
929.218	12726
929.323	12715
929.428	12757
929.533	12821
929.638	12715
929.743	12662
929.848	12673
929.953	12669
930.058	12456
930.163	12350
930.267	12365
930.372	12551
930.477	12330
930.581	12547
930.685	12384
930.79	12289
930.894	12213
930.998	12235
931.103	12300
931.207	11999
931.311	11889
931.415	11817
931.519	11661
931.623	11668
