Data from test_V78500241_3348.txt Node
Date: Fri Mar 25 16:04:59 CST 2022
User: usil
Spectrometer: V785-0024
Trigger mode: 0
Integration Time (sec): 4.000000E-1
Scans to average: 1
Nonlinearity correction enabled: false
Boxcar width: 0
Storing dark spectrum: false
XAxis mode: Wavelengths
Number of Pixels in Spectrum: 1024
>>>>>Begin Spectral Data<<<<<
801.071	28713
801.214	28752
801.356	28546
801.499	28428
801.641	28318
801.783	28348
801.926	28363
802.068	28207
802.211	28280
802.353	28169
802.496	27987
802.638	27892
802.78	28010
802.923	27835
803.065	27861
803.208	28006
803.35	28067
803.492	28120
803.635	28169
803.777	28120
803.919	28131
804.061	28474
804.204	28375
804.346	28131
804.488	28082
804.63	28215
804.773	28219
804.915	28325
805.057	28462
805.199	28265
805.341	28268
805.483	28440
805.626	28516
805.768	28398
805.91	28451
806.052	28314
806.194	28249
806.336	28630
806.478	28405
806.62	28417
806.762	28592
806.904	28679
807.046	28976
807.188	28908
807.33	28942
807.472	28858
807.614	28976
807.756	28888
807.898	28660
808.04	28869
808.182	28622
808.324	28706
808.465	28778
808.607	28942
808.749	28991
808.891	29105
809.033	29284
809.174	29105
809.316	29128
809.458	28888
809.6	29010
809.741	29121
809.883	29174
810.025	29391
810.166	29391
810.308	29417
810.45	29159
810.591	29185
810.733	29132
810.875	29140
811.016	29086
811.158	28923
811.299	29200
811.441	29318
811.582	29326
811.724	29109
811.865	29060
812.007	29155
812.148	29181
812.29	29113
812.431	29299
812.573	29425
812.714	29589
812.855	29634
812.997	29668
813.138	29798
813.279	29813
813.421	29566
813.562	29676
813.703	29379
813.845	29417
813.986	29044
814.127	28858
814.268	28831
814.41	28892
814.551	28816
814.692	28991
814.833	28877
814.974	28733
815.115	28835
815.256	28713
815.397	28694
815.539	28831
815.68	28618
815.821	28615
815.962	28733
816.103	28664
816.244	28485
816.385	28394
816.526	28398
816.666	28226
816.807	28105
816.948	28154
817.089	28215
817.23	28188
817.371	28124
817.512	28090
817.653	28162
817.793	28143
817.934	28070
818.075	28257
818.216	28223
818.356	28070
818.497	28059
818.638	27850
818.778	27888
818.919	27907
819.06	27972
819.2	28074
819.341	28059
819.481	28070
819.622	28169
819.762	28504
819.903	28462
820.043	28287
820.184	28158
820.324	28367
820.465	28341
820.605	28337
820.746	28185
820.886	28192
821.026	28188
821.167	28196
821.307	28196
821.447	28010
821.588	28006
821.728	27941
821.868	27914
822.008	27736
822.149	27720
822.289	27618
822.429	27359
822.569	27348
822.709	27450
822.849	27112
822.99	27192
823.13	27013
823.27	27142
823.41	26937
823.55	26940
823.69	26842
823.83	26914
823.97	26982
824.11	26765
824.25	26716
824.389	26834
824.529	26880
824.669	26815
824.809	26918
824.949	26823
825.089	26861
825.228	26933
825.368	26712
825.508	26545
825.648	26644
825.787	26746
825.927	26769
826.067	26693
826.206	26743
826.346	26629
826.485	26693
826.625	26765
826.765	26674
826.904	26781
827.044	26370
827.183	26438
827.323	26336
827.462	26385
827.601	26233
827.741	26275
827.88	26377
828.02	26180
828.159	26202
828.298	26549
828.437	26453
828.577	26206
828.716	26374
828.855	26199
828.994	26096
829.134	26119
829.273	26210
829.412	25932
829.551	25955
829.69	26119
829.829	26145
829.968	26107
830.107	26081
830.246	26065
830.385	26065
830.524	25845
830.663	25807
830.802	25811
830.941	25594
831.08	25449
831.219	25826
831.357	25605
831.496	26012
831.635	25818
831.774	25613
831.913	25658
832.051	25445
832.19	25529
832.329	25567
832.467	25320
832.606	25346
832.744	25316
832.883	25308
833.022	25324
833.16	25426
833.299	25362
833.437	25403
833.576	25445
833.714	25445
833.852	25476
833.991	25586
834.129	25384
834.267	25563
834.406	25457
834.544	25559
834.682	25434
834.821	25373
834.959	25373
835.097	25445
835.235	25453
835.373	25358
835.511	25369
835.65	25270
835.788	25354
835.926	25076
836.064	24966
836.202	25175
836.34	25263
836.478	25327
836.615	25217
836.753	25251
836.891	25381
837.029	25217
837.167	25225
837.305	25213
837.443	25126
837.58	25213
837.718	25141
837.856	25133
837.993	25088
838.131	25145
838.269	24909
838.406	25122
838.544	24954
838.681	24776
838.819	24665
838.956	24540
839.094	24570
839.231	24639
839.369	24776
839.506	25069
839.643	24947
839.781	24601
839.918	24646
840.055	24490
840.193	24521
840.33	24471
840.467	24521
840.604	24635
840.742	24787
840.879	24365
841.016	24422
841.153	24342
841.29	24403
841.427	24471
841.564	24544
841.701	24544
841.838	24342
841.975	24372
842.112	24270
842.249	24228
842.385	24136
842.522	24372
842.659	24201
842.796	24285
842.933	24224
843.069	24239
843.206	24167
843.343	24357
843.479	24190
843.616	24178
843.752	23999
843.889	24049
844.025	24064
844.162	23969
844.298	24095
844.435	23988
844.571	23927
844.708	23996
844.844	24182
844.98	24155
845.117	24022
845.253	23950
845.389	23817
845.525	23866
845.661	23828
845.798	23767
845.934	23889
846.07	23661
846.206	23718
846.342	23935
846.478	23752
846.614	23577
846.75	23478
846.886	23372
847.022	23444
847.158	23471
847.294	23425
847.429	23433
847.565	23353
847.701	23638
847.837	23193
847.972	23185
848.108	23318
848.244	23258
848.379	23121
848.515	23033
848.65	23025
848.786	22934
848.921	23022
849.057	23086
849.192	23185
849.328	23079
849.463	22904
849.598	23006
849.734	22839
849.869	22968
850.004	22869
850.14	22889
850.275	22839
850.41	22683
850.545	22835
850.68	22797
850.815	22805
850.95	22790
851.085	23014
851.22	22972
851.355	22885
851.49	22862
851.625	22782
851.76	22702
851.895	22809
852.03	22790
852.165	22831
852.299	22843
852.434	22805
852.569	22866
852.703	22904
852.838	22805
852.973	22805
853.107	22835
853.242	22824
853.376	22546
853.511	22546
853.645	22531
853.78	22801
853.914	22698
854.048	22561
854.183	22557
854.317	22752
854.451	22873
854.585	22607
854.72	22580
854.854	22755
854.988	22603
855.122	22512
855.256	22504
855.39	22637
855.524	22607
855.658	22721
855.792	22584
855.926	22611
856.06	22622
856.194	22710
856.327	22645
856.461	22637
856.595	22516
856.729	22584
856.862	22702
856.996	22683
857.13	22729
857.263	22618
857.397	22664
857.53	22565
857.664	22687
857.797	22618
857.931	22694
858.064	22599
858.197	22786
858.331	22656
858.464	22405
858.597	22569
858.731	22630
858.864	22611
858.997	22470
859.13	22630
859.263	22596
859.396	22713
859.529	22675
859.662	22668
859.795	22405
859.928	22588
860.061	22763
860.194	22900
860.327	22710
860.46	22706
860.592	22782
860.725	22797
860.858	22622
860.99	22569
861.123	22561
861.256	22588
861.388	22531
861.521	23303
861.653	22398
861.786	22325
861.918	22348
862.05	22451
862.183	22508
862.315	22535
862.447	22523
862.58	22470
862.712	22341
862.844	22196
862.976	22428
863.108	22451
863.24	22763
863.372	22166
863.504	22375
863.636	22200
863.768	22379
863.9	22329
864.032	22310
864.164	22306
864.296	22314
864.428	22303
864.559	22478
864.691	22398
864.823	22207
864.954	22249
865.086	22348
865.217	22188
865.349	22185
865.48	22204
865.612	22131
865.743	22291
865.875	22284
866.006	22200
866.137	22318
866.269	22147
866.4	22234
866.531	22143
866.662	22059
866.793	22185
866.924	22116
867.055	22181
867.186	22074
867.317	22147
867.448	22078
867.579	22166
867.71	22147
867.841	22078
867.972	22143
868.103	22017
868.233	22097
868.364	22112
868.495	22215
868.625	22341
868.756	22325
868.886	22272
869.017	22310
869.147	22390
869.278	22504
869.408	22333
869.539	22333
869.669	22341
869.799	22417
869.929	22626
870.06	22508
870.19	22752
870.32	22569
870.45	22596
870.58	22622
870.71	22839
870.84	22809
870.97	22767
871.1	22748
871.23	22919
871.36	22995
871.489	23037
871.619	22919
871.749	22904
871.879	22911
872.008	23090
872.138	23003
872.267	22980
872.397	22892
872.526	22828
872.656	22710
872.785	22786
872.915	23033
873.044	23178
873.173	22919
873.303	23060
873.432	22961
873.561	23037
873.69	23113
873.819	22949
873.948	23090
874.077	22976
874.206	22900
874.335	22934
874.464	22984
874.593	23216
874.722	23155
874.851	23185
874.979	23220
875.108	23220
875.237	23006
875.365	23121
875.494	23071
875.623	23189
875.751	23227
875.88	23258
876.008	23277
876.136	23288
876.265	23630
876.393	23729
876.521	23558
876.65	23756
876.778	23516
876.906	23566
877.034	23589
877.162	23531
877.29	23490
877.418	23649
877.546	23474
877.674	23528
877.802	23646
877.93	23558
878.058	23493
878.185	23535
878.313	23376
878.441	23589
878.568	23303
878.696	23349
878.824	23539
878.951	23733
879.079	23912
879.206	23802
879.333	23657
879.461	23554
879.588	23589
879.715	23661
879.842	23805
879.97	23714
880.097	23444
880.224	23444
880.351	23296
880.478	23398
880.605	23364
880.732	23379
880.859	23707
880.986	23455
881.112	23356
881.239	23147
881.366	23094
881.493	22923
881.619	22790
881.746	22984
881.872	22877
881.999	22896
882.125	22866
882.252	22828
882.378	22850
882.505	22968
882.631	22713
882.757	22580
882.883	22725
883.01	22523
883.136	22478
883.262	22485
883.388	22417
883.514	22603
883.64	22618
883.766	22512
883.892	22440
884.018	22443
884.143	22451
884.269	22588
884.395	22276
884.52	22219
884.646	22196
884.772	22135
884.897	22063
885.023	22268
885.148	22257
885.274	22291
885.399	22394
885.524	22135
885.65	22124
885.775	22211
885.9	22291
886.025	22291
886.15	22200
886.275	22185
886.4	22074
886.525	22219
886.65	22078
886.775	22188
886.9	22386
887.025	22379
887.149	22219
887.274	22017
887.399	21991
887.523	21991
887.648	21835
887.773	21903
887.897	21983
888.021	21972
888.146	21918
888.27	22044
888.395	22120
888.519	22143
888.643	21926
888.767	22029
888.891	21854
889.015	21774
889.139	21781
889.263	21785
889.387	21808
889.511	22021
889.635	21835
889.759	21701
889.883	21720
890.006	21686
890.13	21770
890.254	21686
890.377	21629
890.501	21458
890.624	21408
890.748	21606
890.871	21310
890.995	21287
891.118	21173
891.241	21298
891.364	21268
891.488	21481
891.611	21275
891.734	21329
891.857	21363
891.98	21306
892.103	21298
892.226	21245
892.349	21275
892.471	21131
892.594	21127
892.717	21211
892.839	21218
892.962	21355
893.085	21317
893.207	21176
893.33	21089
893.452	21173
893.575	21279
893.697	21195
893.819	21344
893.941	21428
894.064	21416
894.186	21218
894.308	21081
894.43	21272
894.552	21252
894.674	21203
894.796	21176
894.918	21165
895.04	21043
895.161	21241
895.283	21165
895.405	21085
895.526	21203
895.648	21207
895.769	21127
895.891	21070
896.012	21351
896.134	21150
896.255	21112
896.376	21154
896.498	21203
896.619	21222
896.74	21081
896.861	21279
896.982	21492
897.103	21641
897.224	21378
897.345	21370
897.466	21306
897.587	21439
897.708	21454
897.828	21348
897.949	21397
898.07	21176
898.19	21332
898.311	21431
898.431	21260
898.552	21363
898.672	21389
898.792	21351
898.913	21332
899.033	21256
899.153	21104
899.273	21051
899.393	21112
899.513	21199
899.633	21058
899.753	21127
899.873	20956
899.993	21077
900.113	21028
900.232	21173
900.352	21005
900.472	20967
900.591	20868
900.711	20861
900.83	20724
900.95	20880
901.069	20944
901.189	20701
901.308	20408
901.427	20377
901.546	20484
901.665	20461
901.784	20503
901.904	20332
902.023	20191
902.141	20103
902.26	19970
902.379	20035
902.498	19963
902.617	19868
902.735	20088
902.854	19982
902.973	19769
903.091	19552
903.21	19609
903.328	19480
903.446	19552
903.565	19388
903.683	19445
903.801	19316
903.919	19343
904.038	19247
904.156	19118
904.274	19236
904.392	19107
904.51	19080
904.627	19133
904.745	19175
904.863	19213
904.981	19012
905.098	18829
905.216	18798
905.334	18844
905.451	18863
905.569	18760
905.686	18920
905.803	18779
905.921	18604
906.038	18783
906.155	18616
906.272	18509
906.389	18448
906.506	18357
906.623	18399
906.74	18334
906.857	18277
906.974	18194
907.091	18289
907.208	18403
907.324	18414
907.441	18254
907.557	18133
907.674	17996
907.79	17946
907.907	18022
908.023	18136
908.139	18045
908.256	18068
908.372	18117
908.488	17912
908.604	17889
908.72	17764
908.836	17729
908.952	17786
909.068	17794
909.184	17893
909.3	17760
909.415	17786
909.531	17691
909.647	17627
909.762	17425
909.878	17482
909.993	17379
910.108	17459
910.224	17448
910.339	17410
910.454	17299
910.57	17318
910.685	17246
910.8	17490
910.915	17440
911.03	17246
911.145	17090
911.259	17033
911.374	17105
911.489	17045
911.604	16995
911.718	16869
911.833	16771
911.947	16733
912.062	16683
912.176	16778
912.291	16771
912.405	16767
912.519	16828
912.633	17037
912.748	16915
912.862	16755
912.976	16596
913.09	16512
913.204	16592
913.318	16573
913.431	16717
913.545	16588
913.659	16733
913.772	16527
913.886	16421
914	16466
914.113	16474
914.226	16569
914.34	16424
914.453	16287
914.566	16367
914.68	16329
914.793	16169
914.906	16105
915.019	15949
915.132	15930
915.245	15918
915.358	15975
915.47	15953
915.583	15972
915.696	16021
915.809	15987
915.921	16032
916.034	15873
916.146	15850
916.259	15857
916.371	15930
916.483	15800
916.595	15728
916.708	15831
916.82	15675
916.932	15850
917.044	15720
917.156	15747
917.268	15568
917.38	15603
917.491	15614
917.603	15663
917.715	15686
917.826	15591
917.938	15557
918.049	15408
918.161	15587
918.272	15622
918.384	15591
918.495	15477
918.606	15462
918.717	15397
918.828	15306
918.939	15275
919.05	15306
919.161	15214
919.272	15116
919.383	15218
919.494	15374
919.604	15519
919.715	15287
919.826	15165
919.936	15184
920.047	15313
920.157	15272
920.267	15435
920.378	15313
920.488	15294
920.598	15435
920.708	15485
920.818	15443
920.928	15374
921.038	15511
921.148	15500
921.258	15272
921.368	15119
921.477	15047
921.587	15100
921.697	14788
921.806	14963
921.916	14823
922.025	14735
922.134	14621
922.244	14583
922.353	14743
922.462	14495
922.571	14389
922.68	14370
922.789	14214
922.898	14351
923.007	14221
923.116	14298
923.224	14202
923.333	14290
923.442	14126
923.55	14088
923.659	14039
923.767	14100
923.876	14039
923.984	14115
924.092	13997
924.201	14050
924.309	13970
924.417	13986
924.525	13963
924.633	13963
924.741	14857
924.849	13731
924.956	13860
925.064	13647
925.172	13578
925.279	13647
925.387	13670
925.494	13525
925.602	13879
925.709	13689
925.816	13502
925.924	13586
926.031	13830
926.138	13590
926.245	13609
926.352	13453
926.459	13575
926.566	13605
926.673	13460
926.779	13403
926.886	13464
926.993	13251
927.099	13145
927.206	13095
927.312	13129
927.419	13247
927.525	13160
927.631	13202
927.737	13114
927.843	13099
927.95	12852
928.056	13031
928.162	12993
928.267	13050
928.373	13521
928.479	13145
928.585	12852
928.69	12993
928.796	12939
928.901	12833
929.007	12646
929.112	12829
929.218	12878
929.323	12681
929.428	12696
929.533	12837
929.638	12669
929.743	12726
929.848	12715
929.953	12703
930.058	12486
930.163	12407
930.267	12338
930.372	12513
930.477	12315
930.581	12582
930.685	12426
930.79	12346
930.894	12304
930.998	12232
931.103	12353
931.207	11961
931.311	11939
931.415	11802
931.519	11604
931.623	11570
