Data from test_V78500241_492.txt Node
Date: Fri Mar 25 15:45:12 CST 2022
User: usil
Spectrometer: V785-0024
Trigger mode: 0
Integration Time (sec): 4.000000E-1
Scans to average: 1
Nonlinearity correction enabled: false
Boxcar width: 0
Storing dark spectrum: false
XAxis mode: Wavelengths
Number of Pixels in Spectrum: 1024
>>>>>Begin Spectral Data<<<<<
801.071	27397
801.214	27329
801.356	27142
801.499	27104
801.641	26940
801.783	27028
801.926	27089
802.068	27074
802.211	26864
802.353	26982
802.496	26644
802.638	26461
802.78	26453
802.923	26629
803.065	26522
803.208	26453
803.35	26590
803.492	26720
803.635	26689
803.777	26705
803.919	26796
804.061	26963
804.204	26727
804.346	26686
804.488	26602
804.63	26765
804.773	26712
804.915	26682
805.057	26678
805.199	26712
805.341	26929
805.483	26716
805.626	26712
805.768	26712
805.91	26743
806.052	26940
806.194	26762
806.336	26891
806.478	26849
806.62	26746
806.762	26804
806.904	27047
807.046	27401
807.188	27199
807.33	27214
807.472	27230
807.614	27214
807.756	27165
807.898	26857
808.04	27013
808.182	27051
808.324	27043
808.465	26891
808.607	27226
808.749	27355
808.891	27481
809.033	27705
809.174	27625
809.316	27500
809.458	27473
809.6	27389
809.741	27625
809.883	27583
810.025	27618
810.166	27648
810.308	27701
810.45	27614
810.591	27568
810.733	27424
810.875	27500
811.016	27382
811.158	27237
811.299	27549
811.441	27568
811.582	27564
811.724	27405
811.865	27389
812.007	27405
812.148	27386
812.29	27466
812.431	27682
812.573	27781
812.714	27854
812.855	28112
812.997	28219
813.138	28158
813.279	28006
813.421	27899
813.562	27930
813.703	27755
813.845	27686
813.986	27389
814.127	27188
814.268	27135
814.41	27161
814.551	26994
814.692	27165
814.833	27104
814.974	27211
815.115	27123
815.256	27020
815.397	26925
815.539	26914
815.68	26785
815.821	26838
815.962	26891
816.103	26705
816.244	26819
816.385	26716
816.526	26575
816.666	26423
816.807	26431
816.948	26396
817.089	26492
817.23	26339
817.371	26358
817.512	26374
817.653	26328
817.793	26290
817.934	26351
818.075	26351
818.216	26248
818.356	26202
818.497	26347
818.638	26096
818.778	25963
818.919	25951
819.06	26130
819.2	26088
819.341	26282
819.481	26244
819.622	26465
819.762	26613
819.903	26518
820.043	26465
820.184	26404
820.324	26419
820.465	26606
820.605	26434
820.746	26434
820.886	26305
821.026	26355
821.167	26324
821.307	26480
821.447	26328
821.588	26248
821.728	26191
821.868	25879
822.008	25795
822.149	25856
822.289	25689
822.429	25495
822.569	25472
822.709	25426
822.849	25282
822.99	25331
823.13	25107
823.27	25350
823.41	25236
823.55	25114
823.69	24992
823.83	25270
823.97	24977
824.11	24951
824.25	24814
824.389	24947
824.529	24962
824.669	24894
824.809	24901
824.949	25088
825.089	24913
825.228	24939
825.368	24681
825.508	24757
825.648	24757
825.787	24787
825.927	24890
826.067	24726
826.206	24593
826.346	24901
826.485	24856
826.625	24821
826.765	25061
826.904	24867
827.044	24544
827.183	24585
827.323	24445
827.462	24471
827.601	24566
827.741	24483
827.88	24502
828.02	24285
828.159	24490
828.298	24551
828.437	24620
828.577	24445
828.716	24570
828.855	24357
828.994	24300
829.134	24201
829.273	24159
829.412	24098
829.551	24152
829.69	24133
829.829	24209
829.968	24315
830.107	24262
830.246	24129
830.385	24057
830.524	24015
830.663	23821
830.802	23920
830.941	23779
831.08	23882
831.219	23923
831.357	23855
831.496	23950
831.635	23805
831.774	23680
831.913	23638
832.051	23520
832.19	23684
832.329	23501
832.467	23463
832.606	23414
832.744	23307
832.883	23334
833.022	23360
833.16	23512
833.299	23463
833.437	23501
833.576	23490
833.714	23520
833.852	23516
833.991	23638
834.129	23592
834.267	23585
834.406	23425
834.544	23668
834.682	23558
834.821	23547
834.959	23668
835.097	23452
835.235	23566
835.373	23444
835.511	23444
835.65	23383
835.788	23353
835.926	23368
836.064	23151
836.202	23155
836.34	23341
836.478	23505
836.615	23303
836.753	23284
836.891	23376
837.029	23474
837.167	23265
837.305	23277
837.443	23208
837.58	23220
837.718	23250
837.856	23292
837.993	23113
838.131	23200
838.269	23109
838.406	22911
838.544	23010
838.681	22881
838.819	22885
838.956	22577
839.094	22599
839.231	22729
839.369	22869
839.506	23086
839.643	22858
839.781	22653
839.918	22421
840.055	22618
840.193	22664
840.33	22561
840.467	22557
840.604	22706
840.742	22850
840.879	22447
841.016	22569
841.153	22538
841.29	22569
841.427	22546
841.564	22706
841.701	22542
841.838	22542
841.975	22386
842.112	22489
842.249	22466
842.385	22440
842.522	22653
842.659	22367
842.796	22341
842.933	22295
843.069	22147
843.206	22375
843.343	22375
843.479	22325
843.616	22337
843.752	22147
843.889	22097
844.025	22291
844.162	22063
844.298	22268
844.435	22013
844.571	22032
844.708	22131
844.844	22154
844.98	22360
845.117	22207
845.253	22116
845.389	22086
845.525	22013
845.661	21895
845.798	21831
845.934	21945
846.07	21869
846.206	21819
846.342	21865
846.478	21747
846.614	21717
846.75	21606
846.886	21629
847.022	21629
847.158	21572
847.294	21561
847.429	21568
847.565	21526
847.701	21812
847.837	21378
847.972	21310
848.108	21233
848.244	21363
848.379	21135
848.515	21184
848.65	21135
848.786	21249
848.921	21230
849.057	21291
849.192	21287
849.328	21272
849.463	21104
849.598	21119
849.734	21081
849.869	21043
850.004	20994
850.14	20963
850.275	21074
850.41	20937
850.545	20819
850.68	20845
850.815	20963
850.95	20960
851.085	21108
851.22	21032
851.355	20990
851.49	20849
851.625	20933
851.76	20990
851.895	20872
852.03	20864
852.165	21001
852.299	20971
852.434	21005
852.569	20990
852.703	20982
852.838	21009
852.973	21146
853.107	21142
853.242	20925
853.376	20785
853.511	20632
853.645	20796
853.78	20864
853.914	20773
854.048	20853
854.183	20731
854.317	20849
854.451	21001
854.585	20727
854.72	20689
854.854	20849
854.988	20708
855.122	20914
855.256	20765
855.39	20754
855.524	20899
855.658	20868
855.792	20746
855.926	20807
856.06	20754
856.194	20804
856.327	20788
856.461	20765
856.595	20640
856.729	20765
856.862	20834
856.996	20830
857.13	20861
857.263	20971
857.397	21070
857.53	20853
857.664	20864
857.797	20838
857.931	20861
858.064	20769
858.197	20887
858.331	20720
858.464	20686
858.597	20724
858.731	20823
858.864	20743
858.997	20800
859.13	20796
859.263	20773
859.396	20902
859.529	20762
859.662	20697
859.795	20689
859.928	20804
860.061	20967
860.194	21017
860.327	20788
860.46	20705
860.592	20853
860.725	20952
860.858	21013
860.99	20750
861.123	20720
861.256	20651
861.388	20804
861.521	21408
861.653	20705
861.786	20556
861.918	20682
862.05	20545
862.183	20727
862.315	20689
862.447	20629
862.58	20739
862.712	20514
862.844	20533
862.976	20602
863.108	20530
863.24	20838
863.372	20457
863.504	20492
863.636	20438
863.768	20613
863.9	20461
864.032	20336
864.164	20412
864.296	20537
864.428	20621
864.559	20461
864.691	20564
864.823	20412
864.954	20507
865.086	20396
865.217	20492
865.349	20259
865.48	20400
865.612	20362
865.743	20400
865.875	20385
866.006	20454
866.137	20366
866.269	20419
866.4	20423
866.531	20305
866.662	20278
866.793	20206
866.924	20286
867.055	20400
867.186	20408
867.317	20240
867.448	20119
867.579	20263
867.71	20317
867.841	20240
867.972	20286
868.103	20324
868.233	20248
868.364	20305
868.495	20431
868.625	20575
868.756	20613
868.886	20415
869.017	20454
869.147	20777
869.278	20651
869.408	20583
869.539	20556
869.669	20674
869.799	20712
869.929	20746
870.06	20701
870.19	20762
870.32	20902
870.45	20861
870.58	20918
870.71	21131
870.84	21131
870.97	20998
871.1	20861
871.23	21230
871.36	21294
871.489	21123
871.619	21154
871.749	21093
871.879	21169
872.008	21302
872.138	21226
872.267	21131
872.397	21119
872.526	20956
872.656	20986
872.785	20944
872.915	21142
873.044	21218
873.173	21138
873.303	21146
873.432	21127
873.561	21287
873.69	21096
873.819	21173
873.948	21252
874.077	21169
874.206	21188
874.335	21275
874.464	21264
874.593	21458
874.722	21329
874.851	21466
874.979	21447
875.108	21553
875.237	21287
875.365	21420
875.494	21397
875.623	21481
875.751	21431
875.88	21428
876.008	21679
876.136	21652
876.265	21857
876.393	21937
876.521	21899
876.65	21880
876.778	21842
876.906	21838
877.034	21736
877.162	21892
877.29	21835
877.418	21918
877.546	21876
877.674	21778
877.802	21739
877.93	21717
878.058	21739
878.185	21675
878.313	21720
878.441	21816
878.568	21606
878.696	21656
878.824	21838
878.951	21895
879.079	22010
879.206	22032
879.333	21960
879.461	21838
879.588	21895
879.715	21915
879.842	22139
879.97	21915
880.097	21652
880.224	21671
880.351	21595
880.478	21614
880.605	21492
880.732	21572
880.859	21831
880.986	21644
881.112	21534
881.239	21443
881.366	21405
881.493	21218
881.619	21302
881.746	21131
881.872	21241
881.999	21100
882.125	21074
882.252	21211
882.378	21100
882.505	21245
882.631	21142
882.757	20880
882.883	20956
883.01	20880
883.136	20849
883.262	20727
883.388	20765
883.514	20944
883.64	20952
883.766	20887
883.892	20663
884.018	20739
884.143	20819
884.269	20868
884.395	20716
884.52	20522
884.646	20537
884.772	20465
884.897	20415
885.023	20488
885.148	20590
885.274	20583
885.399	20667
885.524	20644
885.65	20587
885.775	20552
885.9	20613
886.025	20583
886.15	20674
886.275	20560
886.4	20393
886.525	20587
886.65	20522
886.775	20336
886.9	20670
887.025	20697
887.149	20469
887.274	20366
887.399	20298
887.523	20313
887.648	20149
887.773	20199
887.897	20355
888.021	20244
888.146	20240
888.27	20374
888.395	20465
888.519	20434
888.643	20275
888.767	20313
888.891	20233
889.015	20130
889.139	20187
889.263	20107
889.387	20324
889.511	20317
889.635	20229
889.759	20161
889.883	20039
890.006	20001
890.13	20282
890.254	20130
890.377	20058
890.501	19928
890.624	19875
890.748	20001
890.871	19712
890.995	19597
891.118	19597
891.241	19635
891.364	19712
891.488	19830
891.611	19674
891.734	19628
891.857	19674
891.98	19791
892.103	19658
892.226	19704
892.349	19685
892.471	19559
892.594	19533
892.717	19776
892.839	19723
892.962	19620
893.085	19616
893.207	19575
893.33	19632
893.452	19590
893.575	19658
893.697	19510
893.819	19818
893.941	19727
894.064	19700
894.186	19597
894.308	19620
894.43	19601
894.552	19731
894.674	19719
894.796	19586
894.918	19586
895.04	19628
895.161	19624
895.283	19624
895.405	19586
895.526	19537
895.648	19696
895.769	19715
895.891	19723
896.012	19677
896.134	19765
896.255	19715
896.376	19613
896.498	19624
896.619	19719
896.74	19666
896.861	19681
896.982	19974
897.103	19989
897.224	19879
897.345	19902
897.466	19837
897.587	19921
897.708	19887
897.828	19856
897.949	19879
898.07	19833
898.19	19841
898.311	19932
898.431	19830
898.552	19814
898.672	19833
898.792	19864
898.913	19879
899.033	19731
899.153	19719
899.273	19495
899.393	19677
899.513	19723
899.633	19628
899.753	19765
899.873	19605
899.993	19628
900.113	19597
900.232	19563
900.352	19582
900.472	19472
900.591	19369
900.711	19544
900.83	19373
900.95	19533
901.069	19388
901.189	19285
901.308	19027
901.427	18993
901.546	19019
901.665	19027
901.784	19046
901.904	18897
902.023	18806
902.141	18612
902.26	18658
902.379	18604
902.498	18578
902.617	18479
902.735	18544
902.854	18403
902.973	18445
903.091	18197
903.21	18197
903.328	18133
903.446	18102
903.565	18068
903.683	18003
903.801	17893
903.919	17912
904.038	17920
904.156	17798
904.274	17851
904.392	17687
904.51	17710
904.627	17748
904.745	17752
904.863	17824
904.981	17623
905.098	17395
905.216	17452
905.334	17482
905.451	17490
905.569	17459
905.686	17615
905.803	17349
905.921	17269
906.038	17288
906.155	17341
906.272	17067
906.389	17178
906.506	16972
906.623	17052
906.74	17006
906.857	16850
906.974	16968
907.091	17086
907.208	17056
907.324	16930
907.441	16919
907.557	16778
907.674	16706
907.79	16565
907.907	16710
908.023	16744
908.139	16653
908.256	16736
908.372	16542
908.488	16573
908.604	16436
908.72	16356
908.836	16459
908.952	16333
909.068	16421
909.184	16489
909.3	16379
909.415	16341
909.531	16390
909.647	16131
909.762	16154
909.878	16162
909.993	16150
910.108	16158
910.224	16093
910.339	16029
910.454	16006
910.57	15956
910.685	15857
910.8	16147
910.915	16101
911.03	15903
911.145	15827
911.259	15698
911.374	15747
911.489	15701
911.604	15610
911.718	15504
911.833	15393
911.947	15389
912.062	15321
912.176	15466
912.291	15507
912.405	15435
912.519	15701
912.633	15530
912.748	15496
912.862	15477
912.976	15325
913.09	15154
913.204	15317
913.318	15169
913.431	15298
913.545	15351
913.659	15351
913.772	15214
913.886	15074
914	15100
914.113	15230
914.226	15230
914.34	15104
914.453	15013
914.566	15066
914.68	15005
914.793	14990
914.906	14845
915.019	14712
915.132	14667
915.245	14777
915.358	14754
915.47	14693
915.583	14743
915.696	14667
915.809	14857
915.921	14899
916.034	14720
916.146	14689
916.259	14579
916.371	14678
916.483	14697
916.595	14571
916.708	14602
916.82	14590
916.932	14579
917.044	14507
917.156	14476
917.268	14408
917.38	14446
917.491	14328
917.603	14355
917.715	14492
917.826	14454
917.938	14336
918.049	14259
918.161	14309
918.272	14457
918.384	14469
918.495	14275
918.606	14111
918.717	14157
918.828	14214
918.939	14126
919.05	14016
919.161	14046
919.272	13944
919.383	13951
919.494	14278
919.604	14332
919.715	14103
919.826	14103
919.936	14161
920.047	14210
920.157	14126
920.267	14313
920.378	14088
920.488	14043
920.598	14362
920.708	14408
920.818	14305
920.928	14252
921.038	14488
921.148	14427
921.258	14077
921.368	14024
921.477	13868
921.587	13875
921.697	13715
921.806	13879
921.916	13674
922.025	13605
922.134	13533
922.244	13483
922.353	13567
922.462	13506
922.571	13388
922.68	13198
922.789	13133
922.898	13164
923.007	13050
923.116	13183
923.224	13080
923.333	13095
923.442	13023
923.55	13023
923.659	13042
923.767	13076
923.876	12970
923.984	13065
924.092	12833
924.201	12954
924.309	12897
924.417	12852
924.525	12760
924.633	12768
924.741	13597
924.849	12608
924.956	12753
925.064	12616
925.172	12589
925.279	12620
925.387	12673
925.494	12582
925.602	12734
925.709	12749
925.816	12525
925.924	12563
926.031	12627
926.138	12578
926.245	12627
926.352	12369
926.459	12604
926.566	12528
926.673	12486
926.779	12410
926.886	12384
926.993	12235
927.099	12163
927.206	12114
927.312	12220
927.419	12171
927.525	12159
927.631	12235
927.737	12205
927.843	11969
927.95	11931
928.056	12068
928.162	12030
928.267	12076
928.373	12597
928.479	12038
928.585	11916
928.69	11969
928.796	11984
928.901	11908
929.007	11821
929.112	11878
929.218	11946
929.323	11741
929.428	11722
929.533	11923
929.638	11684
929.743	11729
929.848	11710
929.953	11748
930.058	11619
930.163	11429
930.267	11414
930.372	11581
930.477	11398
930.581	11615
930.685	11505
930.79	11288
930.894	11341
930.998	11288
931.103	11459
931.207	11113
931.311	11056
931.415	10854
931.519	10820
931.623	10637
