Data from test_V78500241_3004.txt Node
Date: Fri Mar 25 16:02:36 CST 2022
User: usil
Spectrometer: V785-0024
Trigger mode: 0
Integration Time (sec): 4.000000E-1
Scans to average: 1
Nonlinearity correction enabled: false
Boxcar width: 0
Storing dark spectrum: false
XAxis mode: Wavelengths
Number of Pixels in Spectrum: 1024
>>>>>Begin Spectral Data<<<<<
801.071	28615
801.214	28630
801.356	28291
801.499	28230
801.641	28162
801.783	28280
801.926	28284
802.068	28124
802.211	28128
802.353	28261
802.496	27831
802.638	27964
802.78	27808
802.923	27827
803.065	27732
803.208	27751
803.35	28055
803.492	28063
803.635	28211
803.777	27975
803.919	28116
804.061	28573
804.204	28253
804.346	28025
804.488	28055
804.63	28150
804.773	28143
804.915	28226
805.057	28310
805.199	28211
805.341	28306
805.483	28215
805.626	28173
805.768	28131
805.91	28219
806.052	28280
806.194	28329
806.336	28451
806.478	28188
806.62	28329
806.762	28352
806.904	28592
807.046	28816
807.188	28656
807.33	28603
807.472	28858
807.614	28698
807.756	28797
807.898	28607
808.04	28637
808.182	28588
808.324	28569
808.465	28801
808.607	28736
808.749	28965
808.891	28995
809.033	29128
809.174	28953
809.316	28923
809.458	29064
809.6	28938
809.741	28968
809.883	28965
810.025	29280
810.166	29284
810.308	29212
810.45	29136
810.591	29083
810.733	28873
810.875	29105
811.016	28869
811.158	28866
811.299	29006
811.441	29299
811.582	29231
811.724	28946
811.865	28984
812.007	29140
812.148	29010
812.29	29052
812.431	29280
812.573	29284
812.714	29455
812.855	29543
812.997	29691
813.138	29756
813.279	29680
813.421	29467
813.562	29452
813.703	29387
813.845	29296
813.986	28850
814.127	28793
814.268	28759
814.41	28771
814.551	28622
814.692	28759
814.833	28725
814.974	28504
815.115	28828
815.256	28561
815.397	28474
815.539	28466
815.68	28474
815.821	28451
815.962	28565
816.103	28417
816.244	28394
816.385	28363
816.526	28246
816.666	28124
816.807	27987
816.948	28150
817.089	28002
817.23	28109
817.371	28048
817.512	27895
817.653	27983
817.793	27964
817.934	27968
818.075	27964
818.216	28067
818.356	28032
818.497	27854
818.638	27724
818.778	27816
818.919	27854
819.06	27895
819.2	28029
819.341	27983
819.481	27911
819.622	28036
819.762	28333
819.903	28268
820.043	28268
820.184	28158
820.324	28135
820.465	28246
820.605	28204
820.746	28131
820.886	28040
821.026	28078
821.167	28025
821.307	28185
821.447	28082
821.588	27964
821.728	27800
821.868	27583
822.008	27443
822.149	27572
822.289	27466
822.429	27077
822.569	27138
822.709	27207
822.849	27055
822.99	27024
823.13	27005
823.27	26971
823.41	26921
823.55	26545
823.69	26758
823.83	26868
823.97	26640
824.11	26571
824.25	26613
824.389	26621
824.529	26735
824.669	26621
824.809	26815
824.949	26705
825.089	26743
825.228	26842
825.368	26514
825.508	26564
825.648	26571
825.787	26541
825.927	26636
826.067	26461
826.206	26419
826.346	26514
826.485	26571
826.625	26446
826.765	26651
826.904	26625
827.044	26343
827.183	26225
827.323	26149
827.462	26396
827.601	26252
827.741	26210
827.88	26389
828.02	26130
828.159	26206
828.298	26256
828.437	26290
828.577	26202
828.716	26328
828.855	26149
828.994	25944
829.134	25993
829.273	25887
829.412	25856
829.551	25864
829.69	25871
829.829	25868
829.968	26016
830.107	26111
830.246	25887
830.385	25890
830.524	25845
830.663	25715
830.802	25628
830.941	25499
831.08	25457
831.219	25632
831.357	25715
831.496	25788
831.635	25445
831.774	25457
831.913	25354
832.051	25358
832.19	25202
832.329	25365
832.467	25232
832.606	25152
832.744	25175
832.883	25145
833.022	25053
833.16	25228
833.299	25194
833.437	25304
833.576	25308
833.714	25320
833.852	25324
833.991	25316
834.129	25411
834.267	25464
834.406	25122
834.544	25419
834.682	25278
834.821	25339
834.959	25502
835.097	25213
835.235	25327
835.373	25160
835.511	25266
835.65	25072
835.788	25202
835.926	25034
836.064	24882
836.202	25046
836.34	24989
836.478	25171
836.615	24996
836.753	25156
836.891	25263
837.029	25160
837.167	25046
837.305	25206
837.443	25000
837.58	24947
837.718	25034
837.856	25038
837.993	24916
838.131	24848
838.269	24791
838.406	24867
838.544	24768
838.681	24597
838.819	24464
838.956	24391
839.094	24338
839.231	24441
839.369	24601
839.506	24787
839.643	24665
839.781	24498
839.918	24243
840.055	24464
840.193	24357
840.33	24395
840.467	24338
840.604	24342
840.742	24654
840.879	24224
841.016	24323
841.153	24171
841.29	24399
841.427	24266
841.564	24384
841.701	24315
841.838	24178
841.975	24140
842.112	24159
842.249	24049
842.385	24079
842.522	24251
842.659	24053
842.796	24045
842.933	24079
843.069	24049
843.206	23904
843.343	24095
843.479	24022
843.616	24133
843.752	23813
843.889	23756
844.025	23980
844.162	23908
844.298	23851
844.435	23847
844.571	23847
844.708	23851
844.844	24011
844.98	24007
845.117	23882
845.253	23771
845.389	23680
845.525	23665
845.661	23611
845.798	23638
845.934	23741
846.07	23627
846.206	23653
846.342	23859
846.478	23467
846.614	23341
846.75	23250
846.886	23261
847.022	23311
847.158	23246
847.294	23360
847.429	23250
847.565	23174
847.701	23512
847.837	22927
847.972	23037
848.108	23003
848.244	23025
848.379	22953
848.515	22930
848.65	22984
848.786	22790
848.921	22843
849.057	22896
849.192	22976
849.328	22904
849.463	22877
849.598	22873
849.734	22850
849.869	22729
850.004	22588
850.14	22771
850.275	22790
850.41	22531
850.545	22538
850.68	22580
850.815	22698
850.95	22607
851.085	22687
851.22	22782
851.355	22694
851.49	22611
851.625	22550
851.76	22599
851.895	22508
852.03	22459
852.165	22637
852.299	22618
852.434	22675
852.569	22561
852.703	22691
852.838	22885
852.973	22687
853.107	22736
853.242	22615
853.376	22504
853.511	22428
853.645	22466
853.78	22546
853.914	22451
854.048	22481
854.183	22417
854.317	22557
854.451	22752
854.585	22474
854.72	22424
854.854	22531
854.988	22436
855.122	22440
855.256	22344
855.39	22440
855.524	22596
855.658	22497
855.792	22516
855.926	22489
856.06	22588
856.194	22478
856.327	22508
856.461	22455
856.595	22424
856.729	22440
856.862	22672
856.996	22497
857.13	22485
857.263	22497
857.397	22538
857.53	22436
857.664	22462
857.797	22599
857.931	22626
858.064	22375
858.197	22508
858.331	22333
858.464	22295
858.597	22424
858.731	22478
858.864	22440
858.997	22344
859.13	22489
859.263	22519
859.396	22466
859.529	22493
859.662	22314
859.795	22500
859.928	22535
860.061	22683
860.194	22618
860.327	22603
860.46	22394
860.592	22615
860.725	22577
860.858	22592
860.99	22561
861.123	22390
861.256	22402
861.388	22481
861.521	23223
861.653	22287
861.786	22272
861.918	22325
862.05	22363
862.183	22333
862.315	22333
862.447	22341
862.58	22459
862.712	22181
862.844	22109
862.976	22386
863.108	22310
863.24	22508
863.372	22082
863.504	22135
863.636	22128
863.768	22135
863.9	22090
864.032	22086
864.164	22154
864.296	22219
864.428	22261
864.559	22329
864.691	22276
864.823	22230
864.954	22139
865.086	22086
865.217	22044
865.349	22002
865.48	22029
865.612	22044
865.743	22116
865.875	22070
866.006	22086
866.137	22006
866.269	21953
866.4	21983
866.531	22070
866.662	21861
866.793	21960
866.924	21987
867.055	21979
867.186	21953
867.317	21972
867.448	21850
867.579	21770
867.71	21869
867.841	21960
867.972	21964
868.103	21876
868.233	22010
868.364	22021
868.495	22070
868.625	22341
868.756	22265
868.886	22074
869.017	22181
869.147	22333
869.278	22325
869.408	22177
869.539	22207
869.669	22295
869.799	22272
869.929	22314
870.06	22303
870.19	22360
870.32	22516
870.45	22512
870.58	22485
870.71	22721
870.84	22649
870.97	22626
871.1	22531
871.23	22816
871.36	22908
871.489	22812
871.619	22793
871.749	22858
871.879	22835
872.008	22904
872.138	22763
872.267	22858
872.397	22824
872.526	22645
872.656	22687
872.785	22580
872.915	22763
873.044	22953
873.173	22797
873.303	22961
873.432	22942
873.561	22923
873.69	22930
873.819	22797
873.948	22953
874.077	22786
874.206	22801
874.335	22885
874.464	22995
874.593	23037
874.722	23098
874.851	23105
874.979	23044
875.108	23124
875.237	23071
875.365	22915
875.494	23014
875.623	23037
875.751	22904
875.88	23083
876.008	23322
876.136	23220
876.265	23505
876.393	23463
876.521	23474
876.65	23539
876.778	23372
876.906	23326
877.034	23345
877.162	23368
877.29	23406
877.418	23459
877.546	23467
877.674	23414
877.802	23501
877.93	23429
878.058	23292
878.185	23170
878.313	23379
878.441	23368
878.568	23258
878.696	23307
878.824	23387
878.951	23421
879.079	23638
879.206	23585
879.333	23459
879.461	23509
879.588	23630
879.715	23425
879.842	23695
879.97	23467
880.097	23277
880.224	23170
880.351	23296
880.478	23181
880.605	23159
880.732	23288
880.859	23444
880.986	23200
881.112	23242
881.239	23132
881.366	22908
881.493	22930
881.619	22774
881.746	22873
881.872	22698
881.999	22744
882.125	22653
882.252	22786
882.378	22691
882.505	22820
882.631	22664
882.757	22489
882.883	22569
883.01	22538
883.136	22478
883.262	22363
883.388	22303
883.514	22459
883.64	22516
883.766	22421
883.892	22188
884.018	22295
884.143	22451
884.269	22500
884.395	22086
884.52	22032
884.646	22112
884.772	22093
884.897	22010
885.023	22074
885.148	22078
885.274	22188
885.399	22188
885.524	22021
885.65	22017
885.775	22109
885.9	22063
886.025	22185
886.15	22207
886.275	22128
886.4	21968
886.525	22154
886.65	21964
886.775	22032
886.9	22154
887.025	22219
887.149	22078
887.274	21831
887.399	21903
887.523	21854
887.648	21793
887.773	21705
887.897	21827
888.021	21762
888.146	21724
888.27	22101
888.395	21960
888.519	21884
888.643	21880
888.767	21911
888.891	21720
889.015	21625
889.139	21686
889.263	21538
889.387	21564
889.511	21850
889.635	21694
889.759	21534
889.883	21564
890.006	21618
890.13	21701
890.254	21496
890.377	21595
890.501	21424
890.624	21313
890.748	21378
890.871	21428
890.995	21184
891.118	21100
891.241	21268
891.364	21214
891.488	21294
891.611	21058
891.734	21123
891.857	21112
891.98	21237
892.103	21127
892.226	21131
892.349	21214
892.471	20891
892.594	21176
892.717	21150
892.839	21093
892.962	21123
893.085	21119
893.207	21020
893.33	20918
893.452	21009
893.575	21203
893.697	21165
893.819	21256
893.941	21249
894.064	21222
894.186	20994
894.308	20754
894.43	21142
894.552	21241
894.674	21268
894.796	20967
894.918	20986
895.04	21070
895.161	21020
895.283	21085
895.405	20960
895.526	21116
895.648	20998
895.769	21043
895.891	21085
896.012	21176
896.134	21036
896.255	21112
896.376	20941
896.498	21024
896.619	21036
896.74	21047
896.861	21093
896.982	21367
897.103	21439
897.224	21336
897.345	21302
897.466	21135
897.587	21260
897.708	21431
897.828	21428
897.949	21150
898.07	21051
898.19	21211
898.311	21249
898.431	21192
898.552	21249
898.672	21355
898.792	21378
898.913	21298
899.033	21176
899.153	21135
899.273	20990
899.393	21032
899.513	21066
899.633	20944
899.753	21028
899.873	20830
899.993	21058
900.113	21047
900.232	21032
900.352	20979
900.472	20834
900.591	20781
900.711	20800
900.83	20686
900.95	20796
901.069	20811
901.189	20632
901.308	20480
901.427	20404
901.546	20423
901.665	20362
901.784	20366
901.904	20103
902.023	20164
902.141	19871
902.26	19860
902.379	19883
902.498	19852
902.617	19772
902.735	19856
902.854	19738
902.973	19795
903.091	19521
903.21	19480
903.328	19396
903.446	19388
903.565	19320
903.683	19263
903.801	19099
903.919	19225
904.038	19217
904.156	19046
904.274	19129
904.392	18981
904.51	19023
904.627	18947
904.745	18985
904.863	19004
904.981	18844
905.098	18764
905.216	18730
905.334	18726
905.451	18783
905.569	18753
905.686	18837
905.803	18719
905.921	18532
906.038	18570
906.155	18490
906.272	18395
906.389	18414
906.506	18285
906.623	18300
906.74	18228
906.857	18087
906.974	18205
907.091	18251
907.208	18395
907.324	18232
907.441	18171
907.557	17958
907.674	17984
907.79	17851
907.907	17904
908.023	17923
908.139	17939
908.256	17950
908.372	17813
908.488	17745
908.604	17672
908.72	17577
908.836	17680
908.952	17573
909.068	17581
909.184	17786
909.3	17676
909.415	17634
909.531	17581
909.647	17379
909.762	17292
909.878	17440
909.993	17391
910.108	17242
910.224	17220
910.339	17277
910.454	17128
910.57	17029
910.685	17037
910.8	17345
910.915	17258
911.03	17079
911.145	16839
911.259	16934
911.374	16927
911.489	16915
911.604	16812
911.718	16599
911.833	16717
911.947	16561
912.062	16516
912.176	16721
912.291	16672
912.405	16748
912.519	16919
912.633	16885
912.748	16668
912.862	16675
912.976	16599
913.09	16394
913.204	16394
913.318	16459
913.431	16607
913.545	16481
913.659	16546
913.772	16329
913.886	16268
914	16257
914.113	16272
914.226	16333
914.34	16287
914.453	16162
914.566	16325
914.68	16238
914.793	16147
914.906	15975
915.019	15831
915.132	15846
915.245	15926
915.358	15880
915.47	15915
915.583	15823
915.696	15907
915.809	15983
915.921	15968
916.034	15812
916.146	15701
916.259	15728
916.371	15762
916.483	15800
916.595	15564
916.708	15698
916.82	15629
916.932	15625
917.044	15682
917.156	15545
917.268	15492
917.38	15523
917.491	15488
917.603	15580
917.715	15542
917.826	15462
917.938	15370
918.049	15249
918.161	15344
918.272	15538
918.384	15549
918.495	15359
918.606	15325
918.717	15184
918.828	15272
918.939	15268
919.05	15077
919.161	15211
919.272	15013
919.383	15077
919.494	15218
919.604	15359
919.715	15180
919.826	15066
919.936	15176
920.047	15260
920.157	15218
920.267	15329
920.378	15154
920.488	15119
920.598	15332
920.708	15511
920.818	15298
920.928	15230
921.038	15439
921.148	15348
921.258	15142
921.368	14960
921.477	14902
921.587	14910
921.697	14826
921.806	14838
921.916	14750
922.025	14526
922.134	14533
922.244	14507
922.353	14526
922.462	14473
922.571	14290
922.68	14187
922.789	14164
922.898	14195
923.007	14142
923.116	14145
923.224	14123
923.333	14176
923.442	13970
923.55	14062
923.659	13986
923.767	14027
923.876	13925
923.984	13997
924.092	13875
924.201	13974
924.309	13909
924.417	13788
924.525	13719
924.633	13784
924.741	14560
924.849	13712
924.956	13723
925.064	13540
925.172	13499
925.279	13540
925.387	13605
925.494	13392
925.602	13647
925.709	13666
925.816	13373
925.924	13495
926.031	13468
926.138	13468
926.245	13521
926.352	13373
926.459	13518
926.566	13468
926.673	13369
926.779	13377
926.886	13190
926.993	13069
927.099	13145
927.206	13099
927.312	13023
927.419	13137
927.525	12993
927.631	13107
927.737	12966
927.843	12935
927.95	12852
928.056	12924
928.162	12905
928.267	12943
928.373	13597
928.479	12886
928.585	12738
928.69	12916
928.796	13012
928.901	12795
929.007	12604
929.112	12719
929.218	12688
929.323	12669
929.428	12639
929.533	12662
929.638	12559
929.743	12506
929.848	12528
929.953	12532
930.058	12429
930.163	12399
930.267	12330
930.372	12452
930.477	12247
930.581	12506
930.685	12330
930.79	12167
930.894	12205
930.998	12068
931.103	12277
931.207	11851
931.311	11855
931.415	11775
931.519	11596
931.623	11512
