Data from test_V78500241_1182.txt Node
Date: Fri Mar 25 15:49:59 CST 2022
User: usil
Spectrometer: V785-0024
Trigger mode: 0
Integration Time (sec): 4.000000E-1
Scans to average: 1
Nonlinearity correction enabled: false
Boxcar width: 0
Storing dark spectrum: false
XAxis mode: Wavelengths
Number of Pixels in Spectrum: 1024
>>>>>Begin Spectral Data<<<<<
801.071	28687
801.214	28618
801.356	28341
801.499	28185
801.641	28249
801.783	28116
801.926	28249
802.068	28150
802.211	28116
802.353	27994
802.496	27880
802.638	27941
802.78	27774
802.923	27709
803.065	27751
803.208	27812
803.35	27865
803.492	27899
803.635	28006
803.777	27899
803.919	28017
804.061	28303
804.204	28055
804.346	28109
804.488	28036
804.63	28032
804.773	28002
804.915	28101
805.057	28249
805.199	27975
805.341	28120
805.483	28204
805.626	28177
805.768	28036
805.91	28166
806.052	28291
806.194	28097
806.336	28474
806.478	28265
806.62	28344
806.762	28333
806.904	28649
807.046	28774
807.188	28767
807.33	28691
807.472	28725
807.614	28698
807.756	28637
807.898	28519
808.04	28618
808.182	28443
808.324	28649
808.465	28596
808.607	28828
808.749	28934
808.891	28858
809.033	29128
809.174	28957
809.316	29022
809.458	28786
809.6	29060
809.741	29044
809.883	29105
810.025	29208
810.166	29231
810.308	29307
810.45	29227
810.591	29147
810.733	28995
810.875	28930
811.016	28812
811.158	28984
811.299	28938
811.441	29189
811.582	29185
811.724	28953
811.865	28869
812.007	28881
812.148	29109
812.29	29056
812.431	29151
812.573	29356
812.714	29395
812.855	29562
812.997	29474
813.138	29790
813.279	29748
813.421	29581
813.562	29368
813.703	29410
813.845	29239
813.986	28911
814.127	28828
814.268	28748
814.41	28664
814.551	28653
814.692	28641
814.833	28565
814.974	28698
815.115	28672
815.256	28637
815.397	28447
815.539	28557
815.68	28398
815.821	28512
815.962	28554
816.103	28497
816.244	28284
816.385	28200
816.526	28253
816.666	28105
816.807	27968
816.948	27956
817.089	28177
817.23	28044
817.371	27979
817.512	28032
817.653	28067
817.793	27983
817.934	27968
818.075	27983
818.216	27979
818.356	27713
818.497	27846
818.638	27701
818.778	27812
818.919	27747
819.06	27854
819.2	27941
819.341	27926
819.481	27831
819.622	28097
819.762	28291
819.903	28382
820.043	28181
820.184	28131
820.324	28135
820.465	28219
820.605	28010
820.746	28090
820.886	28036
821.026	28017
821.167	28147
821.307	28158
821.447	27907
821.588	27857
821.728	27831
821.868	27656
822.008	27504
822.149	27500
822.289	27542
822.429	27119
822.569	27241
822.709	27131
822.849	27093
822.99	26918
823.13	26899
823.27	27001
823.41	26773
823.55	26651
823.69	26765
823.83	26804
823.97	26746
824.11	26697
824.25	26632
824.389	26613
824.529	26716
824.669	26678
824.809	26857
824.949	26705
825.089	26819
825.228	26826
825.368	26469
825.508	26415
825.648	26503
825.787	26545
825.927	26492
826.067	26526
826.206	26594
826.346	26659
826.485	26465
826.625	26374
826.765	26537
826.904	26507
827.044	26427
827.183	26138
827.323	26183
827.462	26259
827.601	26229
827.741	26290
827.88	26225
828.02	26168
828.159	26153
828.298	26320
828.437	26168
828.577	26134
828.716	26404
828.855	26130
828.994	25898
829.134	25925
829.273	25917
829.412	25811
829.551	25750
829.69	26020
829.829	25947
829.968	26008
830.107	25921
830.246	25928
830.385	25887
830.524	25860
830.663	25685
830.802	25571
830.941	25590
831.08	25487
831.219	25578
831.357	25609
831.496	25761
831.635	25476
831.774	25464
831.913	25479
832.051	25415
832.19	25270
832.329	25362
832.467	25255
832.606	25240
832.744	25027
832.883	25198
833.022	25202
833.16	25145
833.299	25308
833.437	25312
833.576	25358
833.714	25244
833.852	25282
833.991	25285
834.129	25350
834.267	25331
834.406	25240
834.544	25289
834.682	25285
834.821	25228
834.959	25476
835.097	25175
835.235	25247
835.373	25301
835.511	25301
835.65	25103
835.788	25137
835.926	25057
836.064	24875
836.202	24894
836.34	25015
836.478	25091
836.615	25061
836.753	25012
836.891	25103
837.029	25156
837.167	24989
837.305	24932
837.443	25015
837.58	24947
837.718	24958
837.856	24951
837.993	24852
838.131	24924
838.269	24787
838.406	24802
838.544	24700
838.681	24517
838.819	24467
838.956	24403
839.094	24319
839.231	24334
839.369	24486
839.506	24741
839.643	24528
839.781	24292
839.918	24361
840.055	24365
840.193	24334
840.33	24277
840.467	24197
840.604	24315
840.742	24517
840.879	24144
841.016	24053
841.153	24152
841.29	24475
841.427	24277
841.564	24270
841.701	24330
841.838	24159
841.975	24201
842.112	24167
842.249	24190
842.385	24068
842.522	24159
842.659	24136
842.796	24038
842.933	24022
843.069	23969
843.206	23939
843.343	24102
843.479	24015
843.616	24053
843.752	23718
843.889	23752
844.025	23893
844.162	23874
844.298	23859
844.435	23729
844.571	23767
844.708	23923
844.844	23935
844.98	23946
845.117	23866
845.253	23653
845.389	23627
845.525	23733
845.661	23668
845.798	23448
845.934	23570
846.07	23478
846.206	23619
846.342	23619
846.478	23630
846.614	23220
846.75	23258
846.886	23250
847.022	23273
847.158	23220
847.294	23258
847.429	23200
847.565	23174
847.701	23402
847.837	22961
847.972	22805
848.108	23086
848.244	23178
848.379	22984
848.515	22919
848.65	22839
848.786	22873
848.921	22771
849.057	23018
849.192	22942
849.328	22949
849.463	22805
849.598	22896
849.734	22588
849.869	22748
850.004	22622
850.14	22550
850.275	22634
850.41	22417
850.545	22603
850.68	22519
850.815	22710
850.95	22607
851.085	22809
851.22	22683
851.355	22664
851.49	22611
851.625	22649
851.76	22618
851.895	22607
852.03	22478
852.165	22603
852.299	22694
852.434	22615
852.569	22664
852.703	22523
852.838	22767
852.973	22725
853.107	22660
853.242	22557
853.376	22348
853.511	22455
853.645	22394
853.78	22455
853.914	22512
854.048	22306
854.183	22394
854.317	22417
854.451	22580
854.585	22428
854.72	22386
854.854	22512
854.988	22489
855.122	22516
855.256	22352
855.39	22344
855.524	22352
855.658	22512
855.792	22386
855.926	22352
856.06	22265
856.194	22603
856.327	22390
856.461	22314
856.595	22303
856.729	22371
856.862	22405
856.996	22352
857.13	22527
857.263	22474
857.397	22516
857.53	22352
857.664	22554
857.797	22470
857.931	22432
858.064	22447
858.197	22470
858.331	22497
858.464	22337
858.597	22367
858.731	22348
858.864	22417
858.997	22375
859.13	22379
859.263	22375
859.396	22489
859.529	22329
859.662	22329
859.795	22455
859.928	22447
860.061	22630
860.194	22592
860.327	22535
860.46	22333
860.592	22691
860.725	22497
860.858	22489
860.99	22402
861.123	22447
861.256	22261
861.388	22455
861.521	23166
861.653	22341
861.786	22166
861.918	22242
862.05	22196
862.183	22341
862.315	22333
862.447	22371
862.58	22398
862.712	22067
862.844	22128
862.976	22291
863.108	22284
863.24	22569
863.372	22086
863.504	22112
863.636	22196
863.768	22120
863.9	22169
864.032	22093
864.164	22090
864.296	22086
864.428	22211
864.559	22238
864.691	22181
864.823	22109
864.954	22135
865.086	22158
865.217	22059
865.349	22017
865.48	22017
865.612	22109
865.743	22116
865.875	21945
866.006	22021
866.137	22166
866.269	22010
866.4	21960
866.531	22032
866.662	21994
866.793	21888
866.924	21983
867.055	21956
867.186	21899
867.317	21956
867.448	21892
867.579	21998
867.71	21842
867.841	21922
867.972	21960
868.103	22013
868.233	21873
868.364	21907
868.495	21998
868.625	22097
868.756	22207
868.886	22044
869.017	22109
869.147	22226
869.278	22303
869.408	22280
869.539	22162
869.669	22177
869.799	22135
869.929	22265
870.06	22356
870.19	22440
870.32	22573
870.45	22512
870.58	22523
870.71	22710
870.84	22641
870.97	22649
871.1	22478
871.23	22713
871.36	22790
871.489	22683
871.619	22774
871.749	22805
871.879	22778
872.008	22915
872.138	22805
872.267	22847
872.397	22664
872.526	22660
872.656	22630
872.785	22672
872.915	22797
873.044	23010
873.173	22858
873.303	22873
873.432	22911
873.561	22938
873.69	22797
873.819	22778
873.948	22972
874.077	22828
874.206	22733
874.335	22850
874.464	22824
874.593	23086
874.722	22911
874.851	23033
874.979	23098
875.108	22980
875.237	22946
875.365	22889
875.494	22942
875.623	23159
875.751	22976
875.88	23124
876.008	23220
876.136	23200
876.265	23429
876.393	23562
876.521	23440
876.65	23467
876.778	23512
876.906	23395
877.034	23337
877.162	23318
877.29	23200
877.418	23356
877.546	23417
877.674	23261
877.802	23353
877.93	23334
878.058	23250
878.185	23239
878.313	23220
878.441	23265
878.568	23277
878.696	23239
878.824	23440
878.951	23436
879.079	23501
879.206	23630
879.333	23558
879.461	23391
879.588	23376
879.715	23535
879.842	23547
879.97	23387
880.097	23261
880.224	23242
880.351	23174
880.478	23056
880.605	23064
880.732	23121
880.859	23452
880.986	23235
881.112	23136
881.239	23025
881.366	22896
881.493	22824
881.619	22687
881.746	22831
881.872	22809
881.999	22733
882.125	22717
882.252	22729
882.378	22672
882.505	22839
882.631	22599
882.757	22474
882.883	22535
883.01	22531
883.136	22379
883.262	22455
883.388	22139
883.514	22436
883.64	22421
883.766	22322
883.892	22230
884.018	22230
884.143	22402
884.269	22405
884.395	22063
884.52	22105
884.646	22078
884.772	22078
884.897	21892
885.023	22090
885.148	21968
885.274	22200
885.399	22131
885.524	22086
885.65	22044
885.775	22010
885.9	21972
886.025	22116
886.15	22070
886.275	21987
886.4	21979
886.525	22021
886.65	21975
886.775	21937
886.9	22276
887.025	22150
887.149	21930
887.274	21823
887.399	21869
887.523	21838
887.648	21804
887.773	21690
887.897	21835
888.021	21705
888.146	21800
888.27	21972
888.395	21922
888.519	21922
888.643	21819
888.767	21835
888.891	21720
889.015	21564
889.139	21747
889.263	21485
889.387	21698
889.511	21755
889.635	21751
889.759	21606
889.883	21534
890.006	21542
890.13	21625
890.254	21458
890.377	21542
890.501	21275
890.624	21279
890.748	21378
890.871	21260
890.995	21195
891.118	21081
891.241	21119
891.364	21222
891.488	21233
891.611	21013
891.734	21173
891.857	21207
891.98	21180
892.103	21169
892.226	21199
892.349	20975
892.471	20944
892.594	21085
892.717	21085
892.839	21047
892.962	21104
893.085	21001
893.207	20960
893.33	20746
893.452	20925
893.575	21013
893.697	21020
893.819	21146
893.941	21260
894.064	21112
894.186	20910
894.308	20929
894.43	21157
894.552	21310
894.674	21112
894.796	20914
894.918	21051
895.04	20998
895.161	21028
895.283	21036
895.405	20990
895.526	21062
895.648	21036
895.769	20998
895.891	21127
896.012	21077
896.134	21116
896.255	21058
896.376	21020
896.498	20963
896.619	20998
896.74	21047
896.861	21100
896.982	21355
897.103	21428
897.224	21260
897.345	21302
897.466	21142
897.587	21222
897.708	21351
897.828	21298
897.949	21138
898.07	21051
898.19	21062
898.311	21272
898.431	21138
898.552	21195
898.672	21256
898.792	21283
898.913	21180
899.033	21062
899.153	21169
899.273	20990
899.393	21009
899.513	21039
899.633	20971
899.753	21116
899.873	20910
899.993	21047
900.113	20777
900.232	20910
900.352	20769
900.472	20758
900.591	20701
900.711	20758
900.83	20590
900.95	20777
901.069	20697
901.189	20670
901.308	20400
901.427	20278
901.546	20259
901.665	20237
901.784	20332
901.904	20202
902.023	20043
902.141	19822
902.26	19795
902.379	19864
902.498	19708
902.617	19772
902.735	19856
902.854	19830
902.973	19696
903.091	19384
903.21	19464
903.328	19453
903.446	19304
903.565	19202
903.683	19285
903.801	19198
903.919	19179
904.038	19175
904.156	19000
904.274	18939
904.392	19050
904.51	19008
904.627	18966
904.745	19069
904.863	19110
904.981	18768
905.098	18658
905.216	18711
905.334	18764
905.451	18722
905.569	18665
905.686	18753
905.803	18661
905.921	18532
906.038	18540
906.155	18521
906.272	18289
906.389	18361
906.506	18174
906.623	18167
906.74	18167
906.857	18121
906.974	18155
907.091	18125
907.208	18311
907.324	18285
907.441	18060
907.557	17954
907.674	17912
907.79	17783
907.907	17885
908.023	17977
908.139	17863
908.256	17832
908.372	17805
908.488	17646
908.604	17661
908.72	17619
908.836	17630
908.952	17638
909.068	17551
909.184	17707
909.3	17611
909.415	17676
909.531	17653
909.647	17337
909.762	17345
909.878	17299
909.993	17318
910.108	17231
910.224	17273
910.339	17341
910.454	17166
910.57	17109
910.685	17113
910.8	17341
910.915	17242
911.03	17109
911.145	16759
911.259	16904
911.374	16896
911.489	16862
911.604	16744
911.718	16493
911.833	16679
911.947	16546
912.062	16516
912.176	16607
912.291	16706
912.405	16733
912.519	16839
912.633	16835
912.748	16630
912.862	16634
912.976	16478
913.09	16352
913.204	16432
913.318	16352
913.431	16584
913.545	16421
913.659	16596
913.772	16474
913.886	16253
914	16112
914.113	16215
914.226	16249
914.34	16257
914.453	16204
914.566	16234
914.68	16093
914.793	16055
914.906	15888
915.019	15838
915.132	15747
915.245	15907
915.358	15819
915.47	15831
915.583	15865
915.696	15968
915.809	15998
915.921	16025
916.034	15812
916.146	15808
916.259	15663
916.371	15781
916.483	15835
916.595	15656
916.708	15667
916.82	15660
916.932	15644
917.044	15561
917.156	15526
917.268	15534
917.38	15458
917.491	15428
917.603	15412
917.715	15652
917.826	15492
917.938	15431
918.049	15317
918.161	15351
918.272	15587
918.384	15466
918.495	15348
918.606	15245
918.717	15150
918.828	15207
918.939	15298
919.05	15062
919.161	15150
919.272	14986
919.383	15123
919.494	15283
919.604	15469
919.715	15070
919.826	15077
919.936	15089
920.047	15264
920.157	15157
920.267	15275
920.378	15180
920.488	15169
920.598	15260
920.708	15424
920.818	15237
920.928	15214
921.038	15420
921.148	15230
921.258	15070
921.368	15032
921.477	14948
921.587	14807
921.697	14754
921.806	14792
921.916	14659
922.025	14522
922.134	14590
922.244	14438
922.353	14522
922.462	14396
922.571	14256
922.68	14119
922.789	14103
922.898	14263
923.007	14126
923.116	14229
923.224	14172
923.333	14054
923.442	13993
923.55	13986
923.659	13986
923.767	14039
923.876	13868
923.984	13898
924.092	13883
924.201	13784
924.309	13860
924.417	13875
924.525	13681
924.633	13765
924.741	14590
924.849	13563
924.956	13704
925.064	13533
925.172	13449
925.279	13403
925.387	13510
925.494	13571
925.602	13578
925.709	13594
925.816	13415
925.924	13457
926.031	13514
926.138	13407
926.245	13483
926.352	13369
926.459	13499
926.566	13529
926.673	13301
926.779	13255
926.886	13285
926.993	13122
927.099	13069
927.206	13015
927.312	13027
927.419	13099
927.525	12996
927.631	13061
927.737	12951
927.843	12886
927.95	12730
928.056	12890
928.162	12871
928.267	12920
928.373	13468
928.479	12985
928.585	12738
928.69	12970
928.796	12924
928.901	12681
929.007	12559
929.112	12730
929.218	12654
929.323	12662
929.428	12593
929.533	12757
929.638	12471
929.743	12593
929.848	12574
929.953	12544
930.058	12433
930.163	12228
930.267	12296
930.372	12410
930.477	12262
930.581	12384
930.685	12369
930.79	12152
930.894	12197
930.998	12095
931.103	12209
931.207	11908
931.311	11912
931.415	11783
931.519	11623
931.623	11562
