Data from test_V78500241_1053.txt Node
Date: Fri Mar 25 15:49:05 CST 2022
User: usil
Spectrometer: V785-0024
Trigger mode: 0
Integration Time (sec): 4.000000E-1
Scans to average: 1
Nonlinearity correction enabled: false
Boxcar width: 0
Storing dark spectrum: false
XAxis mode: Wavelengths
Number of Pixels in Spectrum: 1024
>>>>>Begin Spectral Data<<<<<
801.071	28615
801.214	28447
801.356	28348
801.499	28230
801.641	28124
801.783	28040
801.926	28284
802.068	28109
802.211	28109
802.353	28074
802.496	27914
802.638	27717
802.78	27819
802.923	27732
803.065	27694
803.208	27880
803.35	27857
803.492	27854
803.635	27937
803.777	27918
803.919	28169
804.061	28207
804.204	28204
804.346	28025
804.488	27914
804.63	28029
804.773	27865
804.915	28116
805.057	28223
805.199	27994
805.341	28242
805.483	28246
805.626	28093
805.768	28116
805.91	28238
806.052	28177
806.194	28188
806.336	28341
806.478	28154
806.62	28299
806.762	28401
806.904	28611
807.046	28835
807.188	28729
807.33	28755
807.472	28733
807.614	28592
807.756	28596
807.898	28588
808.04	28443
808.182	28523
808.324	28645
808.465	28573
808.607	28835
808.749	28927
808.891	29033
809.033	29090
809.174	28972
809.316	28797
809.458	28877
809.6	28809
809.741	29014
809.883	29052
810.025	29220
810.166	29273
810.308	29353
810.45	29258
810.591	29334
810.733	29014
810.875	28923
811.016	28927
811.158	28923
811.299	29056
811.441	29296
811.582	29140
811.724	28915
811.865	28961
812.007	28957
812.148	28908
812.29	29022
812.431	29166
812.573	29349
812.714	29353
812.855	29680
812.997	29551
813.138	29623
813.279	29676
813.421	29558
813.562	29486
813.703	29356
813.845	29204
813.986	29025
814.127	28733
814.268	28550
814.41	28835
814.551	28664
814.692	28790
814.833	28744
814.974	28649
815.115	28721
815.256	28466
815.397	28554
815.539	28618
815.68	28428
815.821	28451
815.962	28382
816.103	28424
816.244	28466
816.385	28306
816.526	28230
816.666	28029
816.807	27994
816.948	28109
817.089	28158
817.23	28048
817.371	27979
817.512	28032
817.653	27964
817.793	28002
817.934	28021
818.075	28086
818.216	28128
818.356	28109
818.497	27846
818.638	27930
818.778	27751
818.919	27766
819.06	27899
819.2	27907
819.341	27949
819.481	27998
819.622	28109
819.762	28356
819.903	28310
820.043	28249
820.184	28002
820.324	28063
820.465	28253
820.605	28116
820.746	28166
820.886	28048
821.026	28135
821.167	28101
821.307	28173
821.447	28017
821.588	27968
821.728	27842
821.868	27580
822.008	27599
822.149	27656
822.289	27542
822.429	27374
822.569	27100
822.709	27112
822.849	26963
822.99	26994
823.13	27093
823.27	27077
823.41	26842
823.55	26781
823.69	26861
823.83	26765
823.97	26826
824.11	26465
824.25	26533
824.389	26765
824.529	26708
824.669	26609
824.809	26735
824.949	26800
825.089	26735
825.228	26590
825.368	26343
825.508	26617
825.648	26583
825.787	26564
825.927	26541
826.067	26533
826.206	26545
826.346	26663
826.485	26602
826.625	26621
826.765	26724
826.904	26533
827.044	26240
827.183	26332
827.323	26149
827.462	26381
827.601	26290
827.741	26259
827.88	26328
828.02	26187
828.159	26214
828.298	26370
828.437	26218
828.577	26134
828.716	26278
828.855	26126
828.994	25864
829.134	25917
829.273	25833
829.412	25765
829.551	25898
829.69	25997
829.829	25970
829.968	26111
830.107	26039
830.246	25909
830.385	25906
830.524	25826
830.663	25761
830.802	25746
830.941	25575
831.08	25514
831.219	25681
831.357	25666
831.496	25799
831.635	25613
831.774	25403
831.913	25388
832.051	25263
832.19	25483
832.329	25403
832.467	25187
832.606	25247
832.744	25171
832.883	25274
833.022	25228
833.16	25285
833.299	25179
833.437	25324
833.576	25384
833.714	25270
833.852	25331
833.991	25350
834.129	25403
834.267	25266
834.406	25316
834.544	25316
834.682	25483
834.821	25266
834.959	25537
835.097	25133
835.235	25263
835.373	25244
835.511	25232
835.65	25015
835.788	25209
835.926	24958
836.064	24970
836.202	24932
836.34	24970
836.478	25240
836.615	25031
836.753	25152
836.891	25148
837.029	25236
837.167	24992
837.305	24977
837.443	24951
837.58	24859
837.718	24996
837.856	24932
837.993	24920
838.131	24897
838.269	24814
838.406	24791
838.544	24791
838.681	24646
838.819	24498
838.956	24388
839.094	24365
839.231	24327
839.369	24551
839.506	24776
839.643	24646
839.781	24509
839.918	24182
840.055	24388
840.193	24353
840.33	24235
840.467	24216
840.604	24410
840.742	24521
840.879	24201
841.016	24350
841.153	24190
841.29	24311
841.427	24369
841.564	24361
841.701	24273
841.838	24228
841.975	24201
842.112	24342
842.249	24174
842.385	24216
842.522	24281
842.659	24174
842.796	24003
842.933	24030
843.069	23992
843.206	23904
843.343	24136
843.479	23935
843.616	24060
843.752	23836
843.889	23832
844.025	23927
844.162	23809
844.298	23920
844.435	23668
844.571	23817
844.708	23863
844.844	23973
844.98	23847
845.117	23847
845.253	23832
845.389	23710
845.525	23646
845.661	23722
845.798	23497
845.934	23551
846.07	23646
846.206	23596
846.342	23680
846.478	23592
846.614	23364
846.75	23330
846.886	23299
847.022	23376
847.158	23246
847.294	23296
847.429	23299
847.565	23109
847.701	23501
847.837	23003
847.972	22968
848.108	23254
848.244	23018
848.379	22847
848.515	22793
848.65	22774
848.786	22877
848.921	22885
849.057	22927
849.192	22919
849.328	22881
849.463	22892
849.598	22831
849.734	22797
849.869	22713
850.004	22523
850.14	22599
850.275	22672
850.41	22546
850.545	22508
850.68	22615
850.815	22805
850.95	22497
851.085	22805
851.22	22702
851.355	22634
851.49	22577
851.625	22618
851.76	22512
851.895	22653
852.03	22466
852.165	22599
852.299	22645
852.434	22664
852.569	22675
852.703	22508
852.838	22618
852.973	22687
853.107	22778
853.242	22588
853.376	22432
853.511	22382
853.645	22413
853.78	22531
853.914	22485
854.048	22398
854.183	22413
854.317	22573
854.451	22599
854.585	22382
854.72	22497
854.854	22356
854.988	22409
855.122	22462
855.256	22291
855.39	22344
855.524	22519
855.658	22462
855.792	22538
855.926	22478
856.06	22402
856.194	22546
856.327	22519
856.461	22337
856.595	22440
856.729	22462
856.862	22474
856.996	22527
857.13	22535
857.263	22630
857.397	22512
857.53	22375
857.664	22531
857.797	22424
857.931	22428
858.064	22508
858.197	22687
858.331	22352
858.464	22356
858.597	22272
858.731	22363
858.864	22447
858.997	22474
859.13	22352
859.263	22405
859.396	22512
859.529	22527
859.662	22459
859.795	22462
859.928	22447
860.061	22554
860.194	22554
860.327	22550
860.46	22474
860.592	22500
860.725	22565
860.858	22519
860.99	22512
861.123	22356
861.256	22432
861.388	22474
861.521	23239
861.653	22405
861.786	22169
861.918	22249
862.05	22344
862.183	22272
862.315	22348
862.447	22428
862.58	22367
862.712	22109
862.844	22177
862.976	22246
863.108	22105
863.24	22660
863.372	21926
863.504	22211
863.636	22124
863.768	22234
863.9	22169
864.032	22128
864.164	22025
864.296	22067
864.428	22257
864.559	22223
864.691	22204
864.823	22181
864.954	22067
865.086	22154
865.217	22063
865.349	22040
865.48	21968
865.612	21991
865.743	22154
865.875	22097
866.006	21991
866.137	22029
866.269	21983
866.4	21975
866.531	21975
866.662	21953
866.793	22074
866.924	21998
867.055	21915
867.186	21941
867.317	22105
867.448	21892
867.579	21922
867.71	21865
867.841	21903
867.972	22093
868.103	21903
868.233	21983
868.364	21960
868.495	22063
868.625	22048
868.756	22215
868.886	22086
869.017	22116
869.147	22516
869.278	22306
869.408	22185
869.539	22287
869.669	22344
869.799	22185
869.929	22318
870.06	22375
870.19	22500
870.32	22535
870.45	22497
870.58	22588
870.71	22740
870.84	22660
870.97	22497
871.1	22630
871.23	22869
871.36	22862
871.489	22626
871.619	22759
871.749	22824
871.879	22843
872.008	22877
872.138	22850
872.267	22820
872.397	22592
872.526	22436
872.656	22675
872.785	22698
872.915	22896
873.044	22831
873.173	22755
873.303	22812
873.432	22835
873.561	22767
873.69	22847
873.819	22854
873.948	22820
874.077	22862
874.206	22843
874.335	22835
874.464	22816
874.593	22927
874.722	22965
874.851	23064
874.979	23010
875.108	23018
875.237	22908
875.365	22942
875.494	23025
875.623	23052
875.751	23079
875.88	23033
876.008	23197
876.136	23064
876.265	23520
876.393	23471
876.521	23402
876.65	23455
876.778	23391
876.906	23277
877.034	23299
877.162	23516
877.29	23212
877.418	23322
877.546	23326
877.674	23383
877.802	23398
877.93	23417
878.058	23368
878.185	23273
878.313	23315
878.441	23288
878.568	23124
878.696	23159
878.824	23376
878.951	23379
879.079	23493
879.206	23589
879.333	23505
879.461	23376
879.588	23425
879.715	23410
879.842	23585
879.97	23490
880.097	23151
880.224	23208
880.351	23269
880.478	23208
880.605	23117
880.732	23200
880.859	23452
880.986	23162
881.112	23193
881.239	23121
881.366	22968
881.493	22801
881.619	22831
881.746	22706
881.872	22637
881.999	22660
882.125	22523
882.252	22683
882.378	22713
882.505	22824
882.631	22599
882.757	22348
882.883	22596
883.01	22413
883.136	22474
883.262	22268
883.388	22162
883.514	22379
883.64	22417
883.766	22249
883.892	22211
884.018	22253
884.143	22360
884.269	22325
884.395	22120
884.52	22074
884.646	22166
884.772	21937
884.897	21907
885.023	22207
885.148	22150
885.274	22150
885.399	22147
885.524	22040
885.65	21937
885.775	22109
885.9	22048
886.025	22211
886.15	22215
886.275	21964
886.4	21953
886.525	22044
886.65	21911
886.775	22040
886.9	22036
887.025	22147
887.149	22059
887.274	21785
887.399	21762
887.523	21770
887.648	21648
887.773	21751
887.897	21861
888.021	21854
888.146	21774
888.27	21781
888.395	21831
888.519	21808
888.643	21926
888.767	21739
888.891	21785
889.015	21614
889.139	21622
889.263	21542
889.387	21770
889.511	21717
889.635	21835
889.759	21564
889.883	21572
890.006	21595
890.13	21660
890.254	21652
890.377	21622
890.501	21321
890.624	21367
890.748	21351
890.871	21211
890.995	21131
891.118	21089
891.241	21146
891.364	21150
891.488	21336
891.611	21180
891.734	21138
891.857	21245
891.98	21047
892.103	21135
892.226	21161
892.349	21058
892.471	20925
892.594	21077
892.717	21047
892.839	21077
892.962	21081
893.085	21123
893.207	20944
893.33	20948
893.452	20887
893.575	21112
893.697	20952
893.819	21161
893.941	21264
894.064	21157
894.186	21085
894.308	20899
894.43	21085
894.552	21176
894.674	21207
894.796	20948
894.918	21047
895.04	20929
895.161	21001
895.283	21074
895.405	21062
895.526	20982
895.648	20990
895.769	21074
895.891	21028
896.012	21127
896.134	21032
896.255	21005
896.376	20914
896.498	21116
896.619	20982
896.74	20994
896.861	21017
896.982	21237
897.103	21420
897.224	21222
897.345	21245
897.466	21195
897.587	21154
897.708	21382
897.828	21348
897.949	21051
898.07	21039
898.19	21245
898.311	21321
898.431	21055
898.552	21150
898.672	21218
898.792	21340
898.913	21336
899.033	21150
899.153	21096
899.273	20857
899.393	20982
899.513	20914
899.633	20921
899.753	20944
899.873	20785
899.993	20914
900.113	20796
900.232	20929
900.352	20804
900.472	20800
900.591	20712
900.711	20823
900.83	20651
900.95	20872
901.069	20796
901.189	20674
901.308	20374
901.427	20221
901.546	20313
901.665	20290
901.784	20157
901.904	20206
902.023	19997
902.141	19986
902.26	19788
902.379	19871
902.498	19746
902.617	19811
902.735	19826
902.854	19818
902.973	19582
903.091	19422
903.21	19430
903.328	19563
903.446	19388
903.565	19266
903.683	19183
903.801	19164
903.919	19133
904.038	19122
904.156	19015
904.274	19050
904.392	18939
904.51	19053
904.627	18871
904.745	18935
904.863	19053
904.981	18856
905.098	18688
905.216	18726
905.334	18639
905.451	18593
905.569	18597
905.686	18783
905.803	18730
905.921	18384
906.038	18502
906.155	18407
906.272	18266
906.389	18365
906.506	18315
906.623	18140
906.74	18315
906.857	18049
906.974	18114
907.091	18315
907.208	18254
907.324	18262
907.441	18121
907.557	17984
907.674	17870
907.79	17874
907.907	17764
908.023	17908
908.139	17882
908.256	17923
908.372	17786
908.488	17832
908.604	17676
908.72	17661
908.836	17695
908.952	17539
909.068	17573
909.184	17764
909.3	17630
909.415	17741
909.531	17668
909.647	17425
909.762	17254
909.878	17124
909.993	17410
910.108	17337
910.224	17242
910.339	17315
910.454	17227
910.57	17083
910.685	17045
910.8	17315
910.915	17269
911.03	17094
911.145	16972
911.259	16991
911.374	16919
911.489	16805
911.604	16771
911.718	16706
911.833	16733
911.947	16596
912.062	16462
912.176	16774
912.291	16729
912.405	16649
912.519	16824
912.633	16885
912.748	16656
912.862	16478
912.976	16493
913.09	16360
913.204	16375
913.318	16436
913.431	16497
913.545	16500
913.659	16531
913.772	16409
913.886	16367
914	16268
914.113	16344
914.226	16306
914.34	16314
914.453	16112
914.566	16246
914.68	16112
914.793	16036
914.906	15876
915.019	15816
915.132	15785
915.245	15778
915.358	15816
915.47	15679
915.583	15816
915.696	15835
915.809	15907
915.921	15869
916.034	15785
916.146	15698
916.259	15606
916.371	15739
916.483	15762
916.595	15587
916.708	15671
916.82	15694
916.932	15705
917.044	15553
917.156	15614
917.268	15466
917.38	15447
917.491	15389
917.603	15519
917.715	15439
917.826	15519
917.938	15393
918.049	15283
918.161	15332
918.272	15466
918.384	15462
918.495	15397
918.606	15199
918.717	15165
918.828	15218
918.939	15188
919.05	15142
919.161	15214
919.272	14979
919.383	15024
919.494	15127
919.604	15466
919.715	15089
919.826	15081
919.936	15036
920.047	15173
920.157	15089
920.267	15355
920.378	15123
920.488	15081
920.598	15298
920.708	15447
920.818	15264
920.928	15161
921.038	15488
921.148	15397
921.258	15123
921.368	15028
921.477	14830
921.587	14804
921.697	14735
921.806	14807
921.916	14727
922.025	14492
922.134	14450
922.244	14461
922.353	14598
922.462	14362
922.571	14294
922.68	14058
922.789	14046
922.898	14103
923.007	14115
923.116	14134
923.224	14092
923.333	14172
923.442	14043
923.55	13925
923.659	13951
923.767	14084
923.876	13951
923.984	13951
924.092	13921
924.201	13826
924.309	13875
924.417	13833
924.525	13833
924.633	13704
924.741	14590
924.849	13567
924.956	13738
925.064	13670
925.172	13403
925.279	13563
925.387	13510
925.494	13487
925.602	13750
925.709	13499
925.816	13392
925.924	13472
926.031	13544
926.138	13480
926.245	13556
926.352	13430
926.459	13422
926.566	13468
926.673	13365
926.779	13251
926.886	13202
926.993	13168
927.099	13095
927.206	13046
927.312	12966
927.419	13050
927.525	13065
927.631	13118
927.737	13103
927.843	12939
927.95	12840
928.056	12875
928.162	12863
928.267	12833
928.373	13343
928.479	13000
928.585	12650
928.69	12795
928.796	12901
928.901	12802
929.007	12646
929.112	12795
929.218	12776
929.323	12627
929.428	12631
929.533	12715
929.638	12525
929.743	12509
929.848	12578
929.953	12494
930.058	12445
930.163	12308
930.267	12308
930.372	12388
930.477	12186
930.581	12536
930.685	12300
930.79	12144
930.894	12155
930.998	12125
931.103	12304
931.207	11916
931.311	11729
931.415	11665
931.519	11455
931.623	11558
