Data from test_V78500241_1262.txt Node
Date: Fri Mar 25 15:50:32 CST 2022
User: usil
Spectrometer: V785-0024
Trigger mode: 0
Integration Time (sec): 4.000000E-1
Scans to average: 1
Nonlinearity correction enabled: false
Boxcar width: 0
Storing dark spectrum: false
XAxis mode: Wavelengths
Number of Pixels in Spectrum: 1024
>>>>>Begin Spectral Data<<<<<
801.071	28866
801.214	28831
801.356	28622
801.499	28485
801.641	28344
801.783	28421
801.926	28462
802.068	28546
802.211	28287
802.353	28356
802.496	28303
802.638	28177
802.78	28166
802.923	28116
803.065	28177
803.208	28013
803.35	28116
803.492	28337
803.635	28489
803.777	28219
803.919	28329
804.061	28668
804.204	28443
804.346	28291
804.488	28253
804.63	28322
804.773	28417
804.915	28497
805.057	28557
805.199	28508
805.341	28535
805.483	28588
805.626	28481
805.768	28500
805.91	28432
806.052	28527
806.194	28550
806.336	28748
806.478	28577
806.62	28656
806.762	28713
806.904	28824
807.046	29181
807.188	29044
807.33	28972
807.472	29041
807.614	28995
807.756	28881
807.898	29003
808.04	28850
808.182	28801
808.324	28847
808.465	28968
808.607	29105
808.749	29277
808.891	29296
809.033	29512
809.174	29311
809.316	29178
809.458	29235
809.6	29292
809.741	29379
809.883	29474
810.025	29608
810.166	29646
810.308	29509
810.45	29676
810.591	29478
810.733	29459
810.875	29200
811.016	29356
811.158	29239
811.299	29524
811.441	29471
811.582	29592
811.724	29353
811.865	29292
812.007	29334
812.148	29372
812.29	29364
812.431	29425
812.573	29729
812.714	29729
812.855	29878
812.997	29920
813.138	29954
813.279	29878
813.421	29752
813.562	29988
813.703	29668
813.845	29589
813.986	29231
814.127	29056
814.268	29121
814.41	29037
814.551	28896
814.692	28957
814.833	28976
814.974	29105
815.115	29083
815.256	28995
815.397	28942
815.539	28949
815.68	28820
815.821	28736
815.962	28900
816.103	28778
816.244	28801
816.385	28626
816.526	28675
816.666	28413
816.807	28436
816.948	28474
817.089	28352
817.23	28344
817.371	28466
817.512	28379
817.653	28424
817.793	28253
817.934	28348
818.075	28409
818.216	28550
818.356	28382
818.497	28272
818.638	28128
818.778	28124
818.919	28109
819.06	28112
819.2	28310
819.341	28322
819.481	28424
819.622	28618
819.762	28679
819.903	28603
820.043	28622
820.184	28512
820.324	28573
820.465	28550
820.605	28565
820.746	28637
820.886	28440
821.026	28424
821.167	28455
821.307	28630
821.447	28333
821.588	28325
821.728	28306
821.868	28063
822.008	27884
822.149	27778
822.289	27816
822.429	27644
822.569	27534
822.709	27580
822.849	27287
822.99	27344
823.13	27325
823.27	27241
823.41	27154
823.55	27169
823.69	27275
823.83	27176
823.97	27165
824.11	27009
824.25	26994
824.389	27039
824.529	27180
824.669	27062
824.809	27184
824.949	27058
825.089	27226
825.228	27123
825.368	26944
825.508	26902
825.648	26914
825.787	26853
825.927	26914
826.067	26994
826.206	26918
826.346	27051
826.485	27009
826.625	26872
826.765	27009
826.904	27028
827.044	26727
827.183	26712
827.323	26609
827.462	26739
827.601	26746
827.741	26659
827.88	26678
828.02	26568
828.159	26495
828.298	26644
828.437	26670
828.577	26594
828.716	26560
828.855	26469
828.994	26339
829.134	26336
829.273	26389
829.412	26267
829.551	26252
829.69	26336
829.829	26275
829.968	26385
830.107	26336
830.246	26313
830.385	26305
830.524	26153
830.663	26142
830.802	25974
830.941	25909
831.08	25750
831.219	25887
831.357	25871
831.496	26138
831.635	25944
831.774	25864
831.913	25769
832.051	25628
832.19	25613
832.329	25715
832.467	25624
832.606	25601
832.744	25476
832.883	25628
833.022	25548
833.16	25548
833.299	25666
833.437	25738
833.576	25594
833.714	25609
833.852	25742
833.991	25845
834.129	25799
834.267	25693
834.406	25727
834.544	25681
834.682	25666
834.821	25647
834.959	25769
835.097	25502
835.235	25761
835.373	25582
835.511	25635
835.65	25510
835.788	25556
835.926	25415
836.064	25221
836.202	25320
836.34	25556
836.478	25616
836.615	25506
836.753	25339
836.891	25499
837.029	25533
837.167	25251
837.305	25396
837.443	25388
837.58	25282
837.718	25381
837.856	25354
837.993	25304
838.131	25266
838.269	25152
838.406	25122
838.544	25133
838.681	24913
838.819	24844
838.956	24764
839.094	24726
839.231	24741
839.369	24916
839.506	25118
839.643	25069
839.781	24791
839.918	24768
840.055	24707
840.193	24696
840.33	24719
840.467	24604
840.604	24631
840.742	25110
840.879	24597
841.016	24681
841.153	24486
841.29	24715
841.427	24589
841.564	24616
841.701	24544
841.838	24665
841.975	24544
842.112	24578
842.249	24490
842.385	24391
842.522	24616
842.659	24517
842.796	24388
842.933	24399
843.069	24334
843.206	24357
843.343	24525
843.479	24410
843.616	24441
843.752	24216
843.889	24239
844.025	24445
844.162	24148
844.298	24224
844.435	24155
844.571	24140
844.708	24114
844.844	24410
844.98	24304
845.117	24262
845.253	24171
845.389	24045
845.525	23939
845.661	24091
845.798	23878
845.934	24030
846.07	23809
846.206	23942
846.342	24011
846.478	23912
846.614	23752
846.75	23547
846.886	23630
847.022	23623
847.158	23596
847.294	23573
847.429	23764
847.565	23684
847.701	23923
847.837	23353
847.972	23372
848.108	23452
848.244	23379
848.379	23254
848.515	23315
848.65	23193
848.786	23254
848.921	23269
849.057	23341
849.192	23303
849.328	23200
849.463	23235
849.598	23143
849.734	23143
849.869	23022
850.004	23003
850.14	23022
850.275	22972
850.41	22793
850.545	22854
850.68	22908
850.815	22965
850.95	23029
851.085	23193
851.22	23071
851.355	23014
851.49	22999
851.625	22911
851.76	22999
851.895	22980
852.03	22831
852.165	22961
852.299	23140
852.434	23193
852.569	22915
852.703	22942
852.838	22923
852.973	23113
853.107	23159
853.242	22972
853.376	22911
853.511	22694
853.645	22744
853.78	22824
853.914	22896
854.048	22725
854.183	22809
854.317	22736
854.451	23075
854.585	22801
854.72	22801
854.854	22843
854.988	22782
855.122	22835
855.256	22637
855.39	22820
855.524	22805
855.658	22858
855.792	22820
855.926	22740
856.06	22889
856.194	22881
856.327	22733
856.461	22782
856.595	22752
856.729	22683
856.862	22923
856.996	22793
857.13	22782
857.263	22984
857.397	22858
857.53	22771
857.664	22801
857.797	22984
857.931	22908
858.064	22908
858.197	22991
858.331	22862
858.464	22793
858.597	22752
858.731	22801
858.864	22809
858.997	22778
859.13	22771
859.263	22869
859.396	22812
859.529	22782
859.662	22698
859.795	22717
859.928	22702
860.061	23029
860.194	23018
860.327	22824
860.46	22710
860.592	22873
860.725	22900
860.858	22911
860.99	22831
861.123	22744
861.256	22717
861.388	22881
861.521	23280
861.653	22736
861.786	22611
861.918	22618
862.05	22649
862.183	22592
862.315	22618
862.447	22782
862.58	22557
862.712	22615
862.844	22333
862.976	22508
863.108	22489
863.24	22957
863.372	22329
863.504	22519
863.636	22542
863.768	22557
863.9	22489
864.032	22421
864.164	22443
864.296	22466
864.428	22519
864.559	22504
864.691	22527
864.823	22455
864.954	22500
865.086	22424
865.217	22466
865.349	22215
865.48	22333
865.612	22325
865.743	22421
865.875	22386
866.006	22318
866.137	22356
866.269	22386
866.4	22371
866.531	22249
866.662	22348
866.793	22379
866.924	22371
867.055	22375
867.186	22421
867.317	22299
867.448	22204
867.579	22367
867.71	22097
867.841	22173
867.972	22276
868.103	22367
868.233	22333
868.364	22230
868.495	22303
868.625	22504
868.756	22497
868.886	22409
869.017	22497
869.147	22725
869.278	22440
869.408	22569
869.539	22516
869.669	22683
869.799	22561
869.929	22740
870.06	22611
870.19	22809
870.32	22820
870.45	22949
870.58	22927
870.71	23003
870.84	23083
870.97	22866
871.1	22934
871.23	23178
871.36	23136
871.489	23098
871.619	23003
871.749	23239
871.879	23098
872.008	23269
872.138	23056
872.267	22949
872.397	22946
872.526	22847
872.656	22889
872.785	22934
872.915	23159
873.044	23265
873.173	23181
873.303	23261
873.432	23170
873.561	23299
873.69	23178
873.819	23242
873.948	23181
874.077	23220
874.206	23079
874.335	23204
874.464	23212
874.593	23341
874.722	23326
874.851	23280
874.979	23368
875.108	23459
875.237	23356
875.365	23197
875.494	23280
875.623	23448
875.751	23360
875.88	23258
876.008	23531
876.136	23630
876.265	23802
876.393	24026
876.521	23764
876.65	23794
876.778	23756
876.906	23676
877.034	23615
877.162	23562
877.29	23657
877.418	23718
877.546	23672
877.674	23668
877.802	23562
877.93	23619
878.058	23562
878.185	23577
878.313	23672
878.441	23668
878.568	23524
878.696	23691
878.824	23672
878.951	23756
879.079	23771
879.206	24060
879.333	23767
879.461	23748
879.588	23821
879.715	23817
879.842	24030
879.97	23672
880.097	23551
880.224	23463
880.351	23566
880.478	23570
880.605	23410
880.732	23615
880.859	23668
880.986	23589
881.112	23482
881.239	23318
881.366	23235
881.493	23117
881.619	23151
881.746	23094
881.872	23044
881.999	22911
882.125	22930
882.252	22972
882.378	23090
882.505	23105
882.631	22873
882.757	22694
882.883	22778
883.01	22790
883.136	22713
883.262	22466
883.388	22531
883.514	22729
883.64	22706
883.766	22744
883.892	22367
884.018	22497
884.143	22683
884.269	22797
884.395	22592
884.52	22200
884.646	22261
884.772	22268
884.897	22177
885.023	22462
885.148	22508
885.274	22508
885.399	22371
885.524	22337
885.65	22409
885.775	22363
885.9	22314
886.025	22405
886.15	22379
886.275	22398
886.4	22265
886.525	22348
886.65	22238
886.775	22310
886.9	22421
887.025	22577
887.149	22360
887.274	22204
887.399	22090
887.523	22147
887.648	22044
887.773	22032
887.897	22207
888.021	22207
888.146	22048
888.27	22215
888.395	22135
888.519	22147
888.643	22086
888.767	22272
888.891	21983
889.015	21888
889.139	21895
889.263	21873
889.387	22063
889.511	22082
889.635	22017
889.759	21956
889.883	21903
890.006	21774
890.13	22093
890.254	21850
890.377	21842
890.501	21599
890.624	21667
890.748	21618
890.871	21500
890.995	21428
891.118	21397
891.241	21511
891.364	21405
891.488	21568
891.611	21435
891.734	21340
891.857	21500
891.98	21408
892.103	21515
892.226	21321
892.349	21511
892.471	21252
892.594	21302
892.717	21325
892.839	21462
892.962	21355
893.085	21458
893.207	21382
893.33	21154
893.452	21317
893.575	21492
893.697	21279
893.819	21530
893.941	21443
894.064	21507
894.186	21340
894.308	21192
894.43	21401
894.552	21454
894.674	21329
894.796	21222
894.918	21233
895.04	21226
895.161	21378
895.283	21195
895.405	21226
895.526	21317
895.648	21230
895.769	21195
895.891	21389
896.012	21428
896.134	21367
896.255	21325
896.376	21260
896.498	21340
896.619	21287
896.74	21329
896.861	21401
896.982	21648
897.103	21637
897.224	21599
897.345	21408
897.466	21435
897.587	21553
897.708	21557
897.828	21488
897.949	21291
898.07	21370
898.19	21485
898.311	21538
898.431	21382
898.552	21511
898.672	21553
898.792	21519
898.913	21382
899.033	21370
899.153	21313
899.273	21150
899.393	21313
899.513	21260
899.633	21230
899.753	21188
899.873	21195
899.993	21195
900.113	21184
900.232	21336
900.352	21066
900.472	21074
900.591	20826
900.711	21142
900.83	20941
900.95	20994
901.069	21116
901.189	20853
901.308	20693
901.427	20594
901.546	20602
901.665	20507
901.784	20575
901.904	20419
902.023	20278
902.141	20069
902.26	19967
902.379	20161
902.498	20077
902.617	19993
902.735	19974
902.854	19963
902.973	19849
903.091	19693
903.21	19776
903.328	19696
903.446	19544
903.565	19483
903.683	19548
903.801	19480
903.919	19464
904.038	19506
904.156	19400
904.274	19365
904.392	19327
904.51	19236
904.627	19297
904.745	19255
904.863	19187
904.981	19084
905.098	19027
905.216	18916
905.334	18909
905.451	18935
905.569	18825
905.686	18981
905.803	18878
905.921	18623
906.038	18791
906.155	18795
906.272	18532
906.389	18669
906.506	18410
906.623	18452
906.74	18369
906.857	18422
906.974	18437
907.091	18578
907.208	18513
907.324	18426
907.441	18273
907.557	18083
907.674	18270
907.79	18095
907.907	18102
908.023	18190
908.139	18155
908.256	18144
908.372	18026
908.488	18053
908.604	17851
908.72	17980
908.836	17889
908.952	17916
909.068	17809
909.184	17965
909.3	17824
909.415	17790
909.531	17748
909.647	17611
909.762	17623
909.878	17592
909.993	17467
910.108	17474
910.224	17471
910.339	17486
910.454	17410
910.57	17368
910.685	17334
910.8	17520
910.915	17516
911.03	17356
911.145	17258
911.259	17117
911.374	17090
911.489	17090
911.604	17018
911.718	16828
911.833	16889
911.947	16816
912.062	16645
912.176	16843
912.291	16972
912.405	16835
912.519	17045
912.633	17056
912.748	16885
912.862	16809
912.976	16797
913.09	16565
913.204	16603
913.318	16634
913.431	16736
913.545	16656
913.659	16793
913.772	16584
913.886	16573
914	16478
914.113	16512
914.226	16436
914.34	16584
914.453	16295
914.566	16424
914.68	16348
914.793	16352
914.906	16097
915.019	16010
915.132	15987
915.245	16002
915.358	16101
915.47	16071
915.583	16044
915.696	15956
915.809	16188
915.921	16188
916.034	16002
916.146	15907
916.259	15972
916.371	15983
916.483	15972
916.595	15876
916.708	15831
916.82	15888
916.932	15785
917.044	15785
917.156	15713
917.268	15679
917.38	15641
917.491	15667
917.603	15652
917.715	15766
917.826	15743
917.938	15523
918.049	15408
918.161	15648
918.272	15732
918.384	15675
918.495	15584
918.606	15351
918.717	15382
918.828	15344
918.939	15393
919.05	15283
919.161	15367
919.272	15119
919.383	15222
919.494	15477
919.604	15641
919.715	15397
919.826	15298
919.936	15397
920.047	15374
920.157	15378
920.267	15500
920.378	15378
920.488	15317
920.598	15443
920.708	15603
920.818	15485
920.928	15397
921.038	15568
921.148	15648
921.258	15279
921.368	15237
921.477	15051
921.587	14967
921.697	14998
921.806	15024
921.916	14807
922.025	14682
922.134	14727
922.244	14640
922.353	14758
922.462	14434
922.571	14511
922.68	14343
922.789	14240
922.898	14408
923.007	14259
923.116	14423
923.224	14343
923.333	14404
923.442	14145
923.55	14153
923.659	14134
923.767	14138
923.876	14024
923.984	14138
924.092	14103
924.201	14073
924.309	14046
924.417	14096
924.525	14016
924.633	13871
924.741	14899
924.849	13772
924.956	13959
925.064	13803
925.172	13719
925.279	13681
925.387	13753
925.494	13715
925.602	13788
925.709	13818
925.816	13674
925.924	13681
926.031	13746
926.138	13613
926.245	13677
926.352	13521
926.459	13727
926.566	13651
926.673	13499
926.779	13460
926.886	13472
926.993	13316
927.099	13274
927.206	13278
927.312	13236
927.419	13266
927.525	13259
927.631	13247
927.737	13118
927.843	13004
927.95	13053
928.056	13034
928.162	12996
928.267	13152
928.373	13715
928.479	13133
928.585	12973
928.69	12981
928.796	12932
928.901	13008
929.007	12715
929.112	12981
929.218	12939
929.323	12772
929.428	12802
929.533	12981
929.638	12760
929.743	12719
929.848	12772
929.953	12646
930.058	12631
930.163	12448
930.267	12471
930.372	12692
930.477	12437
930.581	12673
930.685	12513
930.79	12357
930.894	12357
930.998	12311
931.103	12467
931.207	12076
931.311	12057
931.415	11912
931.519	11714
931.623	11688
