Data from test_V78500241_3154.txt Node
Date: Fri Mar 25 16:03:38 CST 2022
User: usil
Spectrometer: V785-0024
Trigger mode: 0
Integration Time (sec): 4.000000E-1
Scans to average: 1
Nonlinearity correction enabled: false
Boxcar width: 0
Storing dark spectrum: false
XAxis mode: Wavelengths
Number of Pixels in Spectrum: 1024
>>>>>Begin Spectral Data<<<<<
801.071	28481
801.214	28478
801.356	28219
801.499	28280
801.641	28139
801.783	28055
801.926	28166
802.068	28017
802.211	28013
802.353	27884
802.496	27892
802.638	27892
802.78	27842
802.923	27644
803.065	27641
803.208	27618
803.35	27831
803.492	27861
803.635	28044
803.777	27945
803.919	27926
804.061	28360
804.204	27991
804.346	27960
804.488	27880
804.63	27945
804.773	27964
804.915	27953
805.057	28128
805.199	27937
805.341	27983
805.483	28120
805.626	28169
805.768	27934
805.91	28040
806.052	28128
806.194	28044
806.336	28356
806.478	28181
806.62	28139
806.762	28318
806.904	28424
807.046	28767
807.188	28573
807.33	28637
807.472	28580
807.614	28379
807.756	28542
807.898	28379
808.04	28413
808.182	28352
808.324	28535
808.465	28436
808.607	28694
808.749	28885
808.891	28949
809.033	29067
809.174	28835
809.316	28812
809.458	28702
809.6	28771
809.741	28873
809.883	28976
810.025	29265
810.166	29075
810.308	29060
810.45	29109
810.591	29086
810.733	28847
810.875	28911
811.016	28771
811.158	28847
811.299	28812
811.441	29079
811.582	29022
811.724	28858
811.865	28637
812.007	28721
812.148	28736
812.29	28809
812.431	29048
812.573	29265
812.714	29349
812.855	29383
812.997	29471
813.138	29486
813.279	29566
813.421	29254
813.562	29273
813.703	29064
813.845	29128
813.986	28752
814.127	28630
814.268	28455
814.41	28470
814.551	28344
814.692	28519
814.833	28459
814.974	28375
815.115	28527
815.256	28371
815.397	28440
815.539	28481
815.68	28466
815.821	28363
815.962	28287
816.103	28371
816.244	28249
816.385	28276
816.526	28090
816.666	27953
816.807	27804
816.948	27956
817.089	27994
817.23	27895
817.371	27842
817.512	27903
817.653	27739
817.793	27850
817.934	27888
818.075	27838
818.216	28044
818.356	27797
818.497	27755
818.638	27622
818.778	27606
818.919	27538
819.06	27774
819.2	27816
819.341	27846
819.481	27899
819.622	27907
819.762	28207
819.903	28143
820.043	28036
820.184	28090
820.324	28143
820.465	28055
820.605	27968
820.746	27838
820.886	27930
821.026	27861
821.167	27876
821.307	28143
821.447	27850
821.588	27720
821.728	27709
821.868	27447
822.008	27340
822.149	27317
822.289	27416
822.429	27131
822.569	26937
822.709	27005
822.849	26883
822.99	26834
823.13	26975
823.27	26712
823.41	26682
823.55	26632
823.69	26602
823.83	26625
823.97	26568
824.11	26328
824.25	26488
824.389	26415
824.529	26476
824.669	26564
824.809	26697
824.949	26461
825.089	26461
825.228	26541
825.368	26317
825.508	26415
825.648	26298
825.787	26412
825.927	26419
826.067	26332
826.206	26412
826.346	26492
826.485	26347
826.625	26339
826.765	26465
826.904	26343
827.044	26377
827.183	26073
827.323	26195
827.462	26164
827.601	26073
827.741	26115
827.88	26286
828.02	25856
828.159	25997
828.298	26153
828.437	26221
828.577	25993
828.716	26103
828.855	26020
828.994	25776
829.134	25803
829.273	25791
829.412	25700
829.551	25620
829.69	25746
829.829	25833
829.968	25883
830.107	25830
830.246	25715
830.385	25742
830.524	25769
830.663	25594
830.802	25426
830.941	25259
831.08	25320
831.219	25510
831.357	25499
831.496	25571
831.635	25373
831.774	25251
831.913	25274
832.051	25145
832.19	25156
832.329	25251
832.467	25148
832.606	24958
832.744	24996
832.883	24985
833.022	25004
833.16	25027
833.299	25156
833.437	25194
833.576	25168
833.714	24958
833.852	25126
833.991	25289
834.129	25194
834.267	25324
834.406	25194
834.544	25133
834.682	25099
834.821	25038
834.959	25293
835.097	25088
835.235	25179
835.373	25137
835.511	25145
835.65	24947
835.788	24981
835.926	24859
836.064	24734
836.202	24726
836.34	24928
836.478	25088
836.615	24779
836.753	25072
836.891	24837
837.029	24905
837.167	24814
837.305	24852
837.443	24821
837.58	24817
837.718	24760
837.856	24852
837.993	24779
838.131	24772
838.269	24658
838.406	24715
838.544	24665
838.681	24395
838.819	24433
838.956	24308
839.094	24163
839.231	24235
839.369	24270
839.506	24555
839.643	24429
839.781	24178
839.918	24133
840.055	24148
840.193	24235
840.33	24201
840.467	24129
840.604	24171
840.742	24422
840.879	24018
841.016	24045
841.153	24045
841.29	24197
841.427	24209
841.564	24285
841.701	24174
841.838	24110
841.975	24022
842.112	23942
842.249	23954
842.385	23946
842.522	24186
842.659	23984
842.796	23901
842.933	23821
843.069	23863
843.206	23726
843.343	23893
843.479	23760
843.616	23836
843.752	23741
843.889	23691
844.025	23718
844.162	23596
844.298	23661
844.435	23672
844.571	23627
844.708	23760
844.844	23843
844.98	23843
845.117	23756
845.253	23680
845.389	23535
845.525	23467
845.661	23414
845.798	23242
845.934	23406
846.07	23467
846.206	23402
846.342	23608
846.478	23349
846.614	23326
846.75	23044
846.886	23090
847.022	23204
847.158	23033
847.294	23086
847.429	23200
847.565	23132
847.701	23509
847.837	22793
847.972	22805
848.108	22858
848.244	22942
848.379	22889
848.515	22694
848.65	22630
848.786	22672
848.921	22733
849.057	22831
849.192	22645
849.328	22774
849.463	22740
849.598	22596
849.734	22717
849.869	22679
850.004	22561
850.14	22580
850.275	22588
850.41	22455
850.545	22382
850.68	22402
850.815	22531
850.95	22455
851.085	22607
851.22	22618
851.355	22557
851.49	22474
851.625	22382
851.76	22561
851.895	22440
852.03	22459
852.165	22531
852.299	22409
852.434	22516
852.569	22546
852.703	22436
852.838	22592
852.973	22622
853.107	22596
853.242	22344
853.376	22390
853.511	22246
853.645	22348
853.78	22265
853.914	22295
854.048	22196
854.183	22333
854.317	22390
854.451	22451
854.585	22405
854.72	22261
854.854	22466
854.988	22287
855.122	22379
855.256	22090
855.39	22325
855.524	22402
855.658	22382
855.792	22462
855.926	22242
856.06	22402
856.194	22341
856.327	22287
856.461	22261
856.595	22303
856.729	22261
856.862	22421
856.996	22375
857.13	22344
857.263	22535
857.397	22367
857.53	22287
857.664	22268
857.797	22443
857.931	22394
858.064	22386
858.197	22390
858.331	22352
858.464	22226
858.597	22070
858.731	22299
858.864	22303
858.997	22185
859.13	22253
859.263	22234
859.396	22325
859.529	22379
859.662	22299
859.795	22287
859.928	22310
860.061	22409
860.194	22622
860.327	22337
860.46	22352
860.592	22421
860.725	22443
860.858	22451
860.99	22306
861.123	22333
861.256	22181
861.388	22215
861.521	22919
861.653	22234
861.786	22101
861.918	22086
862.05	22177
862.183	22188
862.315	22291
862.447	22287
862.58	22310
862.712	21975
862.844	22002
862.976	21983
863.108	22150
863.24	22329
863.372	21979
863.504	22086
863.636	22051
863.768	22032
863.9	21831
864.032	21922
864.164	21873
864.296	21941
864.428	22242
864.559	22124
864.691	22063
864.823	21975
864.954	22090
865.086	22029
865.217	21934
865.349	21743
865.48	21915
865.612	21846
865.743	22048
865.875	22044
866.006	21804
866.137	21926
866.269	21960
866.4	21789
866.531	21762
866.662	21842
866.793	21869
866.924	21876
867.055	21968
867.186	21827
867.317	21755
867.448	21759
867.579	21876
867.71	21812
867.841	21911
867.972	21755
868.103	21789
868.233	21808
868.364	21831
868.495	21926
868.625	22051
868.756	22226
868.886	22017
869.017	22032
869.147	22204
869.278	22268
869.408	22177
869.539	22162
869.669	22147
869.799	22025
869.929	22204
870.06	22162
870.19	22402
870.32	22344
870.45	22409
870.58	22402
870.71	22645
870.84	22694
870.97	22478
871.1	22504
871.23	22622
871.36	22641
871.489	22607
871.619	22607
871.749	22691
871.879	22733
872.008	22801
872.138	22759
872.267	22710
872.397	22474
872.526	22535
872.656	22596
872.785	22565
872.915	22649
873.044	22668
873.173	22721
873.303	22793
873.432	22634
873.561	22828
873.69	22759
873.819	22744
873.948	22782
874.077	22577
874.206	22592
874.335	22793
874.464	22809
874.593	22957
874.722	22908
874.851	22972
874.979	22862
875.108	23010
875.237	22930
875.365	22774
875.494	22938
875.623	22881
875.751	22812
875.88	22930
876.008	23048
876.136	23022
876.265	23364
876.393	23402
876.521	23448
876.65	23372
876.778	23311
876.906	23223
877.034	23208
877.162	23193
877.29	23277
877.418	23174
877.546	23231
877.674	23311
877.802	23277
877.93	23265
878.058	23166
878.185	23117
878.313	23166
878.441	23368
878.568	22995
878.696	23090
878.824	23227
878.951	23322
879.079	23444
879.206	23516
879.333	23421
879.461	23269
879.588	23345
879.715	23493
879.842	23452
879.97	23360
880.097	23170
880.224	23079
880.351	23140
880.478	23010
880.605	22934
880.732	23006
880.859	23208
880.986	23098
881.112	23162
881.239	22915
881.366	22740
881.493	22752
881.619	22626
881.746	22675
881.872	22641
881.999	22634
882.125	22519
882.252	22626
882.378	22565
882.505	22641
882.631	22500
882.757	22428
882.883	22371
883.01	22128
883.136	22337
883.262	22291
883.388	22112
883.514	22215
883.64	22413
883.766	22166
883.892	22074
884.018	22181
884.143	22211
884.269	22314
884.395	22063
884.52	21854
884.646	21964
884.772	21876
884.897	21854
885.023	22090
885.148	22006
885.274	22101
885.399	22021
885.524	21945
885.65	21975
885.775	22029
885.9	21854
886.025	21968
886.15	21892
886.275	21945
886.4	21903
886.525	21895
886.65	21835
886.775	21922
886.9	22048
887.025	22116
887.149	21956
887.274	21747
887.399	21663
887.523	21580
887.648	21580
887.773	21652
887.897	21800
888.021	21713
888.146	21583
888.27	21804
888.395	21759
888.519	21717
888.643	21778
888.767	21762
888.891	21572
889.015	21443
889.139	21553
889.263	21450
889.387	21545
889.511	21686
889.635	21633
889.759	21321
889.883	21561
890.006	21633
890.13	21652
890.254	21424
890.377	21447
890.501	21294
890.624	21165
890.748	21291
890.871	21188
890.995	21077
891.118	20956
891.241	21039
891.364	20986
891.488	21180
891.611	21024
891.734	21020
891.857	21081
891.98	21074
892.103	21104
892.226	20925
892.349	20944
892.471	20906
892.594	20990
892.717	20948
892.839	20975
892.962	20956
893.085	20979
893.207	20982
893.33	20716
893.452	20857
893.575	21051
893.697	20948
893.819	21066
893.941	21157
894.064	21024
894.186	20845
894.308	20956
894.43	20918
894.552	21028
894.674	21081
894.796	20819
894.918	20887
895.04	20929
895.161	20906
895.283	20937
895.405	20845
895.526	20845
895.648	20944
895.769	20952
895.891	20899
896.012	21062
896.134	21058
896.255	20956
896.376	20891
896.498	20925
896.619	20967
896.74	20906
896.861	20986
896.982	21241
897.103	21439
897.224	21184
897.345	21195
897.466	20990
897.587	21131
897.708	21268
897.828	21199
897.949	21093
898.07	20941
898.19	21047
898.311	21180
898.431	21058
898.552	21195
898.672	21096
898.792	21176
898.913	21173
899.033	20948
899.153	20902
899.273	20781
899.393	20857
899.513	20838
899.633	20872
899.753	20963
899.873	20872
899.993	20853
900.113	20815
900.232	20769
900.352	20667
900.472	20629
900.591	20575
900.711	20754
900.83	20545
900.95	20705
901.069	20689
901.189	20545
901.308	20290
901.427	20229
901.546	20122
901.665	20248
901.784	20115
901.904	20103
902.023	19925
902.141	19818
902.26	19742
902.379	19780
902.498	19624
902.617	19734
902.735	19822
902.854	19791
902.973	19613
903.091	19487
903.21	19400
903.328	19373
903.446	19255
903.565	19103
903.683	19217
903.801	19038
903.919	19107
904.038	19160
904.156	18932
904.274	19050
904.392	18951
904.51	18757
904.627	18867
904.745	18977
904.863	19061
904.981	18768
905.098	18688
905.216	18574
905.334	18623
905.451	18589
905.569	18506
905.686	18684
905.803	18547
905.921	18327
906.038	18536
906.155	18429
906.272	18315
906.389	18205
906.506	18190
906.623	18076
906.74	18098
906.857	17999
906.974	17992
907.091	18125
907.208	18308
907.324	18144
907.441	17920
907.557	17863
907.674	17783
907.79	17805
907.907	17813
908.023	17882
908.139	17916
908.256	17779
908.372	17653
908.488	17589
908.604	17592
908.72	17425
908.836	17585
908.952	17539
909.068	17615
909.184	17703
909.3	17501
909.415	17672
909.531	17516
909.647	17296
909.762	17155
909.878	17326
909.993	17185
910.108	17181
910.224	17174
910.339	17193
910.454	17075
910.57	17067
910.685	16923
910.8	17307
910.915	17121
911.03	17010
911.145	16850
911.259	16942
911.374	16839
911.489	16744
911.604	16672
911.718	16523
911.833	16611
911.947	16531
912.062	16481
912.176	16679
912.291	16592
912.405	16462
912.519	16763
912.633	16797
912.748	16634
912.862	16542
912.976	16360
913.09	16303
913.204	16402
913.318	16405
913.431	16481
913.545	16375
913.659	16516
913.772	16363
913.886	16253
914	16071
914.113	16291
914.226	16242
914.34	16166
914.453	16017
914.566	16280
914.68	15972
914.793	15991
914.906	15850
915.019	15789
915.132	15732
915.245	15713
915.358	15743
915.47	15842
915.583	15797
915.696	15827
915.809	15827
915.921	15895
916.034	15694
916.146	15622
916.259	15580
916.371	15705
916.483	15717
916.595	15614
916.708	15519
916.82	15542
916.932	15488
917.044	15488
917.156	15538
917.268	15408
917.38	15313
917.491	15405
917.603	15428
917.715	15481
917.826	15534
917.938	15363
918.049	15241
918.161	15310
918.272	15344
918.384	15405
918.495	15302
918.606	15157
918.717	15123
918.828	15226
918.939	15157
919.05	14952
919.161	15070
919.272	14864
919.383	14956
919.494	15211
919.604	15310
919.715	15077
919.826	15024
919.936	15241
920.047	15169
920.157	15085
920.267	15313
920.378	15104
920.488	15001
920.598	15169
920.708	15367
920.818	15275
920.928	15138
921.038	15329
921.148	15256
921.258	14963
921.368	14845
921.477	14842
921.587	14731
921.697	14693
921.806	14682
921.916	14625
922.025	14495
922.134	14423
922.244	14404
922.353	14511
922.462	14278
922.571	14324
922.68	14206
922.789	14100
922.898	14111
923.007	13955
923.116	14202
923.224	14012
923.333	14081
923.442	13906
923.55	13860
923.659	13993
923.767	14065
923.876	13803
923.984	13940
924.092	13830
924.201	13799
924.309	13811
924.417	13803
924.525	13750
924.633	13696
924.741	14541
924.849	13590
924.956	13734
925.064	13521
925.172	13358
925.279	13480
925.387	13449
925.494	13491
925.602	13620
925.709	13586
925.816	13369
925.924	13384
926.031	13578
926.138	13426
926.245	13483
926.352	13320
926.459	13438
926.566	13533
926.673	13343
926.779	13362
926.886	13289
926.993	13160
927.099	13088
927.206	13088
927.312	13076
927.419	13038
927.525	13019
927.631	13190
927.737	12894
927.843	12913
927.95	12764
928.056	12772
928.162	12844
928.267	12875
928.373	13529
928.479	12951
928.585	12692
928.69	12882
928.796	12901
928.901	12715
929.007	12589
929.112	12738
929.218	12696
929.323	12604
929.428	12620
929.533	12707
929.638	12506
929.743	12525
929.848	12494
929.953	12566
930.058	12429
930.163	12247
930.267	12319
930.372	12395
930.477	12155
930.581	12357
930.685	12353
930.79	12190
930.894	12125
930.998	12159
931.103	12182
931.207	11764
931.311	11786
931.415	11756
931.519	11581
931.623	11562
