Data from test_V78500241_885.txt Node
Date: Fri Mar 25 15:47:55 CST 2022
User: usil
Spectrometer: V785-0024
Trigger mode: 0
Integration Time (sec): 4.000000E-1
Scans to average: 1
Nonlinearity correction enabled: false
Boxcar width: 0
Storing dark spectrum: false
XAxis mode: Wavelengths
Number of Pixels in Spectrum: 1024
>>>>>Begin Spectral Data<<<<<
801.071	28204
801.214	28287
801.356	27903
801.499	27937
801.641	27698
801.783	27701
801.926	27789
802.068	27850
802.211	27736
802.353	27667
802.496	27469
802.638	27424
802.78	27523
802.923	27424
803.065	27207
803.208	27348
803.35	27496
803.492	27515
803.635	27473
803.777	27511
803.919	27610
804.061	28029
804.204	27629
804.346	27538
804.488	27443
804.63	27469
804.773	27530
804.915	27587
805.057	27644
805.199	27595
805.341	27705
805.483	27892
805.626	27804
805.768	27724
805.91	27869
806.052	27789
806.194	27774
806.336	27911
806.478	27766
806.62	27835
806.762	27876
806.904	28093
807.046	28584
807.188	28276
807.33	28295
807.472	28379
807.614	28181
807.756	28253
807.898	28025
808.04	27975
808.182	28044
808.324	27892
808.465	28147
808.607	28257
808.749	28386
808.891	28580
809.033	28752
809.174	28489
809.316	28428
809.458	28367
809.6	28405
809.741	28675
809.883	28698
810.025	28740
810.166	28656
810.308	28812
810.45	28675
810.591	28653
810.733	28497
810.875	28500
811.016	28375
811.158	28421
811.299	28664
811.441	28736
811.582	28542
811.724	28386
811.865	28500
812.007	28557
812.148	28489
812.29	28561
812.431	28748
812.573	28725
812.714	29105
812.855	28999
812.997	29037
813.138	29307
813.279	29181
813.421	29128
813.562	29014
813.703	28793
813.845	28793
813.986	28455
814.127	28268
814.268	28192
814.41	28162
814.551	28051
814.692	28325
814.833	28211
814.974	28219
815.115	28226
815.256	28090
815.397	27979
815.539	28185
815.68	27922
815.821	27857
815.962	28101
816.103	27937
816.244	28010
816.385	27781
816.526	27641
816.666	27728
816.807	27500
816.948	27580
817.089	27625
817.23	27485
817.371	27488
817.512	27545
817.653	27538
817.793	27420
817.934	27469
818.075	27591
818.216	27545
818.356	27393
818.497	27408
818.638	27157
818.778	27317
818.919	27264
819.06	27298
819.2	27447
819.341	27568
819.481	27622
819.622	27511
819.762	27838
819.903	27762
820.043	27705
820.184	27637
820.324	27504
820.465	27633
820.605	27610
820.746	27629
820.886	27466
821.026	27671
821.167	27530
821.307	27778
821.447	27576
821.588	27450
821.728	27283
821.868	27070
822.008	26960
822.149	27070
822.289	26925
822.429	26724
822.569	26758
822.709	26507
822.849	26415
822.99	26461
823.13	26446
823.27	26465
823.41	26423
823.55	26221
823.69	26339
823.83	26267
823.97	26317
824.11	25997
824.25	26122
824.389	26138
824.529	26229
824.669	26233
824.809	26298
824.949	26206
825.089	26271
825.228	26343
825.368	25982
825.508	26024
825.648	26058
825.787	26088
825.927	26050
826.067	26092
826.206	25955
826.346	25997
826.485	26103
826.625	25966
826.765	26058
826.904	26016
827.044	25818
827.183	25791
827.323	25799
827.462	25693
827.601	25708
827.741	25677
827.88	25780
828.02	25753
828.159	25624
828.298	25822
828.437	25917
828.577	25674
828.716	25822
828.855	25643
828.994	25411
829.134	25301
829.273	25445
829.412	25301
829.551	25293
829.69	25369
829.829	25491
829.968	25567
830.107	25350
830.246	25384
830.385	25400
830.524	25388
830.663	25289
830.802	25179
830.941	25084
831.08	24894
831.219	25107
831.357	25088
831.496	25088
831.635	25110
831.774	25012
831.913	24962
832.051	24791
832.19	24814
832.329	24806
832.467	24669
832.606	24658
832.744	24593
832.883	24738
833.022	24570
833.16	24661
833.299	24852
833.437	24753
833.576	24696
833.714	24779
833.852	24741
833.991	24837
834.129	24844
834.267	24791
834.406	24722
834.544	24753
834.682	24658
834.821	24665
834.959	24787
835.097	24817
835.235	24745
835.373	24783
835.511	24779
835.65	24627
835.788	24700
835.926	24654
836.064	24254
836.202	24517
836.34	24612
836.478	24646
836.615	24582
836.753	24601
836.891	24582
837.029	24627
837.167	24525
837.305	24498
837.443	24452
837.58	24426
837.718	24555
837.856	24593
837.993	24357
838.131	24414
838.269	24201
838.406	24254
838.544	24300
838.681	23965
838.819	24030
838.956	23897
839.094	23790
839.231	24034
839.369	24083
839.506	24346
839.643	24125
839.781	24034
839.918	23840
840.055	23980
840.193	23889
840.33	23893
840.467	23714
840.604	23973
840.742	24129
840.879	23638
841.016	23653
841.153	23684
841.29	23847
841.427	23790
841.564	23866
841.701	23756
841.838	23748
841.975	23718
842.112	23775
842.249	23577
842.385	23414
842.522	23699
842.659	23554
842.796	23478
842.933	23406
843.069	23505
843.206	23356
843.343	23535
843.479	23604
843.616	23471
843.752	23376
843.889	23288
844.025	23410
844.162	23223
844.298	23334
844.435	23345
844.571	23376
844.708	23288
844.844	23486
844.98	23364
845.117	23417
845.253	23307
845.389	23246
845.525	23296
845.661	23174
845.798	23071
845.934	23151
846.07	22965
846.206	23075
846.342	23246
846.478	23200
846.614	22873
846.75	22763
846.886	22786
847.022	22938
847.158	22771
847.294	22858
847.429	22839
847.565	22782
847.701	23010
847.837	22485
847.972	22546
848.108	22569
848.244	22603
848.379	22398
848.515	22386
848.65	22405
848.786	22440
848.921	22489
849.057	22546
849.192	22512
849.328	22409
849.463	22428
849.598	22306
849.734	22196
849.869	22188
850.004	22059
850.14	22261
850.275	22086
850.41	22025
850.545	22166
850.68	22032
850.815	22158
850.95	22150
851.085	22219
851.22	22284
851.355	22238
851.49	22150
851.625	22265
851.76	22013
851.895	21937
852.03	22051
852.165	22093
852.299	22242
852.434	22360
852.569	22204
852.703	22207
852.838	22185
852.973	22188
853.107	22219
853.242	22059
853.376	21953
853.511	21945
853.645	21857
853.78	22013
853.914	21953
854.048	21869
854.183	21945
854.317	21975
854.451	22219
854.585	21994
854.72	21922
854.854	21975
854.988	21911
855.122	22032
855.256	21724
855.39	21922
855.524	21972
855.658	22101
855.792	21964
855.926	21930
856.06	21873
856.194	22120
856.327	21937
856.461	21797
856.595	21949
856.729	22006
856.862	21960
856.996	21937
857.13	22029
857.263	22086
857.397	22044
857.53	21892
857.664	22070
857.797	21968
857.931	21953
858.064	22002
858.197	22048
858.331	21994
858.464	21949
858.597	21781
858.731	21884
858.864	21979
858.997	22025
859.13	21975
859.263	22017
859.396	22051
859.529	22032
859.662	21842
859.795	21884
859.928	21998
860.061	22147
860.194	22078
860.327	22032
860.46	21926
860.592	22070
860.725	22082
860.858	22150
860.99	21991
861.123	21888
861.256	21827
861.388	22002
861.521	22691
861.653	21884
861.786	21755
861.918	21827
862.05	21831
862.183	21895
862.315	21953
862.447	21838
862.58	21827
862.712	21800
862.844	21622
862.976	21781
863.108	21713
863.24	21941
863.372	21561
863.504	21625
863.636	21625
863.768	21671
863.9	21595
864.032	21633
864.164	21679
864.296	21629
864.428	21819
864.559	21728
864.691	21698
864.823	21637
864.954	21656
865.086	21603
865.217	21610
865.349	21389
865.48	21515
865.612	21481
865.743	21682
865.875	21545
866.006	21622
866.137	21538
866.269	21595
866.4	21496
866.531	21553
866.662	21443
866.793	21561
866.924	21424
867.055	21610
867.186	21488
867.317	21500
867.448	21424
867.579	21488
867.71	21458
867.841	21485
867.972	21507
868.103	21420
868.233	21466
868.364	21416
868.495	21549
868.625	21568
868.756	21819
868.886	21724
869.017	21603
869.147	21838
869.278	21759
869.408	21663
869.539	21660
869.669	21793
869.799	21732
869.929	21789
870.06	21720
870.19	22044
870.32	22013
870.45	22002
870.58	22135
870.71	22249
870.84	22154
870.97	22147
871.1	22124
871.23	22322
871.36	22280
871.489	22280
871.619	22379
871.749	22325
871.879	22371
872.008	22363
872.138	22306
872.267	22265
872.397	22249
872.526	22128
872.656	22162
872.785	22211
872.915	22402
873.044	22382
873.173	22341
873.303	22329
873.432	22443
873.561	22421
873.69	22398
873.819	22382
873.948	22424
874.077	22375
874.206	22360
874.335	22291
874.464	22390
874.593	22508
874.722	22565
874.851	22603
874.979	22573
875.108	22596
875.237	22497
875.365	22413
875.494	22470
875.623	22630
875.751	22531
875.88	22561
876.008	22618
876.136	22740
876.265	22995
876.393	23098
876.521	22881
876.65	22968
876.778	22987
876.906	22904
877.034	22900
877.162	22900
877.29	22984
877.418	22938
877.546	22972
877.674	22968
877.802	22923
877.93	22869
878.058	22801
878.185	22687
878.313	22942
878.441	22915
878.568	22713
878.696	22915
878.824	22949
878.951	22934
879.079	23014
879.206	23174
879.333	23204
879.461	22873
879.588	23037
879.715	23060
879.842	23273
879.97	22972
880.097	22892
880.224	22713
880.351	22694
880.478	22809
880.605	22748
880.732	22649
880.859	22972
880.986	22740
881.112	22702
881.239	22634
881.366	22348
881.493	22436
881.619	22310
881.746	22188
881.872	22276
881.999	22360
882.125	22249
882.252	22325
882.378	22196
882.505	22394
882.631	22147
882.757	21975
882.883	21956
883.01	21983
883.136	21888
883.262	21759
883.388	21842
883.514	21934
883.64	21983
883.766	21857
883.892	21675
884.018	21739
884.143	21903
884.269	21953
884.395	21633
884.52	21526
884.646	21485
884.772	21572
884.897	21454
885.023	21545
885.148	21637
885.274	21660
885.399	21652
885.524	21595
885.65	21553
885.775	21564
885.9	21538
886.025	21800
886.15	21610
886.275	21637
886.4	21431
886.525	21625
886.65	21610
886.775	21530
886.9	21762
887.025	21789
887.149	21583
887.274	21435
887.399	21351
887.523	21332
887.648	21207
887.773	21370
887.897	21488
888.021	21359
888.146	21336
888.27	21530
888.395	21450
888.519	21313
888.643	21443
888.767	21416
888.891	21222
889.015	21298
889.139	21188
889.263	21142
889.387	21230
889.511	21321
889.635	21252
889.759	21157
889.883	21176
890.006	21226
890.13	21184
890.254	21070
890.377	21055
890.501	20975
890.624	20899
890.748	20948
890.871	20807
890.995	20693
891.118	20682
891.241	20731
891.364	20716
891.488	20845
891.611	20724
891.734	20830
891.857	20765
891.98	20705
892.103	20765
892.226	20785
892.349	20541
892.471	20503
892.594	20648
892.717	20640
892.839	20678
892.962	20549
893.085	20697
893.207	20606
893.33	20499
893.452	20545
893.575	20754
893.697	20560
893.819	20735
893.941	20819
894.064	20655
894.186	20640
894.308	20579
894.43	20629
894.552	20613
894.674	20686
894.796	20503
894.918	20461
895.04	20560
895.161	20670
895.283	20571
895.405	20678
895.526	20659
895.648	20590
895.769	20568
895.891	20579
896.012	20701
896.134	20735
896.255	20594
896.376	20648
896.498	20564
896.619	20625
896.74	20579
896.861	20541
896.982	20872
897.103	20994
897.224	20952
897.345	20781
897.466	20815
897.587	20800
897.708	20982
897.828	20823
897.949	20758
898.07	20731
898.19	20758
898.311	20933
898.431	20796
898.552	20754
898.672	20872
898.792	20868
898.913	20853
899.033	20625
899.153	20651
899.273	20564
899.393	20571
899.513	20552
899.633	20499
899.753	20632
899.873	20366
899.993	20625
900.113	20434
900.232	20526
900.352	20442
900.472	20317
900.591	20240
900.711	20450
900.83	20244
900.95	20381
901.069	20526
901.189	20259
901.308	19959
901.427	19898
901.546	19879
901.665	19913
901.784	19909
901.904	19753
902.023	19750
902.141	19499
902.26	19480
902.379	19533
902.498	19453
902.617	19411
902.735	19441
902.854	19403
902.973	19388
903.091	19065
903.21	19042
903.328	19095
903.446	19072
903.565	19004
903.683	18863
903.801	18825
903.919	18806
904.038	18783
904.156	18696
904.274	18791
904.392	18597
904.51	18574
904.627	18650
904.745	18681
904.863	18681
904.981	18273
905.098	18262
905.216	18266
905.334	18266
905.451	18315
905.569	18304
905.686	18350
905.803	18391
905.921	18098
906.038	18315
906.155	18087
906.272	18026
906.389	17954
906.506	17870
906.623	17885
906.74	17908
906.857	17668
906.974	17699
907.091	17870
907.208	18045
907.324	17824
907.441	17714
907.557	17646
907.674	17581
907.79	17566
907.907	17592
908.023	17608
908.139	17539
908.256	17535
908.372	17391
908.488	17478
908.604	17311
908.72	17261
908.836	17372
908.952	17235
909.068	17284
909.184	17379
909.3	17223
909.415	17330
909.531	17197
909.647	16987
909.762	16987
909.878	16957
909.993	16991
910.108	16881
910.224	16942
910.339	16908
910.454	16930
910.57	16710
910.685	16622
910.8	17022
910.915	16949
911.03	16634
911.145	16535
911.259	16558
911.374	16519
911.489	16500
911.604	16489
911.718	16432
911.833	16314
911.947	16291
912.062	16223
912.176	16280
912.291	16291
912.405	16333
912.519	16527
912.633	16470
912.748	16322
912.862	16299
912.976	16124
913.09	15979
913.204	16059
913.318	16135
913.431	16226
913.545	16116
913.659	16162
913.772	16021
913.886	15937
914	15903
914.113	15979
914.226	15987
914.34	16006
914.453	15736
914.566	15915
914.68	15781
914.793	15812
914.906	15648
915.019	15534
915.132	15408
915.245	15530
915.358	15447
915.47	15492
915.583	15564
915.696	15530
915.809	15580
915.921	15679
916.034	15450
916.146	15485
916.259	15367
916.371	15439
916.483	15488
916.595	15252
916.708	15393
916.82	15329
916.932	15241
917.044	15237
917.156	15165
917.268	15233
917.38	15199
917.491	15207
917.603	15119
917.715	15127
917.826	15260
917.938	15009
918.049	15005
918.161	15116
918.272	15211
918.384	15142
918.495	15146
918.606	14925
918.717	14853
918.828	14994
918.939	14914
919.05	14754
919.161	14750
919.272	14651
919.383	14708
919.494	14853
919.604	15009
919.715	14914
919.826	14838
919.936	14868
920.047	14982
920.157	14864
920.267	15077
920.378	14746
920.488	14815
920.598	14986
920.708	15218
920.818	14937
920.928	14948
921.038	15188
921.148	15131
921.258	14819
921.368	14682
921.477	14697
921.587	14648
921.697	14393
921.806	14530
921.916	14476
922.025	14233
922.134	14282
922.244	14206
922.353	14256
922.462	14058
922.571	14016
922.68	13894
922.789	13860
922.898	13936
923.007	13769
923.116	13913
923.224	13814
923.333	13818
923.442	13719
923.55	13681
923.659	13746
923.767	13788
923.876	13666
923.984	13715
924.092	13567
924.201	13594
924.309	13655
924.417	13559
924.525	13480
924.633	13597
924.741	14457
924.849	13438
924.956	13396
925.064	13278
925.172	13240
925.279	13209
925.387	13304
925.494	13228
925.602	13369
925.709	13282
925.816	13061
925.924	13251
926.031	13282
926.138	13141
926.245	13263
926.352	13114
926.459	13263
926.566	13259
926.673	13175
926.779	12993
926.886	12996
926.993	12897
927.099	12817
927.206	12760
927.312	12764
927.419	12821
927.525	12890
927.631	12798
927.737	12741
927.843	12696
927.95	12585
928.056	12635
928.162	12650
928.267	12684
928.373	13228
928.479	12726
928.585	12399
928.69	12570
928.796	12593
928.901	12467
929.007	12384
929.112	12517
929.218	12418
929.323	12365
929.428	12334
929.533	12418
929.638	12277
929.743	12323
929.848	12327
929.953	12361
930.058	12201
930.163	12003
930.267	12015
930.372	12102
930.477	11931
930.581	12262
930.685	12098
930.79	11954
930.894	11931
930.998	11874
931.103	12057
931.207	11672
931.311	11528
931.415	11516
931.519	11258
931.623	11223
