Data from test_V78500241_1429.txt Node
Date: Fri Mar 25 15:51:42 CST 2022
User: usil
Spectrometer: V785-0024
Trigger mode: 0
Integration Time (sec): 4.000000E-1
Scans to average: 1
Nonlinearity correction enabled: false
Boxcar width: 0
Storing dark spectrum: false
XAxis mode: Wavelengths
Number of Pixels in Spectrum: 1024
>>>>>Begin Spectral Data<<<<<
801.071	28093
801.214	28040
801.356	27698
801.499	27614
801.641	27583
801.783	27557
801.926	27667
802.068	27534
802.211	27580
802.353	27431
802.496	27336
802.638	27313
802.78	27332
802.923	27165
803.065	27237
803.208	27275
803.35	27260
803.492	27306
803.635	27511
803.777	27344
803.919	27378
804.061	27751
804.204	27504
804.346	27511
804.488	27302
804.63	27515
804.773	27313
804.915	27416
805.057	27618
805.199	27526
805.341	27526
805.483	27595
805.626	27618
805.768	27439
805.91	27629
806.052	27523
806.194	27481
806.336	27816
806.478	27637
806.62	27568
806.762	27724
806.904	27812
807.046	28226
807.188	27960
807.33	28116
807.472	28116
807.614	27884
807.756	27956
807.898	27937
808.04	27964
808.182	27888
808.324	28101
808.465	27956
808.607	28055
808.749	28413
808.891	28451
809.033	28409
809.174	28238
809.316	28185
809.458	28234
809.6	28078
809.741	28348
809.883	28428
810.025	28557
810.166	28538
810.308	28634
810.45	28500
810.591	28493
810.733	28303
810.875	28173
811.016	28158
811.158	28196
811.299	28481
811.441	28318
811.582	28508
811.724	28398
811.865	28238
812.007	28204
812.148	28166
812.29	28310
812.431	28363
812.573	28611
812.714	28622
812.855	28873
812.997	28873
813.138	28972
813.279	28801
813.421	28786
813.562	28672
813.703	28478
813.845	28447
813.986	28215
814.127	28055
814.268	28116
814.41	27964
814.551	27987
814.692	28013
814.833	27892
814.974	27842
815.115	28093
815.256	27797
815.397	27903
815.539	27842
815.68	27823
815.821	27568
815.962	27785
816.103	27808
816.244	27553
816.385	27523
816.526	27618
816.666	27462
816.807	27138
816.948	27226
817.089	27306
817.23	27317
817.371	27447
817.512	27230
817.653	27241
817.793	27100
817.934	27241
818.075	27298
818.216	27283
818.356	27108
818.497	26940
818.638	26933
818.778	26948
818.919	27020
819.06	27089
819.2	27142
819.341	27256
819.481	27279
819.622	27424
819.762	27496
819.903	27443
820.043	27454
820.184	27439
820.324	27363
820.465	27515
820.605	27439
820.746	27355
820.886	27203
821.026	27435
821.167	27443
821.307	27439
821.447	27195
821.588	27135
821.728	27066
821.868	26910
822.008	26754
822.149	26727
822.289	26689
822.429	26598
822.569	26499
822.709	26419
822.849	26271
822.99	26317
823.13	26142
823.27	26229
823.41	26100
823.55	26054
823.69	26046
823.83	26046
823.97	26062
824.11	25955
824.25	25860
824.389	25818
824.529	25940
824.669	25875
824.809	26050
824.949	25811
825.089	25970
825.228	25898
825.368	25712
825.508	25696
825.648	25769
825.787	25788
825.927	25704
826.067	25696
826.206	25753
826.346	25704
826.485	25765
826.625	25791
826.765	25833
826.904	25590
827.044	25460
827.183	25510
827.323	25434
827.462	25548
827.601	25377
827.741	25445
827.88	25514
828.02	25358
828.159	25445
828.298	25499
828.437	25537
828.577	25350
828.716	25495
828.855	25274
828.994	25266
829.134	25225
829.273	25114
829.412	25095
829.551	25103
829.69	25088
829.829	25148
829.968	25225
830.107	25164
830.246	25179
830.385	25137
830.524	25145
830.663	24981
830.802	24833
830.941	24726
831.08	24669
831.219	24798
831.357	24741
831.496	24992
831.635	24661
831.774	24563
831.913	24540
832.051	24464
832.19	24517
832.329	24559
832.467	24433
832.606	24308
832.744	24391
832.883	24361
833.022	24353
833.16	24319
833.299	24540
833.437	24513
833.576	24521
833.714	24388
833.852	24559
833.991	24627
834.129	24418
834.267	24445
834.406	24483
834.544	24471
834.682	24498
834.821	24460
834.959	24582
835.097	24403
835.235	24498
835.373	24357
835.511	24441
835.65	24410
835.788	24365
835.926	24155
836.064	24110
836.202	24133
836.34	24376
836.478	24353
836.615	24216
836.753	24353
836.891	24437
837.029	24285
837.167	24277
837.305	24243
837.443	24053
837.58	24167
837.718	24247
837.856	24182
837.993	24060
838.131	24140
838.269	24095
838.406	23969
838.544	23916
838.681	23790
838.819	23646
838.956	23604
839.094	23604
839.231	23649
839.369	23634
839.506	23908
839.643	23817
839.781	23505
839.918	23471
840.055	23501
840.193	23554
840.33	23585
840.467	23554
840.604	23436
840.742	23805
840.879	23246
841.016	23531
841.153	23463
841.29	23703
841.427	23531
841.564	23467
841.701	23516
841.838	23299
841.975	23467
842.112	23398
842.249	23440
842.385	23345
842.522	23516
842.659	23273
842.796	23261
842.933	23223
843.069	23288
843.206	23212
843.343	23242
843.479	23235
843.616	23265
843.752	22984
843.889	23022
844.025	23231
844.162	23033
844.298	23246
844.435	23086
844.571	23105
844.708	23113
844.844	23113
844.98	23105
845.117	23178
845.253	22889
845.389	22866
845.525	22927
845.661	22934
845.798	22752
845.934	22835
846.07	22713
846.206	22664
846.342	22896
846.478	22801
846.614	22512
846.75	22516
846.886	22462
847.022	22588
847.158	22527
847.294	22402
847.429	22546
847.565	22508
847.701	22679
847.837	22257
847.972	22169
848.108	22371
848.244	22398
848.379	22112
848.515	22116
848.65	22040
848.786	22173
848.921	22139
849.057	22287
849.192	22135
849.328	22173
849.463	22006
849.598	21991
849.734	21907
849.869	21968
850.004	21739
850.14	21857
850.275	21979
850.41	21755
850.545	21781
850.68	21873
850.815	21838
850.95	21816
851.085	21979
851.22	21934
851.355	21800
851.49	21918
851.625	21831
851.76	21778
851.895	21838
852.03	21694
852.165	21739
852.299	21831
852.434	22006
852.569	21899
852.703	21880
852.838	21941
852.973	21949
853.107	21945
853.242	21884
853.376	21739
853.511	21568
853.645	21652
853.78	21831
853.914	21641
854.048	21641
854.183	21736
854.317	21652
854.451	21991
854.585	21705
854.72	21667
854.854	21720
854.988	21545
855.122	21667
855.256	21538
855.39	21724
855.524	21724
855.658	21781
855.792	21679
855.926	21679
856.06	21610
856.194	21778
856.327	21648
856.461	21557
856.595	21648
856.729	21766
856.862	21808
856.996	21713
857.13	21800
857.263	21880
857.397	21785
857.53	21610
857.664	21633
857.797	21717
857.931	21663
858.064	21835
858.197	21861
858.331	21644
858.464	21606
858.597	21526
858.731	21671
858.864	21637
858.997	21542
859.13	21797
859.263	21637
859.396	21720
859.529	21743
859.662	21656
859.795	21656
859.928	21739
860.061	21835
860.194	21903
860.327	21736
860.46	21812
860.592	21827
860.725	21861
860.858	21816
860.99	21686
861.123	21622
861.256	21629
861.388	21759
861.521	22417
861.653	21557
861.786	21374
861.918	21618
862.05	21526
862.183	21625
862.315	21606
862.447	21599
862.58	21629
862.712	21401
862.844	21207
862.976	21473
863.108	21447
863.24	21797
863.372	21287
863.504	21458
863.636	21382
863.768	21351
863.9	21466
864.032	21374
864.164	21279
864.296	21389
864.428	21652
864.559	21405
864.691	21492
864.823	21367
864.954	21397
865.086	21237
865.217	21332
865.349	21203
865.48	21298
865.612	21317
865.743	21389
865.875	21359
866.006	21252
866.137	21329
866.269	21161
866.4	21211
866.531	21176
866.662	21146
866.793	21272
866.924	21192
867.055	21260
867.186	21287
867.317	21180
867.448	21142
867.579	21184
867.71	21203
867.841	21039
867.972	21138
868.103	21146
868.233	21077
868.364	21169
868.495	21264
868.625	21504
868.756	21595
868.886	21237
869.017	21439
869.147	21656
869.278	21553
869.408	21507
869.539	21412
869.669	21648
869.799	21496
869.929	21511
870.06	21545
870.19	21789
870.32	21781
870.45	21793
870.58	21850
870.71	22032
870.84	21968
870.97	22002
871.1	21873
871.23	22006
871.36	22082
871.489	21972
871.619	21937
871.749	22006
871.879	22131
872.008	22150
872.138	22010
872.267	22116
872.397	22021
872.526	21945
872.656	21880
872.785	21945
872.915	22048
873.044	22181
873.173	22109
873.303	22086
873.432	22207
873.561	22017
873.69	22025
873.819	22105
873.948	22158
874.077	22128
874.206	22013
874.335	22101
874.464	22120
874.593	22405
874.722	22238
874.851	22318
874.979	22344
875.108	22329
875.237	22325
875.365	22367
875.494	22352
875.623	22405
875.751	22322
875.88	22295
876.008	22466
876.136	22443
876.265	22725
876.393	22717
876.521	22850
876.65	22683
876.778	22641
876.906	22710
877.034	22721
877.162	22588
877.29	22573
877.418	22660
877.546	22755
877.674	22672
877.802	22584
877.93	22755
878.058	22542
878.185	22516
878.313	22599
878.441	22687
878.568	22538
878.696	22672
878.824	22691
878.951	22694
879.079	22889
879.206	22961
879.333	22847
879.461	22710
879.588	22847
879.715	22900
879.842	22908
879.97	22797
880.097	22466
880.224	22451
880.351	22436
880.478	22470
880.605	22341
880.732	22337
880.859	22656
880.986	22367
881.112	22451
881.239	22173
881.366	22211
881.493	22261
881.619	22090
881.746	22078
881.872	22101
881.999	22032
882.125	21949
882.252	22051
882.378	22067
882.505	22128
882.631	21953
882.757	21785
882.883	21789
883.01	21800
883.136	21713
883.262	21629
883.388	21519
883.514	21823
883.64	21797
883.766	21652
883.892	21389
884.018	21420
884.143	21622
884.269	21724
884.395	21488
884.52	21469
884.646	21420
884.772	21291
884.897	21264
885.023	21348
885.148	21443
885.274	21405
885.399	21618
885.524	21382
885.65	21378
885.775	21462
885.9	21431
886.025	21397
886.15	21481
886.275	21321
886.4	21192
886.525	21298
886.65	21264
886.775	21291
886.9	21469
887.025	21553
887.149	21450
887.274	21188
887.399	21161
887.523	21135
887.648	21058
887.773	20975
887.897	21211
888.021	21138
888.146	21047
888.27	21245
888.395	21294
888.519	21116
888.643	21100
888.767	21161
888.891	21024
889.015	20975
889.139	21001
889.263	20902
889.387	21039
889.511	21077
889.635	21096
889.759	20838
889.883	20838
890.006	20971
890.13	20963
890.254	20811
890.377	20864
890.501	20720
890.624	20636
890.748	20644
890.871	20644
890.995	20408
891.118	20408
891.241	20606
891.364	20389
891.488	20625
891.611	20499
891.734	20454
891.857	20503
891.98	20434
892.103	20412
892.226	20457
892.349	20541
892.471	20301
892.594	20412
892.717	20450
892.839	20366
892.962	20389
893.085	20495
893.207	20377
893.33	20290
893.452	20248
893.575	20564
893.697	20389
893.819	20552
893.941	20533
894.064	20454
894.186	20320
894.308	20153
894.43	20492
894.552	20518
894.674	20499
894.796	20275
894.918	20412
895.04	20419
895.161	20484
895.283	20423
895.405	20374
895.526	20427
895.648	20374
895.769	20366
895.891	20358
896.012	20393
896.134	20434
896.255	20419
896.376	20419
896.498	20374
896.619	20457
896.74	20317
896.861	20450
896.982	20667
897.103	20819
897.224	20743
897.345	20686
897.466	20670
897.587	20560
897.708	20667
897.828	20526
897.949	20533
898.07	20552
898.19	20560
898.311	20667
898.431	20560
898.552	20674
898.672	20640
898.792	20648
898.913	20674
899.033	20469
899.153	20541
899.273	20305
899.393	20438
899.513	20377
899.633	20366
899.753	20385
899.873	20332
899.993	20499
900.113	20282
900.232	20313
900.352	20210
900.472	20176
900.591	20062
900.711	20157
900.83	20111
900.95	20248
901.069	20187
901.189	20043
901.308	19852
901.427	19674
901.546	19765
901.665	19746
901.784	19712
901.904	19677
902.023	19468
902.141	19339
902.26	19251
902.379	19441
902.498	19232
902.617	19251
902.735	19297
902.854	19129
902.973	19110
903.091	18825
903.21	18829
903.328	18973
903.446	18627
903.565	18707
903.683	18760
903.801	18688
903.919	18597
904.038	18574
904.156	18525
904.274	18365
904.392	18437
904.51	18410
904.627	18376
904.745	18509
904.863	18513
904.981	18186
905.098	18041
905.216	18091
905.334	18186
905.451	18102
905.569	18007
905.686	18136
905.803	18102
905.921	17977
906.038	17950
906.155	18049
906.272	17790
906.389	17809
906.506	17718
906.623	17566
906.74	17623
906.857	17528
906.974	17516
907.091	17672
907.208	17764
907.324	17665
907.441	17505
907.557	17410
907.674	17364
907.79	17334
907.907	17204
908.023	17299
908.139	17398
908.256	17292
908.372	17227
908.488	17242
908.604	17212
908.72	17006
908.836	17128
908.952	17140
909.068	17067
909.184	17200
909.3	17006
909.415	17109
909.531	16965
909.647	16755
909.762	16812
909.878	16748
909.993	16713
910.108	16755
910.224	16835
910.339	16698
910.454	16679
910.57	16653
910.685	16535
910.8	16729
910.915	16706
911.03	16584
911.145	16424
911.259	16356
911.374	16306
911.489	16363
911.604	16295
911.718	16124
911.833	16101
911.947	16013
912.062	15926
912.176	16120
912.291	16181
912.405	16116
912.519	16333
912.633	16188
912.748	16196
912.862	16040
912.976	15895
913.09	15922
913.204	15876
913.318	16029
913.431	16063
913.545	15949
913.659	16097
913.772	15953
913.886	15736
914	15781
914.113	15869
914.226	15850
914.34	15797
914.453	15576
914.566	15793
914.68	15572
914.793	15572
914.906	15424
915.019	15310
915.132	15321
915.245	15348
915.358	15302
915.47	15321
915.583	15424
915.696	15355
915.809	15313
915.921	15458
916.034	15237
916.146	15332
916.259	15195
916.371	15329
916.483	15408
916.595	15138
916.708	15161
916.82	15173
916.932	15237
917.044	15047
917.156	15074
917.268	14975
917.38	14994
917.491	14941
917.603	14967
917.715	14967
917.826	15093
917.938	14880
918.049	14769
918.161	14849
918.272	15013
918.384	15157
918.495	14952
918.606	14689
918.717	14632
918.828	14811
918.939	14777
919.05	14549
919.161	14682
919.272	14454
919.383	14499
919.494	14750
919.604	14845
919.715	14746
919.826	14598
919.936	14667
920.047	14727
920.157	14705
920.267	14921
920.378	14712
920.488	14667
920.598	14948
920.708	15131
920.818	14853
920.928	14697
921.038	14960
921.148	14941
921.258	14682
921.368	14514
921.477	14431
921.587	14381
921.697	14336
921.806	14537
921.916	14275
922.025	14081
922.134	14043
922.244	13936
922.353	14123
922.462	13986
922.571	13947
922.68	13723
922.789	13731
922.898	13708
923.007	13643
923.116	13723
923.224	13719
923.333	13674
923.442	13495
923.55	13495
923.659	13601
923.767	13556
923.876	13453
923.984	13544
924.092	13419
924.201	13487
924.309	13384
924.417	13514
924.525	13365
924.633	13324
924.741	14214
924.849	13149
924.956	13308
925.064	13156
925.172	13076
925.279	13046
925.387	13179
925.494	13088
925.602	13206
925.709	13103
925.816	13015
925.924	12962
926.031	13069
926.138	12981
926.245	13057
926.352	12905
926.459	13080
926.566	13126
926.673	12985
926.779	12837
926.886	12779
926.993	12665
927.099	12650
927.206	12658
927.312	12460
927.419	12734
927.525	12677
927.631	12650
927.737	12460
927.843	12494
927.95	12361
928.056	12460
928.162	12540
928.267	12414
928.373	13110
928.479	12536
928.585	12346
928.69	12365
928.796	12506
928.901	12380
929.007	12213
929.112	12315
929.218	12292
929.323	12144
929.428	12235
929.533	12296
929.638	12121
929.743	12106
929.848	12171
929.953	12129
930.058	12019
930.163	11977
930.267	11882
930.372	12049
930.477	11912
930.581	12098
930.685	11893
930.79	11756
930.894	11809
930.998	11726
931.103	11901
931.207	11524
931.311	11474
931.415	11410
931.519	11155
931.623	11003
