Data from test_V78500241_473.txt Node
Date: Fri Mar 25 15:45:04 CST 2022
User: usil
Spectrometer: V785-0024
Trigger mode: 0
Integration Time (sec): 4.000000E-1
Scans to average: 1
Nonlinearity correction enabled: false
Boxcar width: 0
Storing dark spectrum: false
XAxis mode: Wavelengths
Number of Pixels in Spectrum: 1024
>>>>>Begin Spectral Data<<<<<
801.071	27641
801.214	27530
801.356	27424
801.499	27302
801.641	27237
801.783	27051
801.926	27287
802.068	27184
802.211	27142
802.353	27230
802.496	26906
802.638	26845
802.78	26811
802.923	26800
803.065	26781
803.208	26735
803.35	26883
803.492	26925
803.635	26952
803.777	26906
803.919	26933
804.061	27165
804.204	27089
804.346	27123
804.488	26792
804.63	26986
804.773	26834
804.915	26979
805.057	27169
805.199	27036
805.341	27173
805.483	27173
805.626	27157
805.768	27009
805.91	27039
806.052	27070
806.194	26960
806.336	27332
806.478	27169
806.62	27176
806.762	27237
806.904	27279
807.046	27599
807.188	27622
807.33	27519
807.472	27454
807.614	27420
807.756	27492
807.898	27298
808.04	27393
808.182	27469
808.324	27336
808.465	27462
808.607	27466
808.749	27641
808.891	27762
809.033	27903
809.174	27842
809.316	27671
809.458	27979
809.6	27679
809.741	27934
809.883	27914
810.025	27960
810.166	27972
810.308	28002
810.45	27846
810.591	27914
810.733	27816
810.875	27720
811.016	27667
811.158	27595
811.299	27846
811.441	27838
811.582	27895
811.724	27713
811.865	27637
812.007	27652
812.148	27720
812.29	27629
812.431	27930
812.573	28135
812.714	28078
812.855	28272
812.997	28409
813.138	28497
813.279	28386
813.421	28303
813.562	28166
813.703	28150
813.845	27937
813.986	27625
814.127	27473
814.268	27447
814.41	27450
814.551	27306
814.692	27488
814.833	27325
814.974	27405
815.115	27310
815.256	27374
815.397	27291
815.539	27203
815.68	27214
815.821	27203
815.962	27180
816.103	27325
816.244	26902
816.385	26910
816.526	27055
816.666	26807
816.807	26587
816.948	26686
817.089	26804
817.23	26659
817.371	26598
817.512	26629
817.653	26579
817.793	26598
817.934	26587
818.075	26571
818.216	26682
818.356	26476
818.497	26499
818.638	26347
818.778	26275
818.919	26423
819.06	26423
819.2	26663
819.341	26705
819.481	26575
819.622	26640
819.762	26880
819.903	26815
820.043	26895
820.184	26872
820.324	26750
820.465	26857
820.605	26796
820.746	26762
820.886	26499
821.026	26716
821.167	26727
821.307	26845
821.447	26743
821.588	26530
821.728	26480
821.868	26259
822.008	26107
822.149	26077
822.289	25959
822.429	25947
822.569	25826
822.709	25784
822.849	25601
822.99	25719
823.13	25605
823.27	25590
823.41	25419
823.55	25384
823.69	25388
823.83	25434
823.97	25384
824.11	25327
824.25	25255
824.389	25297
824.529	25270
824.669	25263
824.809	25285
824.949	25438
825.089	25430
825.228	25187
825.368	25095
825.508	25065
825.648	25137
825.787	25282
825.927	25065
826.067	25103
826.206	25129
826.346	25091
826.485	25179
826.625	25118
826.765	25145
826.904	25274
827.044	24897
827.183	24920
827.323	24715
827.462	24852
827.601	24886
827.741	24745
827.88	24810
828.02	24749
828.159	24837
828.298	24810
828.437	24905
828.577	24760
828.716	25019
828.855	24658
828.994	24570
829.134	24540
829.273	24745
829.412	24391
829.551	24471
829.69	24498
829.829	24544
829.968	24547
830.107	24639
830.246	24502
830.385	24369
830.524	24441
830.663	24422
830.802	24254
830.941	24220
831.08	24171
831.219	24311
831.357	24251
831.496	24418
831.635	24167
831.774	24030
831.913	24030
832.051	23912
832.19	23912
832.329	24045
832.467	23878
832.606	23695
832.744	23813
832.883	23729
833.022	23752
833.16	23805
833.299	23859
833.437	23771
833.576	23843
833.714	23885
833.852	23832
833.991	23851
834.129	23859
834.267	23920
834.406	23904
834.544	23942
834.682	23863
834.821	23817
834.959	24125
835.097	23832
835.235	23893
835.373	23851
835.511	23729
835.65	23665
835.788	23676
835.926	23585
836.064	23482
836.202	23429
836.34	23756
836.478	23684
836.615	23543
836.753	23604
836.891	23882
837.029	23767
837.167	23695
837.305	23649
837.443	23577
837.58	23459
837.718	23573
837.856	23653
837.993	23535
838.131	23471
838.269	23379
838.406	23497
838.544	23311
838.681	23265
838.819	23147
838.956	23003
839.094	23128
839.231	23086
839.369	23178
839.506	23376
839.643	23246
839.781	22946
839.918	22949
840.055	23090
840.193	22915
840.33	22968
840.467	22839
840.604	22965
840.742	23185
840.879	22725
841.016	22831
841.153	22904
841.29	23041
841.427	22850
841.564	23014
841.701	22847
841.838	22927
841.975	22748
842.112	22831
842.249	22873
842.385	22694
842.522	22881
842.659	22740
842.796	22637
842.933	22634
843.069	22569
843.206	22721
843.343	22634
843.479	22618
843.616	22706
843.752	22493
843.889	22432
844.025	22641
844.162	22493
844.298	22622
844.435	22432
844.571	22337
844.708	22569
844.844	22634
844.98	22470
845.117	22440
845.253	22371
845.389	22352
845.525	22367
845.661	22413
845.798	22207
845.934	22181
846.07	22150
846.206	22074
846.342	22299
846.478	22177
846.614	22025
846.75	21804
846.886	21895
847.022	21895
847.158	21918
847.294	21842
847.429	21743
847.565	21926
847.701	22135
847.837	21698
847.972	21618
848.108	21762
848.244	21717
848.379	21515
848.515	21344
848.65	21545
848.786	21416
848.921	21523
849.057	21534
849.192	21568
849.328	21420
849.463	21488
849.598	21507
849.734	21408
849.869	21386
850.004	21241
850.14	21310
850.275	21192
850.41	21161
850.545	21218
850.68	21138
850.815	21294
850.95	21329
851.085	21428
851.22	21355
851.355	21245
851.49	21199
851.625	21207
851.76	21237
851.895	21081
852.03	21184
852.165	21176
852.299	21340
852.434	21393
852.569	21268
852.703	21249
852.838	21252
852.973	21370
853.107	21336
853.242	21188
853.376	21081
853.511	20956
853.645	21017
853.78	21180
853.914	21275
854.048	21100
854.183	21108
854.317	21047
854.451	21264
854.585	21058
854.72	21104
854.854	21264
854.988	21062
855.122	21036
855.256	20933
855.39	21058
855.524	21123
855.658	21138
855.792	21074
855.926	21169
856.06	21020
856.194	21192
856.327	21017
856.461	21112
856.595	20994
856.729	21093
856.862	21176
856.996	21218
857.13	21218
857.263	21226
857.397	21070
857.53	21047
857.664	21173
857.797	21074
857.931	21089
858.064	21089
858.197	21146
858.331	20998
858.464	20994
858.597	20998
858.731	21077
858.864	21116
858.997	21070
859.13	21032
859.263	21127
859.396	21169
859.529	21074
859.662	20986
859.795	20944
859.928	21096
860.061	21287
860.194	21188
860.327	21024
860.46	21138
860.592	21180
860.725	21188
860.858	21180
860.99	21039
861.123	21047
861.256	20990
861.388	20967
861.521	21709
861.653	20948
861.786	20727
861.918	20998
862.05	20944
862.183	20933
862.315	21020
862.447	21074
862.58	21066
862.712	20762
862.844	20743
862.976	20769
863.108	20830
863.24	21142
863.372	20857
863.504	20746
863.636	20853
863.768	20807
863.9	20708
864.032	20716
864.164	20651
864.296	20758
864.428	20830
864.559	20864
864.691	20773
864.823	20823
864.954	20769
865.086	20769
865.217	20689
865.349	20613
865.48	20667
865.612	20636
865.743	20720
865.875	20609
866.006	20648
866.137	20667
866.269	20754
866.4	20739
866.531	20678
866.662	20629
866.793	20537
866.924	20564
867.055	20609
867.186	20598
867.317	20621
867.448	20549
867.579	20689
867.71	20499
867.841	20560
867.972	20552
868.103	20609
868.233	20609
868.364	20716
868.495	20594
868.625	20830
868.756	20960
868.886	20804
869.017	20853
869.147	20941
869.278	21005
869.408	20861
869.539	20906
869.669	21039
869.799	21009
869.929	20883
870.06	20982
870.19	21249
870.32	21119
870.45	21131
870.58	21317
870.71	21294
870.84	21378
870.97	21279
871.1	21252
871.23	21416
871.36	21450
871.489	21306
871.619	21405
871.749	21542
871.879	21435
872.008	21454
872.138	21428
872.267	21332
872.397	21317
872.526	21428
872.656	21336
872.785	21306
872.915	21443
873.044	21553
873.173	21549
873.303	21374
873.432	21466
873.561	21583
873.69	21557
873.819	21447
873.948	21549
874.077	21511
874.206	21397
874.335	21450
874.464	21606
874.593	21732
874.722	21580
874.851	21781
874.979	21747
875.108	21793
875.237	21686
875.365	21610
875.494	21747
875.623	21770
875.751	21629
875.88	21660
876.008	21816
876.136	21937
876.265	22200
876.393	22249
876.521	22135
876.65	22158
876.778	22105
876.906	21991
877.034	21994
877.162	22124
877.29	21956
877.418	22067
877.546	21972
877.674	22109
877.802	21979
877.93	22147
878.058	21930
878.185	21972
878.313	21968
878.441	21983
878.568	21869
878.696	22021
878.824	22112
878.951	22051
879.079	22253
879.206	22398
879.333	22192
879.461	22078
879.588	22185
879.715	22200
879.842	22405
879.97	22116
880.097	21945
880.224	21903
880.351	21785
880.478	21975
880.605	21778
880.732	21816
880.859	22135
880.986	21873
881.112	21899
881.239	21747
881.366	21629
881.493	21526
881.619	21420
881.746	21469
881.872	21545
881.999	21443
882.125	21481
882.252	21466
882.378	21500
882.505	21545
882.631	21249
882.757	21119
882.883	21184
883.01	21085
883.136	21108
883.262	21043
883.388	21001
883.514	21138
883.64	21218
883.766	21195
883.892	20929
884.018	20861
884.143	21077
884.269	21123
884.395	20792
884.52	20819
884.646	20796
884.772	20708
884.897	20701
885.023	20815
885.148	20937
885.274	20902
885.399	20937
885.524	20762
885.65	20830
885.775	20773
885.9	20800
886.025	21028
886.15	20830
886.275	20739
886.4	20720
886.525	20743
886.65	20640
886.775	20800
886.9	20868
887.025	21020
887.149	20750
887.274	20606
887.399	20541
887.523	20583
887.648	20568
887.773	20434
887.897	20712
888.021	20579
888.146	20594
888.27	20659
888.395	20663
888.519	20598
888.643	20587
888.767	20564
888.891	20457
889.015	20313
889.139	20229
889.263	20229
889.387	20549
889.511	20503
889.635	20571
889.759	20412
889.883	20221
890.006	20404
890.13	20507
890.254	20259
890.377	20298
890.501	20088
890.624	20088
890.748	20195
890.871	19986
890.995	19917
891.118	19856
891.241	19959
891.364	19989
891.488	20073
891.611	19887
891.734	20008
891.857	19951
891.98	19955
892.103	19898
892.226	20035
892.349	19799
892.471	19799
892.594	19871
892.717	19951
892.839	19947
892.962	19864
893.085	19936
893.207	19932
893.33	19750
893.452	19917
893.575	19887
893.697	19845
893.819	19970
893.941	19970
894.064	19921
894.186	19765
894.308	19791
894.43	19951
894.552	20100
894.674	19909
894.796	19811
894.918	19852
895.04	19826
895.161	20050
895.283	19871
895.405	19791
895.526	19951
895.648	19906
895.769	19898
895.891	19925
896.012	19932
896.134	19913
896.255	19967
896.376	19955
896.498	19864
896.619	19986
896.74	19803
896.861	19959
896.982	20214
897.103	20351
897.224	20115
897.345	19993
897.466	19967
897.587	20138
897.708	20240
897.828	20149
897.949	20046
898.07	19932
898.19	19959
898.311	20142
898.431	20081
898.552	20050
898.672	20081
898.792	20122
898.913	20195
899.033	19993
899.153	19799
899.273	19738
899.393	19795
899.513	19879
899.633	19868
899.753	19883
899.873	19811
899.993	19830
900.113	19883
900.232	19868
900.352	19769
900.472	19750
900.591	19540
900.711	19624
900.83	19635
900.95	19769
901.069	19719
901.189	19575
901.308	19373
901.427	19228
901.546	19171
901.665	19209
901.784	19255
901.904	19141
902.023	18985
902.141	18806
902.26	18783
902.379	18795
902.498	18863
902.617	18707
902.735	18772
902.854	18642
902.973	18604
903.091	18498
903.21	18445
903.328	18471
903.446	18483
903.565	18129
903.683	18292
903.801	18129
903.919	18155
904.038	18163
904.156	17996
904.274	18098
904.392	17954
904.51	17999
904.627	17996
904.745	18007
904.863	18133
904.981	17798
905.098	17699
905.216	17630
905.334	17745
905.451	17649
905.569	17608
905.686	17687
905.803	17615
905.921	17444
906.038	17573
906.155	17493
906.272	17326
906.389	17280
906.506	17280
906.623	17143
906.74	17143
906.857	17083
906.974	17094
907.091	17185
907.208	17174
907.324	17189
907.441	17029
907.557	16942
907.674	16835
907.79	16752
907.907	16835
908.023	17003
908.139	16729
908.256	16862
908.372	16812
908.488	16706
908.604	16599
908.72	16546
908.836	16725
908.952	16596
909.068	16691
909.184	16744
909.3	16599
909.415	16622
909.531	16660
909.647	16436
909.762	16379
909.878	16325
909.993	16257
910.108	16265
910.224	16238
910.339	16287
910.454	16276
910.57	16166
910.685	16078
910.8	16428
910.915	16230
911.03	16139
911.145	16055
911.259	15956
911.374	15880
911.489	15827
911.604	15823
911.718	15667
911.833	15618
911.947	15644
912.062	15576
912.176	15656
912.291	15720
912.405	15656
912.519	15903
912.633	15880
912.748	15622
912.862	15667
912.976	15462
913.09	15355
913.204	15561
913.318	15564
913.431	15561
913.545	15568
913.659	15496
913.772	15329
913.886	15393
914	15355
914.113	15405
914.226	15359
914.34	15321
914.453	15116
914.566	15332
914.68	15093
914.793	15169
914.906	14975
915.019	14910
915.132	14845
915.245	14883
915.358	14868
915.47	14948
915.583	14929
915.696	14929
915.809	14990
915.921	15085
916.034	14800
916.146	14765
916.259	14769
916.371	14910
916.483	14830
916.595	14663
916.708	14849
916.82	14727
916.932	14701
917.044	14659
917.156	14621
917.268	14594
917.38	14594
917.491	14610
917.603	14575
917.715	14705
917.826	14678
917.938	14556
918.049	14446
918.161	14530
918.272	14655
918.384	14636
918.495	14507
918.606	14438
918.717	14332
918.828	14400
918.939	14465
919.05	14221
919.161	14366
919.272	14115
919.383	14210
919.494	14434
919.604	14571
919.715	14313
919.826	14259
919.936	14218
920.047	14374
920.157	14309
920.267	14476
920.378	14298
920.488	14240
920.598	14541
920.708	14610
920.818	14381
920.928	14400
921.038	14583
921.148	14552
921.258	14199
921.368	14161
921.477	14024
921.587	14043
921.697	13917
921.806	14077
921.916	13917
922.025	13750
922.134	13647
922.244	13594
922.353	13662
922.462	13525
922.571	13430
922.68	13308
922.789	13316
922.898	13369
923.007	13282
923.116	13400
923.224	13377
923.333	13304
923.442	13160
923.55	13126
923.659	13194
923.767	13236
923.876	13095
923.984	13285
924.092	13023
924.201	13099
924.309	13069
924.417	13027
924.525	13004
924.633	12913
924.741	13784
924.849	12764
924.956	12890
925.064	12798
925.172	12806
925.279	12791
925.387	12856
925.494	12776
925.602	12894
925.709	12856
925.816	12719
925.924	12692
926.031	12707
926.138	12692
926.245	12749
926.352	12612
926.459	12817
926.566	12776
926.673	12585
926.779	12509
926.886	12486
926.993	12338
927.099	12273
927.206	12258
927.312	12300
927.419	12475
927.525	12251
927.631	12391
927.737	12159
927.843	12167
927.95	12106
928.056	12148
928.162	12159
928.267	12182
928.373	12817
928.479	12277
928.585	12034
928.69	12083
928.796	12148
928.901	12022
929.007	11866
929.112	12030
929.218	11961
929.323	11920
929.428	11870
929.533	11954
929.638	11851
929.743	11847
929.848	11904
929.953	11798
930.058	11733
930.163	11577
930.267	11524
930.372	11745
930.477	11497
930.581	11771
930.685	11604
930.79	11501
930.894	11493
930.998	11520
931.103	11554
931.207	11071
931.311	11121
931.415	11003
931.519	10881
931.623	10824
