Data from test_V78500241_3040.txt Node
Date: Fri Mar 25 16:02:51 CST 2022
User: usil
Spectrometer: V785-0024
Trigger mode: 0
Integration Time (sec): 4.000000E-1
Scans to average: 1
Nonlinearity correction enabled: false
Boxcar width: 0
Storing dark spectrum: false
XAxis mode: Wavelengths
Number of Pixels in Spectrum: 1024
>>>>>Begin Spectral Data<<<<<
801.071	28866
801.214	28820
801.356	28508
801.499	28569
801.641	28405
801.783	28287
801.926	28462
802.068	28303
802.211	28185
802.353	28120
802.496	28055
802.638	28112
802.78	28021
802.923	27861
803.065	27934
803.208	28070
803.35	27972
803.492	28226
803.635	28322
803.777	28131
803.919	28341
804.061	28531
804.204	28371
804.346	28067
804.488	28169
804.63	28173
804.773	28238
804.915	28401
805.057	28565
805.199	28329
805.341	28360
805.483	28497
805.626	28405
805.768	28246
805.91	28379
806.052	28443
806.194	28234
806.336	28660
806.478	28466
806.62	28504
806.762	28656
806.904	28888
807.046	29025
807.188	28987
807.33	28911
807.472	29056
807.614	28843
807.756	28793
807.898	28782
808.04	28694
808.182	28721
808.324	28812
808.465	28740
808.607	28938
808.749	29117
808.891	29254
809.033	29254
809.174	29193
809.316	29162
809.458	29284
809.6	29113
809.741	29299
809.883	29296
810.025	29375
810.166	29581
810.308	29402
810.45	29296
810.591	29307
810.733	29147
810.875	29117
811.016	29083
811.158	29113
811.299	29181
811.441	29242
811.582	29197
811.724	29121
811.865	29151
812.007	29231
812.148	29185
812.29	29185
812.431	29379
812.573	29600
812.714	29566
812.855	29627
812.997	29843
813.138	29821
813.279	29779
813.421	29661
813.562	29471
813.703	29474
813.845	29478
813.986	29102
814.127	28972
814.268	28759
814.41	28885
814.551	28850
814.692	28854
814.833	28835
814.974	28801
815.115	28919
815.256	28797
815.397	28824
815.539	28790
815.68	28694
815.821	28554
815.962	28816
816.103	28790
816.244	28599
816.385	28382
816.526	28519
816.666	28280
816.807	28139
816.948	28185
817.089	28268
817.23	28215
817.371	28090
817.512	28074
817.653	28109
817.793	28032
817.934	28067
818.075	28105
818.216	28234
818.356	28131
818.497	28013
818.638	27842
818.778	27968
818.919	28032
819.06	27911
819.2	28097
819.341	28211
819.481	28162
819.622	28371
819.762	28504
819.903	28405
820.043	28478
820.184	28295
820.324	28223
820.465	28405
820.605	28215
820.746	28363
820.886	28223
821.026	28318
821.167	28265
821.307	28352
821.447	28166
821.588	28166
821.728	28051
821.868	27903
822.008	27656
822.149	27667
822.289	27667
822.429	27298
822.569	27359
822.709	27329
822.849	27074
822.99	27131
823.13	27195
823.27	27169
823.41	27039
823.55	26880
823.69	26967
823.83	27150
823.97	27028
824.11	26792
824.25	26712
824.389	26868
824.529	26921
824.669	26773
824.809	27009
824.949	26940
825.089	26845
825.228	26952
825.368	26727
825.508	26655
825.648	26670
825.787	26556
825.927	26815
826.067	26629
826.206	26773
826.346	26861
826.485	26701
826.625	26800
826.765	26861
826.904	26823
827.044	26503
827.183	26385
827.323	26332
827.462	26541
827.601	26530
827.741	26495
827.88	26511
828.02	26278
828.159	26415
828.298	26453
828.437	26537
828.577	26370
828.716	26461
828.855	26347
828.994	26024
829.134	26084
829.273	26039
829.412	26005
829.551	26054
829.69	26020
829.829	26134
829.968	26138
830.107	26134
830.246	26233
830.385	26077
830.524	25928
830.663	25913
830.802	25761
830.941	25632
831.08	25742
831.219	25704
831.357	25879
831.496	25917
831.635	25807
831.774	25590
831.913	25723
832.051	25483
832.19	25479
832.329	25578
832.467	25434
832.606	25400
832.744	25164
832.883	25430
833.022	25415
833.16	25438
833.299	25422
833.437	25411
833.576	25479
833.714	25449
833.852	25396
833.991	25495
834.129	25514
834.267	25578
834.406	25422
834.544	25449
834.682	25377
834.821	25476
834.959	25582
835.097	25388
835.235	25468
835.373	25552
835.511	25506
835.65	25415
835.788	25244
835.926	25240
836.064	25122
836.202	25293
836.34	25171
836.478	25411
836.615	25247
836.753	25232
836.891	25316
837.029	25346
837.167	25133
837.305	25213
837.443	25198
837.58	25118
837.718	25126
837.856	25038
837.993	25114
838.131	25160
838.269	25038
838.406	25076
838.544	25050
838.681	24688
838.819	24764
838.956	24559
839.094	24566
839.231	24696
839.369	24696
839.506	24939
839.643	24719
839.781	24623
839.918	24475
840.055	24578
840.193	24464
840.33	24429
840.467	24422
840.604	24566
840.742	24726
840.879	24247
841.016	24410
841.153	24323
841.29	24597
841.427	24407
841.564	24532
841.701	24547
841.838	24361
841.975	24429
842.112	24376
842.249	24380
842.385	24117
842.522	24547
842.659	24372
842.796	24235
842.933	24152
843.069	24136
843.206	24292
843.343	24327
843.479	24224
843.616	24209
843.752	23946
843.889	23969
844.025	24110
844.162	23969
844.298	24148
844.435	24034
844.571	23973
844.708	23992
844.844	24243
844.98	24148
845.117	24045
845.253	24030
845.389	23863
845.525	23954
845.661	23863
845.798	23676
845.934	23745
846.07	23665
846.206	23802
846.342	23927
846.478	23524
846.614	23520
846.75	23376
846.886	23455
847.022	23512
847.158	23452
847.294	23471
847.429	23528
847.565	23444
847.701	23687
847.837	23193
847.972	23242
848.108	23353
848.244	23208
848.379	23117
848.515	23113
848.65	22980
848.786	23041
848.921	22995
849.057	23185
849.192	23174
849.328	23048
849.463	23037
849.598	22957
849.734	23025
849.869	22946
850.004	22877
850.14	22904
850.275	22790
850.41	22862
850.545	22736
850.68	22733
850.815	22942
850.95	22801
851.085	23037
851.22	22995
851.355	22862
851.49	22839
851.625	22717
851.76	22713
851.895	22820
852.03	22679
852.165	22850
852.299	22889
852.434	22908
852.569	22892
852.703	22835
852.838	22759
852.973	22908
853.107	22885
853.242	22752
853.376	22637
853.511	22462
853.645	22523
853.78	22885
853.914	22561
854.048	22512
854.183	22767
854.317	22527
854.451	22759
854.585	22557
854.72	22569
854.854	22694
854.988	22672
855.122	22618
855.256	22481
855.39	22641
855.524	22603
855.658	22675
855.792	22675
855.926	22850
856.06	22698
856.194	22767
856.327	22599
856.461	22603
856.595	22436
856.729	22660
856.862	22763
856.996	22527
857.13	22599
857.263	22626
857.397	22725
857.53	22641
857.664	22687
857.797	22706
857.931	22656
858.064	22599
858.197	22706
858.331	22702
858.464	22710
858.597	22561
858.731	22653
858.864	22523
858.997	22535
859.13	22637
859.263	22694
859.396	22805
859.529	22691
859.662	22580
859.795	22653
859.928	22626
860.061	22809
860.194	22892
860.327	22748
860.46	22577
860.592	22706
860.725	22698
860.858	22831
860.99	22622
861.123	22660
861.256	22554
861.388	22683
861.521	23216
861.653	22512
861.786	22402
861.918	22470
862.05	22512
862.183	22588
862.315	22573
862.447	22527
862.58	22538
862.712	22390
862.844	22276
862.976	22413
863.108	22443
863.24	22771
863.372	22276
863.504	22371
863.636	22322
863.768	22451
863.9	22261
864.032	22196
864.164	22322
864.296	22287
864.428	22519
864.559	22466
864.691	22352
864.823	22284
864.954	22348
865.086	22253
865.217	22196
865.349	22067
865.48	22181
865.612	22143
865.743	22417
865.875	22230
866.006	22173
866.137	22192
866.269	22150
866.4	22154
866.531	22154
866.662	22162
866.793	22105
866.924	22177
867.055	22154
867.186	22188
867.317	22181
867.448	22040
867.579	22055
867.71	22135
867.841	22105
867.972	22143
868.103	22109
868.233	22188
868.364	22242
868.495	22242
868.625	22272
868.756	22360
868.886	22268
869.017	22394
869.147	22447
869.278	22443
869.408	22500
869.539	22474
869.669	22390
869.799	22455
869.929	22538
870.06	22485
870.19	22698
870.32	22649
870.45	22755
870.58	22881
870.71	22820
870.84	22869
870.97	22797
871.1	22812
871.23	22961
871.36	22957
871.489	22984
871.619	22938
871.749	22980
871.879	22919
872.008	23102
872.138	22957
872.267	22987
872.397	22698
872.526	22759
872.656	22866
872.785	22797
872.915	22843
873.044	22999
873.173	23128
873.303	22987
873.432	23079
873.561	23204
873.69	23022
873.819	22999
873.948	23041
874.077	23086
874.206	22980
874.335	22987
874.464	23102
874.593	23296
874.722	23220
874.851	23337
874.979	23231
875.108	23299
875.237	23117
875.365	23140
875.494	23147
875.623	23280
875.751	23235
875.88	23273
876.008	23391
876.136	23372
876.265	23592
876.393	23710
876.521	23684
876.65	23619
876.778	23733
876.906	23421
877.034	23619
877.162	23573
877.29	23497
877.418	23509
877.546	23573
877.674	23649
877.802	23570
877.93	23562
878.058	23539
878.185	23433
878.313	23528
878.441	23623
878.568	23341
878.696	23436
878.824	23600
878.951	23562
879.079	23798
879.206	23859
879.333	23710
879.461	23619
879.588	23627
879.715	23676
879.842	23798
879.97	23619
880.097	23315
880.224	23383
880.351	23448
880.478	23322
880.605	23360
880.732	23368
880.859	23623
880.986	23288
881.112	23269
881.239	23277
881.366	23124
881.493	23018
881.619	22911
881.746	22793
881.872	22965
881.999	22927
882.125	22828
882.252	22885
882.378	22843
882.505	22980
882.631	22752
882.757	22645
882.883	22717
883.01	22622
883.136	22607
883.262	22462
883.388	22489
883.514	22653
883.64	22622
883.766	22432
883.892	22314
884.018	22356
884.143	22531
884.269	22489
884.395	22375
884.52	22143
884.646	22234
884.772	22246
884.897	22120
885.023	22348
885.148	22325
885.274	22462
885.399	22280
885.524	22211
885.65	22207
885.775	22234
885.9	22112
886.025	22352
886.15	22371
886.275	22185
886.4	22112
886.525	22074
886.65	22257
886.775	22010
886.9	22268
887.025	22386
887.149	22124
887.274	22070
887.399	21956
887.523	21907
887.648	22002
887.773	21918
887.897	21956
888.021	22040
888.146	21903
888.27	22025
888.395	22101
888.519	22006
888.643	21922
888.767	21991
888.891	21869
889.015	21838
889.139	21797
889.263	21766
889.387	21949
889.511	21998
889.635	21892
889.759	21671
889.883	21743
890.006	21667
890.13	21888
890.254	21728
890.377	21629
890.501	21618
890.624	21488
890.748	21408
890.871	21351
890.995	21325
891.118	21195
891.241	21298
891.364	21344
891.488	21420
891.611	21264
891.734	21447
891.857	21348
891.98	21222
892.103	21226
892.226	21298
892.349	21336
892.471	21077
892.594	21291
892.717	21260
892.839	21131
892.962	21279
893.085	21340
893.207	21203
893.33	21131
893.452	21116
893.575	21241
893.697	21252
893.819	21230
893.941	21256
894.064	21329
894.186	21165
894.308	21291
894.43	21367
894.552	21351
894.674	21264
894.796	21089
894.918	21260
895.04	21173
895.161	21268
895.283	21093
895.405	21165
895.526	21104
895.648	21169
895.769	21188
895.891	21199
896.012	21317
896.134	21195
896.255	21249
896.376	21039
896.498	21222
896.619	21214
896.74	21195
896.861	21279
896.982	21515
897.103	21530
897.224	21405
897.345	21374
897.466	21481
897.587	21367
897.708	21481
897.828	21386
897.949	21386
898.07	21173
898.19	21355
898.311	21439
898.431	21310
898.552	21450
898.672	21389
898.792	21477
898.913	21374
899.033	21184
899.153	21226
899.273	20960
899.393	21131
899.513	21036
899.633	21096
899.753	21081
899.873	21123
899.993	21093
900.113	21108
900.232	21135
900.352	20982
900.472	20967
900.591	20777
900.711	20948
900.83	20906
900.95	20948
901.069	21005
901.189	20899
901.308	20488
901.427	20423
901.546	20503
901.665	20358
901.784	20476
901.904	20347
902.023	20187
902.141	19989
902.26	19978
902.379	19993
902.498	19955
902.617	19818
902.735	19947
902.854	19982
902.973	19803
903.091	19750
903.21	19616
903.328	19582
903.446	19559
903.565	19430
903.683	19430
903.801	19350
903.919	19381
904.038	19308
904.156	19232
904.274	19274
904.392	19251
904.51	19213
904.627	19031
904.745	19137
904.863	19274
904.981	18943
905.098	18913
905.216	18890
905.334	18741
905.451	18817
905.569	18859
905.686	18886
905.803	18905
905.921	18540
906.038	18696
906.155	18578
906.272	18502
906.389	18441
906.506	18346
906.623	18372
906.74	18365
906.857	18239
906.974	18289
907.091	18456
907.208	18471
907.324	18277
907.441	18296
907.557	18076
907.674	17996
907.79	18038
907.907	18007
908.023	18064
908.139	18091
908.256	18030
908.372	17954
908.488	17984
908.604	17893
908.72	17764
908.836	17760
908.952	17745
909.068	17805
909.184	17927
909.3	17824
909.415	17767
909.531	17741
909.647	17490
909.762	17512
909.878	17467
909.993	17482
910.108	17512
910.224	17452
910.339	17452
910.454	17193
910.57	17197
910.685	17284
910.8	17558
910.915	17444
911.03	17337
911.145	17102
911.259	16957
911.374	17048
911.489	16904
911.604	16828
911.718	16793
911.833	16816
911.947	16691
912.062	16596
912.176	16801
912.291	16790
912.405	16820
912.519	16972
912.633	16984
912.748	16744
912.862	16771
912.976	16641
913.09	16455
913.204	16584
913.318	16618
913.431	16744
913.545	16649
913.659	16767
913.772	16531
913.886	16428
914	16333
914.113	16500
914.226	16512
914.34	16398
914.453	16291
914.566	16390
914.68	16261
914.793	16303
914.906	15975
915.019	15911
915.132	15930
915.245	15945
915.358	16013
915.47	16036
915.583	15918
915.696	16036
915.809	16078
915.921	16116
916.034	15876
916.146	15789
916.259	15751
916.371	15876
916.483	15888
916.595	15804
916.708	15766
916.82	15789
916.932	15641
917.044	15736
917.156	15747
917.268	15591
917.38	15606
917.491	15496
917.603	15629
917.715	15614
917.826	15663
917.938	15454
918.049	15504
918.161	15595
918.272	15671
918.384	15530
918.495	15519
918.606	15382
918.717	15283
918.828	15313
918.939	15351
919.05	15241
919.161	15245
919.272	15112
919.383	15108
919.494	15359
919.604	15538
919.715	15359
919.826	15211
919.936	15245
920.047	15313
920.157	15340
920.267	15329
920.378	15241
920.488	15302
920.598	15405
920.708	15580
920.818	15321
920.928	15412
921.038	15572
921.148	15496
921.258	15203
921.368	15138
921.477	14967
921.587	15017
921.697	14883
921.806	14887
921.916	14868
922.025	14682
922.134	14571
922.244	14598
922.353	14610
922.462	14480
922.571	14469
922.68	14271
922.789	14282
922.898	14259
923.007	14256
923.116	14278
923.224	14172
923.333	14298
923.442	14126
923.55	14134
923.659	14183
923.767	14172
923.876	14035
923.984	14046
924.092	14005
924.201	13932
924.309	13989
924.417	13959
924.525	13868
924.633	13894
924.741	14606
924.849	13575
924.956	13868
925.064	13738
925.172	13506
925.279	13715
925.387	13616
925.494	13594
925.602	13753
925.709	13613
925.816	13430
925.924	13533
926.031	13563
926.138	13578
926.245	13578
926.352	13445
926.459	13613
926.566	13594
926.673	13396
926.779	13377
926.886	13354
926.993	13247
927.099	13160
927.206	13129
927.312	13099
927.419	13149
927.525	13168
927.631	13179
927.737	13088
927.843	13080
927.95	13015
928.056	13012
928.162	13027
928.267	13053
928.373	13658
928.479	13179
928.585	12802
928.69	12966
928.796	13004
928.901	12935
929.007	12669
929.112	12947
929.218	12757
929.323	12711
929.428	12677
929.533	12817
929.638	12612
929.743	12654
929.848	12627
929.953	12703
930.058	12498
930.163	12429
930.267	12346
930.372	12566
930.477	12437
930.581	12601
930.685	12395
930.79	12262
930.894	12254
930.998	12186
931.103	12323
931.207	12022
931.311	11897
931.415	11847
931.519	11585
931.623	11707
