Data from test_V78500241_1326.txt Node
Date: Fri Mar 25 15:50:59 CST 2022
User: usil
Spectrometer: V785-0024
Trigger mode: 0
Integration Time (sec): 4.000000E-1
Scans to average: 1
Nonlinearity correction enabled: false
Boxcar width: 0
Storing dark spectrum: false
XAxis mode: Wavelengths
Number of Pixels in Spectrum: 1024
>>>>>Begin Spectral Data<<<<<
801.071	28249
801.214	28280
801.356	28063
801.499	27949
801.641	27766
801.783	27903
801.926	27846
802.068	27861
802.211	27774
802.353	27812
802.496	27534
802.638	27481
802.78	27515
802.923	27363
803.065	27363
803.208	27310
803.35	27462
803.492	27553
803.635	27690
803.777	27511
803.919	27755
804.061	28082
804.204	27720
804.346	27660
804.488	27648
804.63	27762
804.773	27701
804.915	27724
805.057	27686
805.199	27705
805.341	27876
805.483	27835
805.626	27774
805.768	27641
805.91	27873
806.052	27956
806.194	27892
806.336	28120
806.478	27926
806.62	27987
806.762	28120
806.904	28211
807.046	28409
807.188	28295
807.33	28329
807.472	28344
807.614	28143
807.756	28185
807.898	28166
808.04	27918
808.182	28192
808.324	28090
808.465	28185
808.607	28360
808.749	28531
808.891	28481
809.033	28679
809.174	28691
809.316	28409
809.458	28554
809.6	28417
809.741	28687
809.883	28801
810.025	28946
810.166	28774
810.308	28900
810.45	28873
810.591	28755
810.733	28615
810.875	28679
811.016	28428
811.158	28394
811.299	28698
811.441	28919
811.582	28622
811.724	28580
811.865	28687
812.007	28516
812.148	28603
812.29	28470
812.431	28748
812.573	28778
812.714	29048
812.855	29006
812.997	29235
813.138	29341
813.279	29128
813.421	29052
813.562	29025
813.703	28801
813.845	28843
813.986	28596
814.127	28341
814.268	28268
814.41	28322
814.551	28215
814.692	28428
814.833	28192
814.974	28204
815.115	28398
815.256	28181
815.397	28200
815.539	28128
815.68	28078
815.821	28002
815.962	28162
816.103	28013
816.244	28013
816.385	27766
816.526	27823
816.666	27698
816.807	27656
816.948	27610
817.089	27728
817.23	27587
817.371	27705
817.512	27477
817.653	27496
817.793	27351
817.934	27549
818.075	27564
818.216	27542
818.356	27492
818.497	27530
818.638	27203
818.778	27359
818.919	27184
819.06	27325
819.2	27374
819.341	27603
819.481	27667
819.622	27850
819.762	27876
819.903	27804
820.043	27709
820.184	27732
820.324	27751
820.465	27778
820.605	27728
820.746	27720
820.886	27606
821.026	27641
821.167	27652
821.307	27739
821.447	27690
821.588	27545
821.728	27363
821.868	27233
822.008	27161
822.149	27096
822.289	27051
822.429	26754
822.569	26785
822.709	26727
822.849	26518
822.99	26587
823.13	26461
823.27	26518
823.41	26309
823.55	26301
823.69	26366
823.83	26438
823.97	26305
824.11	26111
824.25	26180
824.389	26134
824.529	26240
824.669	26267
824.809	26366
824.949	26256
825.089	26237
825.228	26214
825.368	26065
825.508	26035
825.648	26168
825.787	26119
825.927	26225
826.067	26046
826.206	26058
826.346	26157
826.485	26092
826.625	26020
826.765	26065
826.904	26138
827.044	25784
827.183	25921
827.323	25841
827.462	25784
827.601	25830
827.741	25852
827.88	25776
828.02	25681
828.159	25712
828.298	25708
828.437	25772
828.577	25772
828.716	25864
828.855	25567
828.994	25422
829.134	25567
829.273	25586
829.412	25514
829.551	25415
829.69	25407
829.829	25487
829.968	25609
830.107	25502
830.246	25460
830.385	25476
830.524	25415
830.663	25255
830.802	25301
830.941	25072
831.08	24905
831.219	25263
831.357	25244
831.496	25301
831.635	25141
831.774	25072
831.913	24901
832.051	24798
832.19	24859
832.329	24973
832.467	24753
832.606	24779
832.744	24631
832.883	24833
833.022	24703
833.16	24715
833.299	24779
833.437	24932
833.576	24924
833.714	24882
833.852	24844
833.991	24829
834.129	24901
834.267	24897
834.406	24863
834.544	24745
834.682	24844
834.821	24757
834.959	25027
835.097	24909
835.235	24776
835.373	24760
835.511	24745
835.65	24677
835.788	24555
835.926	24563
836.064	24486
836.202	24445
836.34	24760
836.478	24779
836.615	24452
836.753	24654
836.891	24692
837.029	24707
837.167	24639
837.305	24574
837.443	24536
837.58	24486
837.718	24593
837.856	24502
837.993	24475
838.131	24544
838.269	24361
838.406	24490
838.544	24323
838.681	24194
838.819	24110
838.956	23927
839.094	23851
839.231	24041
839.369	24190
839.506	24384
839.643	24194
839.781	23950
839.918	23984
840.055	23878
840.193	24011
840.33	23859
840.467	23790
840.604	24022
840.742	24087
840.879	23817
841.016	23847
841.153	23851
841.29	23954
841.427	23916
841.564	23847
841.701	23996
841.838	23870
841.975	23863
842.112	23885
842.249	23672
842.385	23687
842.522	23920
842.659	23783
842.796	23653
842.933	23570
843.069	23410
843.206	23531
843.343	23733
843.479	23562
843.616	23646
843.752	23379
843.889	23292
844.025	23459
844.162	23425
844.298	23482
844.435	23337
844.571	23330
844.708	23410
844.844	23562
844.98	23577
845.117	23452
845.253	23440
845.389	23246
845.525	23318
845.661	23299
845.798	23189
845.934	23155
846.07	23170
846.206	23155
846.342	23235
846.478	23105
846.614	22869
846.75	22793
846.886	22862
847.022	22957
847.158	22858
847.294	22881
847.429	22782
847.565	22774
847.701	23094
847.837	22519
847.972	22504
848.108	22843
848.244	22729
848.379	22508
848.515	22386
848.65	22478
848.786	22493
848.921	22523
849.057	22531
849.192	22519
849.328	22462
849.463	22428
849.598	22257
849.734	22386
849.869	22306
850.004	22211
850.14	22226
850.275	22337
850.41	22120
850.545	22143
850.68	22242
850.815	22341
850.95	22230
851.085	22310
851.22	22246
851.355	22082
851.49	22268
851.625	22166
851.76	22124
851.895	22135
852.03	22032
852.165	22253
852.299	22177
852.434	22333
852.569	22257
852.703	22265
852.838	22299
852.973	22306
853.107	22284
853.242	22059
853.376	21979
853.511	21930
853.645	21972
853.78	22090
853.914	21987
854.048	21907
854.183	22017
854.317	22135
854.451	22215
854.585	21998
854.72	21975
854.854	22029
854.988	21968
855.122	22078
855.256	21972
855.39	22040
855.524	22093
855.658	22082
855.792	22090
855.926	21972
856.06	21994
856.194	22086
856.327	21926
856.461	22051
856.595	22006
856.729	21964
856.862	22211
856.996	22040
857.13	22067
857.263	22131
857.397	22173
857.53	21918
857.664	22040
857.797	22048
857.931	22154
858.064	21998
858.197	22204
858.331	21956
858.464	22048
858.597	21934
858.731	22021
858.864	22109
858.997	22082
859.13	22051
859.263	22036
859.396	22120
859.529	21934
859.662	21972
859.795	22006
859.928	21926
860.061	22181
860.194	22226
860.327	22120
860.46	22143
860.592	22116
860.725	22226
860.858	22230
860.99	22025
861.123	22002
861.256	22021
861.388	22116
861.521	22702
861.653	21937
861.786	21789
861.918	21819
862.05	21781
862.183	21987
862.315	22059
862.447	22040
862.58	22025
862.712	21831
862.844	21724
862.976	21865
863.108	21789
863.24	22074
863.372	21637
863.504	21762
863.636	21625
863.768	21789
863.9	21701
864.032	21762
864.164	21739
864.296	21709
864.428	21823
864.559	21774
864.691	21895
864.823	21701
864.954	21739
865.086	21857
865.217	21652
865.349	21591
865.48	21698
865.612	21671
865.743	21789
865.875	21606
866.006	21519
866.137	21663
866.269	21610
866.4	21682
866.531	21553
866.662	21568
866.793	21580
866.924	21523
867.055	21591
867.186	21610
867.317	21545
867.448	21545
867.579	21523
867.71	21435
867.841	21583
867.972	21564
868.103	21507
868.233	21587
868.364	21549
868.495	21701
868.625	21694
868.756	21793
868.886	21770
869.017	21850
869.147	21873
869.278	21842
869.408	21770
869.539	21869
869.669	21869
869.799	21823
869.929	21926
870.06	21846
870.19	22116
870.32	22124
870.45	22188
870.58	22124
870.71	22451
870.84	22246
870.97	22192
871.1	22162
871.23	22337
871.36	22409
871.489	22303
871.619	22375
871.749	22379
871.879	22363
872.008	22398
872.138	22348
872.267	22325
872.397	22181
872.526	22185
872.656	22219
872.785	22200
872.915	22276
873.044	22485
873.173	22413
873.303	22417
873.432	22485
873.561	22470
873.69	22356
873.819	22436
873.948	22577
874.077	22478
874.206	22455
874.335	22478
874.464	22535
874.593	22729
874.722	22573
874.851	22668
874.979	22634
875.108	22611
875.237	22691
875.365	22474
875.494	22607
875.623	22729
875.751	22531
875.88	22668
876.008	22759
876.136	22759
876.265	23033
876.393	23334
876.521	23132
876.65	23075
876.778	23044
876.906	22999
877.034	22900
877.162	22850
877.29	22968
877.418	22900
877.546	22934
877.674	22850
877.802	22927
877.93	22968
878.058	22904
878.185	22839
878.313	22915
878.441	22946
878.568	22786
878.696	22980
878.824	23086
878.951	23067
879.079	23193
879.206	23296
879.333	23178
879.461	23025
879.588	23033
879.715	23060
879.842	23254
879.97	23140
880.097	22713
880.224	22733
880.351	22793
880.478	22664
880.605	22812
880.732	22824
880.859	23121
880.986	22759
881.112	22839
881.239	22672
881.366	22451
881.493	22504
881.619	22341
881.746	22360
881.872	22386
881.999	22348
882.125	22329
882.252	22413
882.378	22329
882.505	22428
882.631	22200
882.757	22097
882.883	22082
883.01	22010
883.136	21979
883.262	21968
883.388	21873
883.514	22048
883.64	22059
883.766	21926
883.892	21808
884.018	21812
884.143	22002
884.269	22162
884.395	21736
884.52	21701
884.646	21660
884.772	21660
884.897	21629
885.023	21732
885.148	21759
885.274	21865
885.399	21682
885.524	21694
885.65	21728
885.775	21686
885.9	21587
886.025	21850
886.15	21747
886.275	21705
886.4	21610
886.525	21580
886.65	21568
886.775	21652
886.9	21660
887.025	21907
887.149	21637
887.274	21515
887.399	21496
887.523	21458
887.648	21310
887.773	21363
887.897	21549
888.021	21485
888.146	21374
888.27	21488
888.395	21545
888.519	21515
888.643	21526
888.767	21488
888.891	21329
889.015	21116
889.139	21310
889.263	21401
889.387	21401
889.511	21492
889.635	21389
889.759	21154
889.883	21093
890.006	21260
890.13	21321
890.254	21131
890.377	21154
890.501	21028
890.624	21009
890.748	20982
890.871	20807
890.995	20693
891.118	20716
891.241	20769
891.364	20708
891.488	20849
891.611	20891
891.734	20864
891.857	20849
891.98	20708
892.103	20895
892.226	20701
892.349	20750
892.471	20682
892.594	20754
892.717	20705
892.839	20697
892.962	20762
893.085	20864
893.207	20735
893.33	20530
893.452	20621
893.575	20564
893.697	20663
893.819	20686
893.941	20921
894.064	20777
894.186	20560
894.308	20583
894.43	20708
894.552	20777
894.674	20796
894.796	20613
894.918	20663
895.04	20670
895.161	20682
895.283	20682
895.405	20571
895.526	20754
895.648	20716
895.769	20655
895.891	20705
896.012	20731
896.134	20659
896.255	20598
896.376	20659
896.498	20579
896.619	20640
896.74	20571
896.861	20735
896.982	20979
897.103	21165
897.224	20941
897.345	20925
897.466	20807
897.587	20872
897.708	20967
897.828	20845
897.949	20872
898.07	20674
898.19	20872
898.311	20963
898.431	20762
898.552	20849
898.672	20883
898.792	20891
898.913	20842
899.033	20750
899.153	20598
899.273	20499
899.393	20617
899.513	20594
899.633	20609
899.753	20659
899.873	20545
899.993	20667
900.113	20522
900.232	20632
900.352	20613
900.472	20442
900.591	20381
900.711	20362
900.83	20294
900.95	20541
901.069	20484
901.189	20404
901.308	20008
901.427	19986
901.546	19928
901.665	19902
901.784	19955
901.904	19784
902.023	19708
902.141	19662
902.26	19449
902.379	19689
902.498	19460
902.617	19407
902.735	19521
902.854	19422
902.973	19316
903.091	19110
903.21	19114
903.328	19091
903.446	19076
903.565	19000
903.683	18962
903.801	18863
903.919	18810
904.038	18882
904.156	18760
904.274	18738
904.392	18635
904.51	18650
904.627	18669
904.745	18707
904.863	18604
904.981	18403
905.098	18429
905.216	18330
905.334	18380
905.451	18429
905.569	18277
905.686	18426
905.803	18277
905.921	18209
906.038	18262
906.155	18178
906.272	17973
906.389	17992
906.506	17920
906.623	17992
906.74	17950
906.857	17851
906.974	17821
907.091	17889
907.208	18068
907.324	18030
907.441	17821
907.557	17649
907.674	17680
907.79	17570
907.907	17657
908.023	17665
908.139	17657
908.256	17528
908.372	17512
908.488	17417
908.604	17360
908.72	17231
908.836	17364
908.952	17258
909.068	17387
909.184	17482
909.3	17360
909.415	17455
909.531	17364
909.647	17052
909.762	17033
909.878	16984
909.993	16980
910.108	16968
910.224	17060
910.339	17018
910.454	16961
910.57	16984
910.685	16793
910.8	17109
910.915	17064
911.03	16869
911.145	16729
911.259	16660
911.374	16558
911.489	16538
911.604	16561
911.718	16299
911.833	16287
911.947	16223
912.062	16192
912.176	16405
912.291	16371
912.405	16356
912.519	16527
912.633	16497
912.748	16413
912.862	16329
912.976	16211
913.09	16055
913.204	16154
913.318	16249
913.431	16280
913.545	16173
913.659	16223
913.772	16109
913.886	15979
914	15846
914.113	16086
914.226	16071
914.34	16090
914.453	15785
914.566	15926
914.68	15880
914.793	15762
914.906	15595
915.019	15538
915.132	15454
915.245	15591
915.358	15557
915.47	15671
915.583	15473
915.696	15644
915.809	15564
915.921	15732
916.034	15458
916.146	15466
916.259	15405
916.371	15515
916.483	15496
916.595	15420
916.708	15435
916.82	15420
916.932	15344
917.044	15340
917.156	15336
917.268	15154
917.38	15214
917.491	15131
917.603	15085
917.715	15249
917.826	15329
917.938	15100
918.049	15077
918.161	15157
918.272	15294
918.384	15245
918.495	15077
918.606	15062
918.717	14845
918.828	14929
918.939	15001
919.05	14849
919.161	14887
919.272	14773
919.383	14800
919.494	15047
919.604	15272
919.715	14937
919.826	14792
919.936	14853
920.047	14937
920.157	14925
920.267	15055
920.378	14944
920.488	14724
920.598	15051
920.708	15112
920.818	15066
920.928	15066
921.038	15131
921.148	15150
921.258	14861
921.368	14769
921.477	14670
921.587	14606
921.697	14495
921.806	14583
921.916	14442
922.025	14305
922.134	14240
922.244	14225
922.353	14210
922.462	14149
922.571	13978
922.68	13837
922.789	13906
922.898	13955
923.007	13822
923.116	14024
923.224	13879
923.333	13837
923.442	13757
923.55	13616
923.659	13696
923.767	13791
923.876	13788
923.984	13765
924.092	13685
924.201	13727
924.309	13647
924.417	13594
924.525	13578
924.633	13559
924.741	14465
924.849	13369
924.956	13434
925.064	13350
925.172	13335
925.279	13304
925.387	13335
925.494	13270
925.602	13403
925.709	13358
925.816	13084
925.924	13228
926.031	13362
926.138	13304
926.245	13301
926.352	13175
926.459	13270
926.566	13308
926.673	13232
926.779	13008
926.886	12985
926.993	12882
927.099	12814
927.206	12715
927.312	12810
927.419	12966
927.525	12810
927.631	12897
927.737	12730
927.843	12658
927.95	12616
928.056	12616
928.162	12662
928.267	12654
928.373	13232
928.479	12787
928.585	12509
928.69	12646
928.796	12604
928.901	12536
929.007	12486
929.112	12589
929.218	12490
929.323	12410
929.428	12391
929.533	12555
929.638	12304
929.743	12342
929.848	12311
929.953	12448
930.058	12273
930.163	12034
930.267	12068
930.372	12281
930.477	12019
930.581	12251
930.685	12152
930.79	11969
930.894	11961
930.998	11901
931.103	12106
931.207	11695
931.311	11581
931.415	11566
931.519	11421
931.623	11349
