Data from test_V78500241_1137.txt Node
Date: Fri Mar 25 15:49:40 CST 2022
User: usil
Spectrometer: V785-0024
Trigger mode: 0
Integration Time (sec): 4.000000E-1
Scans to average: 1
Nonlinearity correction enabled: false
Boxcar width: 0
Storing dark spectrum: false
XAxis mode: Wavelengths
Number of Pixels in Spectrum: 1024
>>>>>Begin Spectral Data<<<<<
801.071	28181
801.214	28207
801.356	27949
801.499	27831
801.641	27652
801.783	27751
801.926	27816
802.068	27618
802.211	27728
802.353	27614
802.496	27264
802.638	27382
802.78	27431
802.923	27458
803.065	27317
803.208	27374
803.35	27435
803.492	27557
803.635	27545
803.777	27542
803.919	27557
804.061	27778
804.204	27572
804.346	27504
804.488	27534
804.63	27367
804.773	27450
804.915	27648
805.057	27618
805.199	27667
805.341	27610
805.483	27743
805.626	27762
805.768	27610
805.91	27690
806.052	27686
806.194	27663
806.336	27941
806.478	27876
806.62	27724
806.762	27903
806.904	28010
807.046	28238
807.188	28192
807.33	28086
807.472	28280
807.614	28082
807.756	28200
807.898	28147
808.04	28006
808.182	27964
808.324	28166
808.465	28032
808.607	28272
808.749	28440
808.891	28382
809.033	28603
809.174	28478
809.316	28291
809.458	28462
809.6	28394
809.741	28516
809.883	28679
810.025	28752
810.166	28622
810.308	28793
810.45	28630
810.591	28573
810.733	28455
810.875	28409
811.016	28211
811.158	28363
811.299	28401
811.441	28630
811.582	28546
811.724	28497
811.865	28474
812.007	28447
812.148	28394
812.29	28341
812.431	28611
812.573	28702
812.714	28809
812.855	28968
812.997	29010
813.138	29083
813.279	29029
813.421	28961
813.562	28904
813.703	28759
813.845	28645
813.986	28382
814.127	28215
814.268	28116
814.41	28101
814.551	28006
814.692	28207
814.833	28166
814.974	28006
815.115	28029
815.256	28013
815.397	27937
815.539	28002
815.68	27884
815.821	27816
815.962	27869
816.103	27911
816.244	27720
816.385	27694
816.526	27743
816.666	27370
816.807	27424
816.948	27466
817.089	27515
817.23	27500
817.371	27473
817.512	27450
817.653	27344
817.793	27351
817.934	27329
818.075	27488
818.216	27378
818.356	27351
818.497	27218
818.638	27024
818.778	27184
818.919	27184
819.06	27154
819.2	27260
819.341	27488
819.481	27363
819.622	27610
819.762	27698
819.903	27633
820.043	27568
820.184	27500
820.324	27477
820.465	27603
820.605	27572
820.746	27466
820.886	27310
821.026	27519
821.167	27625
821.307	27557
821.447	27454
821.588	27291
821.728	27096
821.868	26994
822.008	26937
822.149	26883
822.289	26834
822.429	26606
822.569	26541
822.709	26587
822.849	26389
822.99	26415
823.13	26309
823.27	26256
823.41	26301
823.55	26096
823.69	26237
823.83	26210
823.97	26221
824.11	25913
824.25	26092
824.389	25913
824.529	26027
824.669	26020
824.809	26199
824.949	26161
825.089	26149
825.228	26065
825.368	25936
825.508	25887
825.648	25822
825.787	26020
825.927	25837
826.067	25845
826.206	25887
826.346	26016
826.485	26065
826.625	25887
826.765	26035
826.904	25890
827.044	25700
827.183	25677
827.323	25723
827.462	25620
827.601	25578
827.741	25609
827.88	25506
828.02	25441
828.159	25544
828.298	25658
828.437	25647
828.577	25616
828.716	25662
828.855	25502
828.994	25236
829.134	25297
829.273	25331
829.412	25350
829.551	25282
829.69	25343
829.829	25320
829.968	25384
830.107	25327
830.246	25354
830.385	25152
830.524	25069
830.663	25171
830.802	24981
830.941	24867
831.08	24977
831.219	24958
831.357	25008
831.496	25164
831.635	24909
831.774	24875
831.913	24859
832.051	24696
832.19	24661
832.329	24711
832.467	24635
832.606	24570
832.744	24456
832.883	24601
833.022	24559
833.16	24650
833.299	24658
833.437	24642
833.576	24741
833.714	24642
833.852	24544
833.991	24661
834.129	24753
834.267	24661
834.406	24585
834.544	24631
834.682	24627
834.821	24578
834.959	24886
835.097	24585
835.235	24745
835.373	24597
835.511	24703
835.65	24513
835.788	24521
835.926	24300
836.064	24262
836.202	24308
836.34	24418
836.478	24650
836.615	24365
836.753	24296
836.891	24441
837.029	24471
837.167	24311
837.305	24429
837.443	24270
837.58	24346
837.718	24247
837.856	24239
837.993	24228
838.131	24300
838.269	24205
838.406	24251
838.544	24076
838.681	23992
838.819	23939
838.956	23885
839.094	23824
839.231	23824
839.369	24034
839.506	24091
839.643	24026
839.781	23748
839.918	23855
840.055	23672
840.193	23680
840.33	23745
840.467	23615
840.604	23722
840.742	24068
840.879	23646
841.016	23676
841.153	23695
841.29	23634
841.427	23790
841.564	23741
841.701	23611
841.838	23581
841.975	23570
842.112	23528
842.249	23471
842.385	23395
842.522	23726
842.659	23471
842.796	23425
842.933	23463
843.069	23440
843.206	23387
843.343	23531
843.479	23398
843.616	23429
843.752	23269
843.889	23147
844.025	23254
844.162	23235
844.298	23341
844.435	23147
844.571	23273
844.708	23197
844.844	23448
844.98	23379
845.117	23322
845.253	23200
845.389	23132
845.525	23010
845.661	23014
845.798	22896
845.934	23086
846.07	22927
846.206	22949
846.342	23105
846.478	22961
846.614	22733
846.75	22668
846.886	22634
847.022	22668
847.158	22615
847.294	22698
847.429	22675
847.565	22565
847.701	22919
847.837	22322
847.972	22409
848.108	22500
848.244	22428
848.379	22291
848.515	22265
848.65	22207
848.786	22177
848.921	22306
849.057	22352
849.192	22272
849.328	22207
849.463	22223
849.598	22135
849.734	22169
849.869	22116
850.004	22036
850.14	22032
850.275	21911
850.41	21972
850.545	21934
850.68	21880
850.815	22040
850.95	21911
851.085	22238
851.22	22238
851.355	22074
851.49	22044
851.625	22002
851.76	22002
851.895	21968
852.03	21979
852.165	21979
852.299	22029
852.434	22082
852.569	22013
852.703	22044
852.838	22166
852.973	22040
853.107	21979
853.242	22059
853.376	21785
853.511	21823
853.645	21793
853.78	21926
853.914	21907
854.048	21793
854.183	21804
854.317	21819
854.451	22025
854.585	21915
854.72	21903
854.854	22006
854.988	21766
855.122	21850
855.256	21667
855.39	21797
855.524	21949
855.658	21842
855.792	21812
855.926	21907
856.06	21892
856.194	21930
856.327	21770
856.461	21736
856.595	21736
856.729	21884
856.862	21945
856.996	22059
857.13	21922
857.263	21956
857.397	21869
857.53	21934
857.664	21956
857.797	21926
857.931	21915
858.064	21945
858.197	21960
858.331	21895
858.464	21755
858.597	21797
858.731	21770
858.864	21838
858.997	21755
859.13	21808
859.263	21842
859.396	22021
859.529	21865
859.662	21884
859.795	21831
859.928	21762
860.061	21960
860.194	22059
860.327	21911
860.46	21838
860.592	21922
860.725	22051
860.858	21880
860.99	21800
861.123	21755
861.256	21743
861.388	21823
861.521	22599
861.653	21736
861.786	21667
861.918	21781
862.05	21724
862.183	21812
862.315	21736
862.447	21930
862.58	21743
862.712	21469
862.844	21504
862.976	21660
863.108	21587
863.24	22147
863.372	21507
863.504	21587
863.636	21477
863.768	21610
863.9	21553
864.032	21538
864.164	21644
864.296	21538
864.428	21755
864.559	21633
864.691	21686
864.823	21648
864.954	21549
865.086	21500
865.217	21500
865.349	21355
865.48	21405
865.612	21428
865.743	21625
865.875	21511
866.006	21310
866.137	21447
866.269	21477
866.4	21504
866.531	21447
866.662	21146
866.793	21401
866.924	21469
867.055	21378
867.186	21530
867.317	21355
867.448	21336
867.579	21458
867.71	21275
867.841	21294
867.972	21405
868.103	21329
868.233	21256
868.364	21386
868.495	21454
868.625	21488
868.756	21606
868.886	21603
869.017	21564
869.147	21713
869.278	21671
869.408	21660
869.539	21530
869.669	21709
869.799	21603
869.929	21641
870.06	21762
870.19	21972
870.32	21812
870.45	22040
870.58	22002
870.71	21987
870.84	22112
870.97	21934
871.1	21968
871.23	22181
871.36	22207
871.489	22067
871.619	22207
871.749	22109
871.879	22284
872.008	22284
872.138	22246
872.267	22322
872.397	22036
872.526	22044
872.656	21987
872.785	21892
872.915	22287
873.044	22329
873.173	22124
873.303	22268
873.432	22219
873.561	22268
873.69	22276
873.819	22150
873.948	22394
874.077	22211
874.206	22101
874.335	22188
874.464	22379
874.593	22474
874.722	22405
874.851	22443
874.979	22512
875.108	22523
875.237	22382
875.365	22318
875.494	22398
875.623	22508
875.751	22295
875.88	22489
876.008	22557
876.136	22550
876.265	22771
876.393	23018
876.521	22881
876.65	22915
876.778	22797
876.906	22626
877.034	22736
877.162	22847
877.29	22710
877.418	22744
877.546	22869
877.674	22782
877.802	22618
877.93	22828
878.058	22561
878.185	22664
878.313	22797
878.441	22672
878.568	22470
878.696	22577
878.824	22797
878.951	22801
879.079	22999
879.206	23094
879.333	22949
879.461	22843
879.588	22839
879.715	23064
879.842	22961
879.97	22767
880.097	22607
880.224	22626
880.351	22611
880.478	22611
880.605	22653
880.732	22679
880.859	22809
880.986	22592
881.112	22577
881.239	22432
881.366	22352
881.493	22348
881.619	22363
881.746	22112
881.872	22207
881.999	22204
882.125	22070
882.252	22219
882.378	22158
882.505	22348
882.631	22097
882.757	21835
882.883	21956
883.01	21747
883.136	21694
883.262	21686
883.388	21762
883.514	21892
883.64	21941
883.766	21709
883.892	21618
884.018	21587
884.143	21660
884.269	21854
884.395	21542
884.52	21534
884.646	21538
884.772	21534
884.897	21420
885.023	21439
885.148	21694
885.274	21545
885.399	21485
885.524	21545
885.65	21496
885.775	21564
885.9	21428
886.025	21686
886.15	21603
886.275	21428
886.4	21507
886.525	21462
886.65	21561
886.775	21439
886.9	21663
887.025	21698
887.149	21576
887.274	21317
887.399	21256
887.523	21237
887.648	21192
887.773	21104
887.897	21348
888.021	21386
888.146	21230
888.27	21408
888.395	21275
888.519	21233
888.643	21180
888.767	21420
888.891	21188
889.015	21009
889.139	21180
889.263	21062
889.387	21028
889.511	21237
889.635	21127
889.759	21036
889.883	20986
890.006	21024
890.13	21135
890.254	21112
890.377	20925
890.501	20819
890.624	20735
890.748	20944
890.871	20667
890.995	20530
891.118	20609
891.241	20625
891.364	20587
891.488	20731
891.611	20731
891.734	20674
891.857	20731
891.98	20796
892.103	20716
892.226	20724
892.349	20636
892.471	20370
892.594	20507
892.717	20438
892.839	20518
892.962	20465
893.085	20708
893.207	20545
893.33	20454
893.452	20454
893.575	20518
893.697	20480
893.819	20708
893.941	20720
894.064	20640
894.186	20412
894.308	20431
894.43	20571
894.552	20674
894.674	20461
894.796	20434
894.918	20564
895.04	20511
895.161	20571
895.283	20522
895.405	20438
895.526	20606
895.648	20533
895.769	20522
895.891	20473
896.012	20609
896.134	20499
896.255	20355
896.376	20461
896.498	20484
896.619	20613
896.74	20419
896.861	20484
896.982	20693
897.103	20971
897.224	20693
897.345	20758
897.466	20640
897.587	20727
897.708	20777
897.828	20754
897.949	20708
898.07	20526
898.19	20640
898.311	20777
898.431	20686
898.552	20777
898.672	20834
898.792	20754
898.913	20663
899.033	20476
899.153	20473
899.273	20366
899.393	20495
899.513	20552
899.633	20328
899.753	20465
899.873	20358
899.993	20492
900.113	20298
900.232	20374
900.352	20377
900.472	20309
900.591	20180
900.711	20286
900.83	20225
900.95	20259
901.069	20339
901.189	20126
901.308	19947
901.427	19780
901.546	19841
901.665	19803
901.784	19928
901.904	19772
902.023	19670
902.141	19396
902.26	19343
902.379	19350
902.498	19312
902.617	19354
902.735	19316
902.854	19331
902.973	19236
903.091	19000
903.21	18935
903.328	19027
903.446	18894
903.565	18760
903.683	18753
903.801	18764
903.919	18760
904.038	18669
904.156	18509
904.274	18623
904.392	18422
904.51	18528
904.627	18532
904.745	18464
904.863	18612
904.981	18315
905.098	18216
905.216	18174
905.334	18308
905.451	18376
905.569	18239
905.686	18205
905.803	18186
905.921	17969
906.038	18133
906.155	18148
906.272	17908
906.389	17916
906.506	17821
906.623	17703
906.74	17699
906.857	17592
906.974	17699
907.091	17935
907.208	17870
907.324	17764
907.441	17627
907.557	17486
907.674	17383
907.79	17337
907.907	17383
908.023	17551
908.139	17402
908.256	17512
908.372	17364
908.488	17261
908.604	17277
908.72	17075
908.836	17220
908.952	17102
909.068	17140
909.184	17239
909.3	17223
909.415	17124
909.531	17273
909.647	16991
909.762	16866
909.878	16862
909.993	16908
910.108	16797
910.224	16881
910.339	16862
910.454	16763
910.57	16675
910.685	16592
910.8	16862
910.915	16934
911.03	16729
911.145	16440
911.259	16523
911.374	16481
911.489	16436
911.604	16341
911.718	16181
911.833	16249
911.947	16093
912.062	16044
912.176	16333
912.291	16238
912.405	16314
912.519	16405
912.633	16405
912.748	16291
912.862	16261
912.976	16006
913.09	15975
913.204	15934
913.318	16055
913.431	16124
913.545	16063
913.659	16116
913.772	15876
913.886	15789
914	15812
914.113	15941
914.226	15979
914.34	15880
914.453	15736
914.566	15865
914.68	15709
914.793	15663
914.906	15526
915.019	15473
915.132	15332
915.245	15401
915.358	15424
915.47	15397
915.583	15336
915.696	15488
915.809	15428
915.921	15545
916.034	15336
916.146	15344
916.259	15310
916.371	15374
916.483	15401
916.595	15291
916.708	15214
916.82	15249
916.932	15161
917.044	15230
917.156	15169
917.268	15062
917.38	15058
917.491	15062
917.603	15024
917.715	15157
917.826	15135
917.938	15028
918.049	14864
918.161	15024
918.272	15104
918.384	15108
918.495	15066
918.606	14845
918.717	14727
918.828	14872
918.939	14960
919.05	14682
919.161	14708
919.272	14587
919.383	14682
919.494	14743
919.604	14986
919.715	14906
919.826	14682
919.936	14743
920.047	14735
920.157	14727
920.267	15032
920.378	14788
920.488	14788
920.598	14864
920.708	15020
920.818	14868
920.928	14891
921.038	15066
921.148	14952
921.258	14693
921.368	14701
921.477	14434
921.587	14461
921.697	14278
921.806	14484
921.916	14290
922.025	14210
922.134	14229
922.244	14092
922.353	14149
922.462	14039
922.571	14008
922.68	13845
922.789	13776
922.898	13788
923.007	13689
923.116	13780
923.224	13795
923.333	13704
923.442	13590
923.55	13677
923.659	13639
923.767	13597
923.876	13548
923.984	13575
924.092	13559
924.201	13616
924.309	13529
924.417	13487
924.525	13426
924.633	13487
924.741	14202
924.849	13232
924.956	13369
925.064	13175
925.172	13183
925.279	13069
925.387	13133
925.494	13209
925.602	13285
925.709	13225
925.816	13164
925.924	13114
926.031	13274
926.138	13088
926.245	13103
926.352	13046
926.459	13156
926.566	13213
926.673	13038
926.779	12844
926.886	12844
926.993	12825
927.099	12757
927.206	12684
927.312	12559
927.419	12779
927.525	12726
927.631	12677
927.737	12604
927.843	12597
927.95	12486
928.056	12525
928.162	12665
928.267	12623
928.373	13213
928.479	12616
928.585	12372
928.69	12486
928.796	12471
928.901	12388
929.007	12213
929.112	12357
929.218	12350
929.323	12319
929.428	12296
929.533	12471
929.638	12285
929.743	12194
929.848	12369
929.953	12216
930.058	12167
930.163	11958
930.267	11961
930.372	12186
930.477	11885
930.581	12129
930.685	12003
930.79	11878
930.894	11828
930.998	11779
931.103	11996
931.207	11596
931.311	11516
931.415	11478
931.519	11185
931.623	11227
