Data from test_V78500241_3161.txt Node
Date: Fri Mar 25 16:03:41 CST 2022
User: usil
Spectrometer: V785-0024
Trigger mode: 0
Integration Time (sec): 4.000000E-1
Scans to average: 1
Nonlinearity correction enabled: false
Boxcar width: 0
Storing dark spectrum: false
XAxis mode: Wavelengths
Number of Pixels in Spectrum: 1024
>>>>>Begin Spectral Data<<<<<
801.071	28417
801.214	28261
801.356	28086
801.499	28048
801.641	28017
801.783	27880
801.926	27911
802.068	27949
802.211	27797
802.353	27759
802.496	27648
802.638	27835
802.78	27591
802.923	27606
803.065	27576
803.208	27561
803.35	27599
803.492	27720
803.635	27762
803.777	27690
803.919	27835
804.061	28200
804.204	27914
804.346	27854
804.488	27576
804.63	27785
804.773	27679
804.915	27842
805.057	27926
805.199	27895
805.341	27838
805.483	27949
805.626	28025
805.768	27895
805.91	27895
806.052	28067
806.194	27934
806.336	28128
806.478	28109
806.62	28006
806.762	28147
806.904	28238
807.046	28485
807.188	28474
807.33	28421
807.472	28478
807.614	28363
807.756	28363
807.898	28401
808.04	28181
808.182	28253
808.324	28192
808.465	28474
808.607	28424
808.749	28748
808.891	28725
809.033	28740
809.174	28733
809.316	28630
809.458	28569
809.6	28542
809.741	28824
809.883	28812
810.025	29025
810.166	28934
810.308	28892
810.45	28968
810.591	28736
810.733	28698
810.875	28546
811.016	28752
811.158	28679
811.299	28679
811.441	28816
811.582	28793
811.724	28752
811.865	28675
812.007	28725
812.148	28630
812.29	28850
812.431	28831
812.573	29025
812.714	29083
812.855	28999
812.997	29391
813.138	29425
813.279	29292
813.421	29239
813.562	29121
813.703	29022
813.845	28805
813.986	28584
814.127	28413
814.268	28322
814.41	28215
814.551	28226
814.692	28466
814.833	28257
814.974	28394
815.115	28333
815.256	28196
815.397	28219
815.539	28219
815.68	28166
815.821	27998
815.962	28116
816.103	28181
816.244	27949
816.385	28078
816.526	27819
816.666	27732
816.807	27561
816.948	27759
817.089	27827
817.23	27728
817.371	27739
817.512	27644
817.653	27641
817.793	27660
817.934	27705
818.075	27622
818.216	27568
818.356	27545
818.497	27648
818.638	27382
818.778	27313
818.919	27310
819.06	27481
819.2	27656
819.341	27705
819.481	27519
819.622	27739
819.762	28070
819.903	28002
820.043	27850
820.184	27831
820.324	27819
820.465	27770
820.605	27800
820.746	27660
820.886	27511
821.026	27743
821.167	27747
821.307	27873
821.447	27701
821.588	27663
821.728	27462
821.868	27245
822.008	27321
822.149	27104
822.289	27112
822.429	26796
822.569	26686
822.709	26906
822.849	26777
822.99	26579
823.13	26533
823.27	26568
823.41	26492
823.55	26408
823.69	26518
823.83	26427
823.97	26503
824.11	26221
824.25	26305
824.389	26233
824.529	26389
824.669	26336
824.809	26446
824.949	26400
825.089	26282
825.228	26320
825.368	26130
825.508	26100
825.648	26157
825.787	26195
825.927	26313
826.067	26157
826.206	26149
826.346	26210
826.485	26191
826.625	26122
826.765	26351
826.904	26134
827.044	25898
827.183	25883
827.323	25860
827.462	25906
827.601	25963
827.741	25868
827.88	25978
828.02	25734
828.159	25879
828.298	25868
828.437	25917
828.577	25655
828.716	25963
828.855	25868
828.994	25605
829.134	25510
829.273	25658
829.412	25464
829.551	25559
829.69	25655
829.829	25506
829.968	25822
830.107	25563
830.246	25605
830.385	25468
830.524	25419
830.663	25422
830.802	25377
830.941	25194
831.08	25118
831.219	25324
831.357	25282
831.496	25369
831.635	25266
831.774	25129
831.913	25236
832.051	24897
832.19	24943
832.329	25019
832.467	24787
832.606	24920
832.744	24700
832.883	24932
833.022	24802
833.16	24745
833.299	24840
833.437	24992
833.576	24909
833.714	24867
833.852	24989
833.991	24894
834.129	24939
834.267	24962
834.406	24932
834.544	25069
834.682	24966
834.821	24871
834.959	25213
835.097	24935
835.235	24894
835.373	24787
835.511	24882
835.65	24764
835.788	24905
835.926	24597
836.064	24559
836.202	24467
836.34	24715
836.478	24882
836.615	24616
836.753	24779
836.891	24890
837.029	24574
837.167	24711
837.305	24460
837.443	24555
837.58	24601
837.718	24559
837.856	24589
837.993	24555
838.131	24593
838.269	24369
838.406	24422
838.544	24410
838.681	24136
838.819	24228
838.956	24053
839.094	23980
839.231	24030
839.369	24121
839.506	24471
839.643	24308
839.781	24053
839.918	23980
840.055	24026
840.193	24022
840.33	23965
840.467	24011
840.604	23946
840.742	24182
840.879	23893
841.016	23942
841.153	23687
841.29	23984
841.427	23965
841.564	24034
841.701	24053
841.838	23961
841.975	23942
842.112	23790
842.249	23851
842.385	23691
842.522	23965
842.659	23745
842.796	23817
842.933	23665
843.069	23691
843.206	23611
843.343	23809
843.479	23805
843.616	23657
843.752	23402
843.889	23539
844.025	23623
844.162	23341
844.298	23581
844.435	23493
844.571	23516
844.708	23459
844.844	23627
844.98	23638
845.117	23604
845.253	23570
845.389	23284
845.525	23429
845.661	23330
845.798	23220
845.934	23307
846.07	23098
846.206	23079
846.342	23258
846.478	23166
846.614	22892
846.75	22881
846.886	22889
847.022	22999
847.158	22896
847.294	22961
847.429	23033
847.565	22904
847.701	23132
847.837	22607
847.972	22588
848.108	22679
848.244	22797
848.379	22535
848.515	22459
848.65	22485
848.786	22538
848.921	22634
849.057	22736
849.192	22641
849.328	22630
849.463	22459
849.598	22432
849.734	22455
849.869	22413
850.004	22230
850.14	22204
850.275	22318
850.41	22333
850.545	22299
850.68	22238
850.815	22322
850.95	22379
851.085	22542
851.22	22398
851.355	22360
851.49	22367
851.625	22303
851.76	22211
851.895	22162
852.03	22150
852.165	22314
852.299	22356
852.434	22394
852.569	22223
852.703	22337
852.838	22318
852.973	22447
853.107	22382
853.242	22249
853.376	22128
853.511	22059
853.645	22116
853.78	22166
853.914	22173
854.048	22177
854.183	22086
854.317	22223
854.451	22219
854.585	22181
854.72	22207
854.854	22219
854.988	22139
855.122	22173
855.256	21994
855.39	22135
855.524	22230
855.658	22253
855.792	22181
855.926	22040
856.06	22162
856.194	22268
856.327	22029
856.461	22097
856.595	22101
856.729	22109
856.862	22166
856.996	22139
857.13	22120
857.263	22249
857.397	22192
857.53	22093
857.664	22082
857.797	22169
857.931	22147
858.064	22166
858.197	22162
858.331	22147
858.464	22048
858.597	22063
858.731	22048
858.864	22105
858.997	22090
859.13	22082
859.263	22112
859.396	22234
859.529	22006
859.662	22093
859.795	22078
859.928	22032
860.061	22284
860.194	22226
860.327	22181
860.46	22219
860.592	22306
860.725	22207
860.858	22299
860.99	22173
861.123	22147
861.256	22116
861.388	22112
861.521	22831
861.653	21937
861.786	21968
861.918	22002
862.05	22032
862.183	22090
862.315	22029
862.447	22139
862.58	22074
862.712	21804
862.844	21857
862.976	21934
863.108	22040
863.24	22150
863.372	21728
863.504	21854
863.636	21789
863.768	21918
863.9	21880
864.032	21736
864.164	21789
864.296	21922
864.428	22013
864.559	21816
864.691	21956
864.823	21797
864.954	21850
865.086	21679
865.217	21720
865.349	21667
865.48	21717
865.612	21652
865.743	21838
865.875	21800
866.006	21675
866.137	21717
866.269	21694
866.4	21663
866.531	21682
866.662	21720
866.793	21576
866.924	21568
867.055	21694
867.186	21709
867.317	21800
867.448	21564
867.579	21599
867.71	21534
867.841	21530
867.972	21603
868.103	21663
868.233	21694
868.364	21652
868.495	21709
868.625	21804
868.756	22025
868.886	21865
869.017	21949
869.147	22051
869.278	22032
869.408	21953
869.539	21865
869.669	21934
869.799	21960
869.929	22109
870.06	22006
870.19	22295
870.32	22272
870.45	22234
870.58	22284
870.71	22379
870.84	22295
870.97	22242
871.1	22188
871.23	22519
871.36	22561
871.489	22314
871.619	22451
871.749	22440
871.879	22481
872.008	22436
872.138	22379
872.267	22478
872.397	22322
872.526	22390
872.656	22287
872.785	22367
872.915	22478
873.044	22687
873.173	22519
873.303	22649
873.432	22596
873.561	22641
873.69	22500
873.819	22497
873.948	22512
874.077	22599
874.206	22504
874.335	22538
874.464	22561
874.593	22649
874.722	22603
874.851	22740
874.979	22771
875.108	22740
875.237	22672
875.365	22577
875.494	22641
875.623	22748
875.751	22767
875.88	22805
876.008	22763
876.136	22847
876.265	23079
876.393	23197
876.521	23102
876.65	23170
876.778	23242
876.906	23014
877.034	23079
877.162	23041
877.29	23014
877.418	23048
877.546	23128
877.674	23052
877.802	23090
877.93	23105
878.058	23067
878.185	22946
878.313	23067
878.441	23044
878.568	22957
878.696	23105
878.824	23022
878.951	23079
879.079	23178
879.206	23440
879.333	23181
879.461	23090
879.588	23364
879.715	23185
879.842	23265
879.97	23193
880.097	23025
880.224	22881
880.351	22801
880.478	22885
880.605	22877
880.732	22896
880.859	23143
880.986	22790
881.112	22919
881.239	22744
881.366	22527
881.493	22706
881.619	22462
881.746	22538
881.872	22466
881.999	22363
882.125	22424
882.252	22474
882.378	22405
882.505	22565
882.631	22356
882.757	22185
882.883	22272
883.01	22169
883.136	22185
883.262	22105
883.388	21907
883.514	22059
883.64	22249
883.766	22124
883.892	21842
884.018	21922
884.143	22101
884.269	22219
884.395	21930
884.52	21747
884.646	21884
884.772	21766
884.897	21625
885.023	21701
885.148	22006
885.274	22006
885.399	21956
885.524	21789
885.65	21842
885.775	21899
885.9	21808
886.025	21808
886.15	21865
886.275	21766
886.4	21568
886.525	21656
886.65	21705
886.775	21618
886.9	21972
887.025	21994
887.149	21808
887.274	21545
887.399	21450
887.523	21557
887.648	21504
887.773	21481
887.897	21587
888.021	21591
888.146	21473
888.27	21682
888.395	21526
888.519	21580
888.643	21625
888.767	21572
888.891	21405
889.015	21355
889.139	21363
889.263	21291
889.387	21420
889.511	21462
889.635	21420
889.759	21237
889.883	21241
890.006	21302
890.13	21466
890.254	21195
890.377	21363
890.501	21066
890.624	20956
890.748	21055
890.871	20982
890.995	20868
891.118	20883
891.241	20921
891.364	20868
891.488	20948
891.611	20891
891.734	20880
891.857	20899
891.98	20895
892.103	20941
892.226	20830
892.349	20918
892.471	20819
892.594	20773
892.717	20701
892.839	20883
892.962	20845
893.085	20853
893.207	20781
893.33	20648
893.452	20758
893.575	20838
893.697	20792
893.819	20910
893.941	20944
894.064	20925
894.186	20777
894.308	20636
894.43	20769
894.552	20891
894.674	20887
894.796	20754
894.918	20739
895.04	20716
895.161	20670
895.283	20777
895.405	20724
895.526	20845
895.648	20651
895.769	20796
895.891	20788
896.012	20944
896.134	20777
896.255	20716
896.376	20716
896.498	20830
896.619	20845
896.74	20800
896.861	20891
896.982	21135
897.103	21195
897.224	20963
897.345	20998
897.466	20918
897.587	20967
897.708	21009
897.828	20967
897.949	20735
898.07	20739
898.19	20823
898.311	21051
898.431	20998
898.552	21058
898.672	21043
898.792	21036
898.913	20967
899.033	20807
899.153	20724
899.273	20682
899.393	20807
899.513	20807
899.633	20651
899.753	20693
899.873	20667
899.993	20724
900.113	20590
900.232	20686
900.352	20670
900.472	20560
900.591	20609
900.711	20556
900.83	20389
900.95	20533
901.069	20590
901.189	20298
901.308	20077
901.427	19955
901.546	20065
901.665	20012
901.784	20043
901.904	19940
902.023	19845
902.141	19609
902.26	19670
902.379	19586
902.498	19537
902.617	19495
902.735	19632
902.854	19571
902.973	19495
903.091	19255
903.21	19308
903.328	19183
903.446	19152
903.565	18996
903.683	19057
903.801	18951
903.919	18905
904.038	18989
904.156	18837
904.274	18810
904.392	18734
904.51	18730
904.627	18711
904.745	18814
904.863	18833
904.981	18639
905.098	18471
905.216	18490
905.334	18426
905.451	18467
905.569	18479
905.686	18521
905.803	18403
905.921	18155
906.038	18311
906.155	18213
906.272	18167
906.389	18053
906.506	18083
906.623	17946
906.74	17965
906.857	17931
906.974	17984
907.091	17946
907.208	18064
907.324	18026
907.441	17840
907.557	17684
907.674	17691
907.79	17638
907.907	17623
908.023	17733
908.139	17691
908.256	17562
908.372	17627
908.488	17547
908.604	17486
908.72	17353
908.836	17448
908.952	17345
909.068	17414
909.184	17486
909.3	17318
909.415	17452
909.531	17406
909.647	17208
909.762	17117
909.878	17128
909.993	17045
910.108	17064
910.224	17086
910.339	17041
910.454	17029
910.57	16915
910.685	16828
910.8	17083
910.915	17022
911.03	16995
911.145	16694
911.259	16649
911.374	16626
911.489	16618
911.604	16611
911.718	16394
911.833	16466
911.947	16462
912.062	16318
912.176	16436
912.291	16489
912.405	16424
912.519	16535
912.633	16630
912.748	16489
912.862	16413
912.976	16295
913.09	16055
913.204	16253
913.318	16234
913.431	16337
913.545	16318
913.659	16329
913.772	16215
913.886	16021
914	16090
914.113	16071
914.226	16169
914.34	16109
914.453	15926
914.566	16090
914.68	15831
914.793	15842
914.906	15770
915.019	15739
915.132	15580
915.245	15637
915.358	15660
915.47	15705
915.583	15720
915.696	15595
915.809	15682
915.921	15709
916.034	15462
916.146	15564
916.259	15496
916.371	15637
916.483	15606
916.595	15439
916.708	15511
916.82	15458
916.932	15428
917.044	15382
917.156	15325
917.268	15222
917.38	15310
917.491	15165
917.603	15332
917.715	15310
917.826	15294
917.938	15176
918.049	15089
918.161	15207
918.272	15306
918.384	15378
918.495	15226
918.606	14998
918.717	14887
918.828	14975
918.939	14998
919.05	14906
919.161	15028
919.272	14796
919.383	14819
919.494	14994
919.604	15131
919.715	14982
919.826	14785
919.936	14956
920.047	15047
920.157	14982
920.267	15157
920.378	15005
920.488	14990
920.598	15203
920.708	15226
920.818	15100
920.928	15093
921.038	15279
921.148	15226
921.258	14868
921.368	14811
921.477	14636
921.587	14674
921.697	14598
921.806	14689
921.916	14488
922.025	14324
922.134	14313
922.244	14298
922.353	14431
922.462	14199
922.571	14111
922.68	14039
922.789	13974
922.898	13997
923.007	13986
923.116	14020
923.224	13909
923.333	13921
923.442	13879
923.55	13826
923.659	13769
923.767	13791
923.876	13738
923.984	13776
924.092	13601
924.201	13693
924.309	13616
924.417	13700
924.525	13525
924.633	13578
924.741	14374
924.849	13453
924.956	13548
925.064	13384
925.172	13282
925.279	13346
925.387	13460
925.494	13350
925.602	13457
925.709	13400
925.816	13187
925.924	13301
926.031	13403
926.138	13362
926.245	13346
926.352	13209
926.459	13331
926.566	13388
926.673	13190
926.779	13069
926.886	13099
926.993	12920
927.099	12947
927.206	12882
927.312	12943
927.419	12947
927.525	12920
927.631	12863
927.737	12741
927.843	12768
927.95	12612
928.056	12696
928.162	12738
928.267	12741
928.373	13411
928.479	12749
928.585	12627
928.69	12642
928.796	12635
928.901	12540
929.007	12551
929.112	12517
929.218	12521
929.323	12437
929.428	12407
929.533	12547
929.638	12327
929.743	12330
929.848	12426
929.953	12334
930.058	12395
930.163	12114
930.267	12068
930.372	12281
930.477	12019
930.581	12308
930.685	12205
930.79	11977
930.894	11992
930.998	11935
931.103	12087
931.207	11767
931.311	11611
931.415	11589
931.519	11356
931.623	11353
