Data from test_V78500241_2394.txt Node
Date: Fri Mar 25 15:58:23 CST 2022
User: usil
Spectrometer: V785-0024
Trigger mode: 0
Integration Time (sec): 4.000000E-1
Scans to average: 1
Nonlinearity correction enabled: false
Boxcar width: 0
Storing dark spectrum: false
XAxis mode: Wavelengths
Number of Pixels in Spectrum: 1024
>>>>>Begin Spectral Data<<<<<
801.071	28911
801.214	28854
801.356	28577
801.499	28493
801.641	28531
801.783	28508
801.926	28497
802.068	28432
802.211	28390
802.353	28268
802.496	28207
802.638	28215
802.78	28059
802.923	27979
803.065	27922
803.208	28090
803.35	28044
803.492	28280
803.635	28386
803.777	28223
803.919	28356
804.061	28626
804.204	28424
804.346	28306
804.488	28291
804.63	28352
804.773	28386
804.915	28443
805.057	28592
805.199	28363
805.341	28409
805.483	28428
805.626	28679
805.768	28424
805.91	28546
806.052	28554
806.194	28489
806.336	28641
806.478	28443
806.62	28478
806.762	28736
806.904	28854
807.046	29060
807.188	28965
807.33	28957
807.472	28968
807.614	28915
807.756	28923
807.898	28790
808.04	28729
808.182	28839
808.324	28908
808.465	28904
808.607	29193
808.749	29185
808.891	29197
809.033	29414
809.174	29296
809.316	29102
809.458	29299
809.6	29178
809.741	29322
809.883	29364
810.025	29623
810.166	29562
810.308	29566
810.45	29524
810.591	29474
810.733	29277
810.875	29170
811.016	29223
811.158	29140
811.299	29410
811.441	29486
811.582	29326
811.724	29261
811.865	29212
812.007	29239
812.148	29353
812.29	29284
812.431	29414
812.573	29581
812.714	29668
812.855	29745
812.997	29954
813.138	30022
813.279	29897
813.421	29878
813.562	29767
813.703	29516
813.845	29501
813.986	29166
814.127	29178
814.268	28862
814.41	28820
814.551	28866
814.692	28961
814.833	28831
814.974	29056
815.115	29018
815.256	28927
815.397	29064
815.539	28755
815.68	28740
815.821	28740
815.962	28805
816.103	28782
816.244	28660
816.385	28561
816.526	28493
816.666	28398
816.807	28238
816.948	28447
817.089	28497
817.23	28215
817.371	28261
817.512	28341
817.653	28082
817.793	28143
817.934	28341
818.075	28234
818.216	28306
818.356	28166
818.497	28120
818.638	27956
818.778	28131
818.919	28078
819.06	28204
819.2	28192
819.341	28287
819.481	28196
819.622	28485
819.762	28569
819.903	28550
820.043	28481
820.184	28352
820.324	28428
820.465	28493
820.605	28424
820.746	28280
820.886	28314
821.026	28504
821.167	28242
821.307	28554
821.447	28322
821.588	28238
821.728	28200
821.868	27774
822.008	27751
822.149	27739
822.289	27675
822.429	27637
822.569	27492
822.709	27538
822.849	27233
822.99	27332
823.13	27260
823.27	27321
823.41	27074
823.55	27154
823.69	27108
823.83	27131
823.97	27146
824.11	26944
824.25	26952
824.389	26979
824.529	26967
824.669	26910
824.809	27028
824.949	26994
825.089	27062
825.228	26990
825.368	26750
825.508	26914
825.648	26872
825.787	26800
825.927	26830
826.067	26769
826.206	26838
826.346	26876
826.485	26910
826.625	26807
826.765	26876
826.904	26914
827.044	26705
827.183	26632
827.323	26480
827.462	26640
827.601	26613
827.741	26571
827.88	26549
828.02	26476
828.159	26522
828.298	26465
828.437	26632
828.577	26503
828.716	26636
828.855	26438
828.994	26256
829.134	26221
829.273	26164
829.412	26157
829.551	26244
829.69	26202
829.829	26214
829.968	26256
830.107	26240
830.246	26240
830.385	26183
830.524	26100
830.663	25970
830.802	25917
830.941	25826
831.08	25860
831.219	25917
831.357	25928
831.496	26096
831.635	25830
831.774	25765
831.913	25833
832.051	25662
832.19	25643
832.329	25628
832.467	25575
832.606	25400
832.744	25582
832.883	25510
833.022	25567
833.16	25445
833.299	25582
833.437	25632
833.576	25499
833.714	25597
833.852	25521
833.991	25449
834.129	25681
834.267	25578
834.406	25616
834.544	25548
834.682	25540
834.821	25582
834.959	25719
835.097	25548
835.235	25639
835.373	25502
835.511	25578
835.65	25350
835.788	25468
835.926	25350
836.064	25247
836.202	25362
836.34	25388
836.478	25453
836.615	25400
836.753	25491
836.891	25483
837.029	25392
837.167	25304
837.305	25190
837.443	25122
837.58	25259
837.718	25346
837.856	25289
837.993	25156
838.131	25095
838.269	25046
838.406	25141
838.544	25080
838.681	24848
838.819	24871
838.956	24700
839.094	24642
839.231	24700
839.369	24996
839.506	25027
839.643	24772
839.781	24757
839.918	24612
840.055	24612
840.193	24513
840.33	24521
840.467	24555
840.604	24787
840.742	24719
840.879	24418
841.016	24566
841.153	24486
841.29	24620
841.427	24525
841.564	24578
841.701	24475
841.838	24623
841.975	24517
842.112	24403
842.249	24281
842.385	24300
842.522	24494
842.659	24342
842.796	24243
842.933	24289
843.069	24247
843.206	24372
843.343	24353
843.479	24304
843.616	24327
843.752	24091
843.889	24072
844.025	24209
844.162	24117
844.298	24281
844.435	24102
844.571	24129
844.708	24163
844.844	24129
844.98	24289
845.117	24087
845.253	24140
845.389	23950
845.525	24076
845.661	23874
845.798	23878
845.934	23832
846.07	23775
846.206	23798
846.342	23965
846.478	23920
846.614	23630
846.75	23421
846.886	23554
847.022	23566
847.158	23558
847.294	23512
847.429	23554
847.565	23520
847.701	23832
847.837	23189
847.972	23383
848.108	23463
848.244	23280
848.379	23166
848.515	23239
848.65	23242
848.786	23197
848.921	23155
849.057	23307
849.192	23204
849.328	23208
849.463	23235
849.598	23094
849.734	23060
849.869	23128
850.004	22942
850.14	22869
850.275	22908
850.41	22809
850.545	22835
850.68	22911
850.815	22942
850.95	22877
851.085	23174
851.22	22965
851.355	23056
851.49	22885
851.625	22820
851.76	22915
851.895	22835
852.03	22930
852.165	22930
852.299	22976
852.434	23067
852.569	22972
852.703	22869
852.838	22908
852.973	23113
853.107	22972
853.242	22953
853.376	22740
853.511	22660
853.645	22630
853.78	22824
853.914	22736
854.048	22824
854.183	22748
854.317	22725
854.451	22877
854.585	22725
854.72	22618
854.854	22736
854.988	22649
855.122	22721
855.256	22527
855.39	22691
855.524	22873
855.658	22782
855.792	22831
855.926	22748
856.06	22752
856.194	22740
856.327	22634
856.461	22733
856.595	22588
856.729	22641
856.862	22900
856.996	22812
857.13	22767
857.263	22793
857.397	22805
857.53	22721
857.664	22687
857.797	22843
857.931	22839
858.064	22767
858.197	22805
858.331	22577
858.464	22733
858.597	22687
858.731	22641
858.864	22668
858.997	22698
859.13	22694
859.263	22812
859.396	22911
859.529	22721
859.662	22656
859.795	22588
859.928	22721
860.061	22744
860.194	22984
860.327	22812
860.46	22729
860.592	22904
860.725	22968
860.858	22820
860.99	22797
861.123	22645
861.256	22763
861.388	22641
861.521	23452
861.653	22618
861.786	22371
861.918	22542
862.05	22645
862.183	22569
862.315	22710
862.447	22664
862.58	22561
862.712	22443
862.844	22360
862.976	22577
863.108	22538
863.24	23014
863.372	22421
863.504	22485
863.636	22493
863.768	22409
863.9	22360
864.032	22341
864.164	22398
864.296	22436
864.428	22466
864.559	22485
864.691	22474
864.823	22474
864.954	22489
865.086	22436
865.217	22451
865.349	22337
865.48	22200
865.612	22295
865.743	22489
865.875	22405
866.006	22188
866.137	22462
866.269	22390
866.4	22230
866.531	22192
866.662	22215
866.793	22291
866.924	22265
867.055	22181
867.186	22318
867.317	22238
867.448	22211
867.579	22173
867.71	22074
867.841	22249
867.972	22360
868.103	22246
868.233	22173
868.364	22265
868.495	22356
868.625	22466
868.756	22538
868.886	22287
869.017	22436
869.147	22577
869.278	22649
869.408	22459
869.539	22523
869.669	22478
869.799	22500
869.929	22542
870.06	22694
870.19	22721
870.32	22706
870.45	22843
870.58	22797
870.71	22854
870.84	22873
870.97	22835
871.1	22953
871.23	22953
871.36	22991
871.489	22946
871.619	22923
871.749	23124
871.879	23052
872.008	23288
872.138	23094
872.267	23159
872.397	22991
872.526	22904
872.656	22911
872.785	22904
872.915	23048
873.044	23235
873.173	23052
873.303	23178
873.432	22995
873.561	23094
873.69	23113
873.819	23086
873.948	23216
874.077	23178
874.206	23128
874.335	23048
874.464	23254
874.593	23303
874.722	23254
874.851	23318
874.979	23315
875.108	23242
875.237	23280
875.365	23155
875.494	23299
875.623	23341
875.751	23261
875.88	23299
876.008	23497
876.136	23611
876.265	23653
876.393	23760
876.521	23859
876.65	23710
876.778	23691
876.906	23649
877.034	23672
877.162	23718
877.29	23611
877.418	23634
877.546	23638
877.674	23638
877.802	23786
877.93	23581
878.058	23558
878.185	23356
878.313	23463
878.441	23642
878.568	23554
878.696	23509
878.824	23554
878.951	23771
879.079	23790
879.206	23882
879.333	23585
879.461	23729
879.588	23741
879.715	23783
879.842	23912
879.97	23764
880.097	23455
880.224	23490
880.351	23497
880.478	23436
880.605	23482
880.732	23509
880.859	23680
880.986	23516
881.112	23414
881.239	23330
881.366	23288
881.493	23170
881.619	23025
881.746	22987
881.872	22999
881.999	22919
882.125	22873
882.252	23025
882.378	22881
882.505	23121
882.631	22809
882.757	22660
882.883	22809
883.01	22634
883.136	22550
883.262	22557
883.388	22565
883.514	22656
883.64	22698
883.766	22565
883.892	22318
884.018	22440
884.143	22691
884.269	22679
884.395	22337
884.52	22223
884.646	22386
884.772	22196
884.897	22200
885.023	22253
885.148	22398
885.274	22447
885.399	22363
885.524	22337
885.65	22333
885.775	22356
885.9	22211
886.025	22386
886.15	22360
886.275	22219
886.4	22204
886.525	22223
886.65	22344
886.775	22204
886.9	22402
887.025	22500
887.149	22246
887.274	22086
887.399	22010
887.523	21991
887.648	21934
887.773	21949
887.897	22010
888.021	22036
888.146	21983
888.27	22070
888.395	22101
888.519	22013
888.643	22109
888.767	22120
888.891	21972
889.015	21857
889.139	21869
889.263	21831
889.387	21835
889.511	21975
889.635	22048
889.759	21789
889.883	21850
890.006	21743
890.13	21903
890.254	21709
890.377	21774
890.501	21580
890.624	21496
890.748	21679
890.871	21473
890.995	21378
891.118	21275
891.241	21325
891.364	21382
891.488	21545
891.611	21355
891.734	21370
891.857	21488
891.98	21481
892.103	21367
892.226	21393
892.349	21310
892.471	21287
892.594	21386
892.717	21424
892.839	21256
892.962	21340
893.085	21374
893.207	21241
893.33	21085
893.452	21226
893.575	21321
893.697	21256
893.819	21526
893.941	21447
894.064	21374
894.186	21112
894.308	21138
894.43	21450
894.552	21393
894.674	21321
894.796	21116
894.918	21256
895.04	21226
895.161	21264
895.283	21325
895.405	21222
895.526	21252
895.648	21287
895.769	21157
895.891	21351
896.012	21348
896.134	21351
896.255	21332
896.376	21268
896.498	21237
896.619	21302
896.74	21329
896.861	21313
896.982	21568
897.103	21793
897.224	21564
897.345	21420
897.466	21416
897.587	21557
897.708	21553
897.828	21553
897.949	21420
898.07	21233
898.19	21428
898.311	21564
898.431	21382
898.552	21492
898.672	21534
898.792	21397
898.913	21557
899.033	21310
899.153	21332
899.273	21142
899.393	21100
899.513	21154
899.633	21199
899.753	21230
899.873	21135
899.993	21150
900.113	21119
900.232	21211
900.352	20967
900.472	20952
900.591	20982
900.711	20899
900.83	20857
900.95	21043
901.069	21066
901.189	20792
901.308	20678
901.427	20495
901.546	20571
901.665	20609
901.784	20473
901.904	20358
902.023	20347
902.141	20084
902.26	20027
902.379	20130
902.498	20039
902.617	20130
902.735	20088
902.854	19967
902.973	19932
903.091	19693
903.21	19696
903.328	19666
903.446	19571
903.565	19438
903.683	19472
903.801	19293
903.919	19346
904.038	19411
904.156	19221
904.274	19301
904.392	19270
904.51	19225
904.627	19171
904.745	19240
904.863	19213
904.981	19012
905.098	18783
905.216	18882
905.334	19046
905.451	18871
905.569	18829
905.686	18848
905.803	18833
905.921	18795
906.038	18772
906.155	18745
906.272	18608
906.389	18669
906.506	18441
906.623	18422
906.74	18445
906.857	18277
906.974	18376
907.091	18433
907.208	18445
907.324	18525
907.441	18277
907.557	18182
907.674	18121
907.79	17999
907.907	18057
908.023	18140
908.139	18186
908.256	18022
908.372	17942
908.488	18034
908.604	17798
908.72	17851
908.836	17904
908.952	17798
909.068	17954
909.184	17931
909.3	17794
909.415	17718
909.531	17836
909.647	17600
909.762	17467
909.878	17524
909.993	17459
910.108	17520
910.224	17467
910.339	17482
910.454	17368
910.57	17330
910.685	17269
910.8	17630
910.915	17471
911.03	17421
911.145	17208
911.259	16961
911.374	17064
911.489	16984
911.604	17010
911.718	16862
911.833	16831
911.947	16733
912.062	16740
912.176	16915
912.291	16858
912.405	16946
912.519	16980
912.633	17033
912.748	16847
912.862	16835
912.976	16672
913.09	16546
913.204	16634
913.318	16683
913.431	16854
913.545	16702
913.659	16774
913.772	16622
913.886	16474
914	16398
914.113	16409
914.226	16622
914.34	16462
914.453	16409
914.566	16508
914.68	16299
914.793	16276
914.906	16154
915.019	16002
915.132	15960
915.245	16013
915.358	16071
915.47	16025
915.583	16055
915.696	16002
915.809	16082
915.921	16071
916.034	16010
916.146	16021
916.259	15724
916.371	15884
916.483	15907
916.595	15842
916.708	15873
916.82	15682
916.932	15842
917.044	15804
917.156	15732
917.268	15584
917.38	15625
917.491	15633
917.603	15679
917.715	15720
917.826	15728
917.938	15587
918.049	15431
918.161	15515
918.272	15717
918.384	15660
918.495	15431
918.606	15313
918.717	15287
918.828	15325
918.939	15462
919.05	15283
919.161	15397
919.272	15131
919.383	15062
919.494	15306
919.604	15549
919.715	15283
919.826	15214
919.936	15298
920.047	15294
920.157	15367
920.267	15477
920.378	15332
920.488	15268
920.598	15515
920.708	15633
920.818	15359
920.928	15348
921.038	15595
921.148	15561
921.258	15302
921.368	15119
921.477	14956
921.587	15093
921.697	14971
921.806	15009
921.916	14891
922.025	14743
922.134	14674
922.244	14568
922.353	14701
922.462	14621
922.571	14412
922.68	14313
922.789	14271
922.898	14339
923.007	14290
923.116	14290
923.224	14240
923.333	14275
923.442	14180
923.55	14065
923.659	14065
923.767	14176
923.876	14050
923.984	14100
924.092	13879
924.201	14077
924.309	14062
924.417	13959
924.525	13959
924.633	13959
924.741	14887
924.849	13822
924.956	13841
925.064	13666
925.172	13639
925.279	13674
925.387	13696
925.494	13662
925.602	13879
925.709	13769
925.816	13609
925.924	13552
926.031	13727
926.138	13620
926.245	13734
926.352	13426
926.459	13727
926.566	13704
926.673	13571
926.779	13468
926.886	13415
926.993	13213
927.099	13183
927.206	13179
927.312	13156
927.419	13247
927.525	13183
927.631	13289
927.737	13213
927.843	13061
927.95	12913
928.056	13012
928.162	13126
928.267	13114
928.373	13643
928.479	13061
928.585	12905
928.69	12962
928.796	12943
928.901	12840
929.007	12722
929.112	12886
929.218	12802
929.323	12764
929.428	12726
929.533	12886
929.638	12631
929.743	12738
929.848	12749
929.953	12738
930.058	12544
930.163	12369
930.267	12391
930.372	12483
930.477	12342
930.581	12521
930.685	12418
930.79	12262
930.894	12251
930.998	12224
931.103	12494
931.207	12072
931.311	11946
931.415	11843
931.519	11688
931.623	11665
