Data from test_V78500241_265.txt Node
Date: Fri Mar 25 15:43:38 CST 2022
User: usil
Spectrometer: V785-0024
Trigger mode: 0
Integration Time (sec): 4.000000E-1
Scans to average: 1
Nonlinearity correction enabled: false
Boxcar width: 0
Storing dark spectrum: false
XAxis mode: Wavelengths
Number of Pixels in Spectrum: 1024
>>>>>Begin Spectral Data<<<<<
801.071	29988
801.214	29843
801.356	29653
801.499	29516
801.641	29653
801.783	29505
801.926	29577
802.068	29490
802.211	29417
802.353	29322
802.496	29375
802.638	29083
802.78	29193
802.923	29102
803.065	29029
803.208	29079
803.35	29193
803.492	29197
803.635	29364
803.777	29178
803.919	29315
804.061	29756
804.204	29273
804.346	29322
804.488	29258
804.63	29326
804.773	29193
804.915	29227
805.057	29474
805.199	29360
805.341	29387
805.483	29402
805.626	29493
805.768	29436
805.91	29463
806.052	29501
806.194	29288
806.336	29642
806.478	29570
806.62	29528
806.762	29634
806.904	29794
807.046	29950
807.188	29885
807.33	29821
807.472	29950
807.614	29764
807.756	29870
807.898	29630
808.04	29627
808.182	29710
808.324	29680
808.465	29813
808.607	29775
808.749	30022
808.891	30026
809.033	30182
809.174	30125
809.316	30022
809.458	30079
809.6	29931
809.741	30174
809.883	30174
810.025	30346
810.166	30289
810.308	30376
810.45	30194
810.591	30243
810.733	30216
810.875	30110
811.016	29939
811.158	29866
811.299	30308
811.441	30414
811.582	30045
811.724	30060
811.865	30011
812.007	30057
812.148	29961
812.29	30136
812.431	30254
812.573	30407
812.714	30426
812.855	30631
812.997	30688
813.138	30726
813.279	30692
813.421	30551
813.562	30494
813.703	30460
813.845	30369
813.986	29992
814.127	29752
814.268	29805
814.41	29771
814.551	29581
814.692	29798
814.833	29756
814.974	29638
815.115	29714
815.256	29638
815.397	29653
815.539	29520
815.68	29474
815.821	29406
815.962	29334
816.103	29337
816.244	29296
816.385	29193
816.526	29254
816.666	29060
816.807	28923
816.948	28915
817.089	29048
817.23	28904
817.371	28968
817.512	28946
817.653	28854
817.793	28786
817.934	29010
818.075	28877
818.216	28767
818.356	28908
818.497	28653
818.638	28592
818.778	28504
818.919	28580
819.06	28748
819.2	28752
819.341	28858
819.481	28934
819.622	28972
819.762	29189
819.903	29102
820.043	29003
820.184	28976
820.324	28763
820.465	28930
820.605	28938
820.746	28923
820.886	28729
821.026	28987
821.167	29071
821.307	28995
821.447	28862
821.588	28771
821.728	28599
821.868	28489
822.008	28268
822.149	28280
822.289	28344
822.429	28234
822.569	28040
822.709	28013
822.849	27774
822.99	27819
823.13	27690
823.27	27755
823.41	27526
823.55	27572
823.69	27412
823.83	27732
823.97	27641
824.11	27462
824.25	27427
824.389	27481
824.529	27370
824.669	27424
824.809	27625
824.949	27469
825.089	27389
825.228	27447
825.368	27184
825.508	27363
825.648	27188
825.787	27317
825.927	27237
826.067	27214
826.206	27302
826.346	27233
826.485	27268
826.625	27306
826.765	27298
826.904	27317
827.044	27020
827.183	27024
827.323	27043
827.462	26937
827.601	26921
827.741	26864
827.88	26975
828.02	26952
828.159	26971
828.298	26891
828.437	26921
828.577	26960
828.716	27024
828.855	26815
828.994	26659
829.134	26602
829.273	26735
829.412	26655
829.551	26606
829.69	26556
829.829	26552
829.968	26541
830.107	26659
830.246	26556
830.385	26545
830.524	26484
830.663	26267
830.802	26286
830.941	26229
831.08	26088
831.219	26161
831.357	26180
831.496	26393
831.635	26214
831.774	26016
831.913	26065
832.051	25959
832.19	25966
832.329	25906
832.467	25852
832.606	25769
832.744	25784
832.883	25974
833.022	25788
833.16	25811
833.299	25685
833.437	25841
833.576	25890
833.714	25898
833.852	25913
833.991	25868
834.129	26096
834.267	25696
834.406	25750
834.544	25875
834.682	25780
834.821	25616
834.959	25921
835.097	25841
835.235	25890
835.373	25780
835.511	25700
835.65	25563
835.788	25628
835.926	25495
836.064	25331
836.202	25434
836.34	25647
836.478	25632
836.615	25590
836.753	25632
836.891	25738
837.029	25662
837.167	25578
837.305	25533
837.443	25377
837.58	25400
837.718	25521
837.856	25537
837.993	25479
838.131	25358
838.269	25339
838.406	25339
838.544	25308
838.681	25190
838.819	24814
838.956	24875
839.094	24840
839.231	24977
839.369	25046
839.506	25278
839.643	25004
839.781	24947
839.918	24749
840.055	24783
840.193	24806
840.33	24779
840.467	24848
840.604	24768
840.742	25076
840.879	24642
841.016	24673
841.153	24658
841.29	24878
841.427	24715
841.564	24741
841.701	24559
841.838	24665
841.975	24627
842.112	24536
842.249	24642
842.385	24555
842.522	24707
842.659	24479
842.796	24452
842.933	24521
843.069	24426
843.206	24422
843.343	24475
843.479	24422
843.616	24422
843.752	24213
843.889	24239
844.025	24213
844.162	24144
844.298	24182
844.435	24034
844.571	24186
844.708	24277
844.844	24330
844.98	24239
845.117	24304
845.253	24087
845.389	24015
845.525	24098
845.661	24148
845.798	23851
845.934	23969
846.07	23786
846.206	24022
846.342	23958
846.478	23794
846.614	23726
846.75	23497
846.886	23543
847.022	23661
847.158	23642
847.294	23627
847.429	23531
847.565	23512
847.701	23882
847.837	23463
847.972	23288
848.108	23406
848.244	23452
848.379	23334
848.515	23337
848.65	23181
848.786	23159
848.921	23239
849.057	23235
849.192	23284
849.328	23250
849.463	23178
849.598	23162
849.734	22968
849.869	23117
850.004	22873
850.14	22934
850.275	22995
850.41	22892
850.545	22854
850.68	22797
850.815	22953
850.95	22736
851.085	22930
851.22	22976
851.355	22866
851.49	22809
851.625	22934
851.76	22850
851.895	22755
852.03	22820
852.165	22911
852.299	22847
852.434	22843
852.569	22877
852.703	22858
852.838	22995
852.973	23037
853.107	22911
853.242	22710
853.376	22767
853.511	22538
853.645	22592
853.78	22721
853.914	22561
854.048	22569
854.183	22649
854.317	22694
854.451	22915
854.585	22538
854.72	22641
854.854	22706
854.988	22596
855.122	22588
855.256	22569
855.39	22634
855.524	22664
855.658	22656
855.792	22634
855.926	22713
856.06	22736
856.194	22805
856.327	22554
856.461	22645
856.595	22538
856.729	22542
856.862	22763
856.996	22721
857.13	22672
857.263	22927
857.397	22774
857.53	22607
857.664	22660
857.797	22679
857.931	22664
858.064	22713
858.197	22736
858.331	22618
858.464	22653
858.597	22599
858.731	22736
858.864	22538
858.997	22622
859.13	22634
859.263	22706
859.396	22637
859.529	22527
859.662	22542
859.795	22470
859.928	22618
860.061	22698
860.194	22866
860.327	22550
860.46	22668
860.592	22691
860.725	22698
860.858	22850
860.99	22721
861.123	22577
861.256	22542
861.388	22474
861.521	23258
861.653	22447
861.786	22405
861.918	22462
862.05	22584
862.183	22523
862.315	22675
862.447	22645
862.58	22519
862.712	22352
862.844	22265
862.976	22519
863.108	22360
863.24	22622
863.372	22116
863.504	22249
863.636	22226
863.768	22329
863.9	22215
864.032	22291
864.164	22417
864.296	22287
864.428	22405
864.559	22379
864.691	22333
864.823	22310
864.954	22196
865.086	22329
865.217	22253
865.349	22215
865.48	22268
865.612	22226
865.743	22284
865.875	22246
866.006	22074
866.137	22181
866.269	22135
866.4	22040
866.531	22101
866.662	22109
866.793	22147
866.924	22116
867.055	22086
867.186	22154
867.317	22029
867.448	22128
867.579	22032
867.71	22063
867.841	21968
867.972	22048
868.103	22070
868.233	22120
868.364	22036
868.495	22093
868.625	22249
868.756	22276
868.886	22272
869.017	22325
869.147	22508
869.278	22341
869.408	22329
869.539	22325
869.669	22470
869.799	22409
869.929	22390
870.06	22382
870.19	22645
870.32	22656
870.45	22580
870.58	22683
870.71	22854
870.84	22873
870.97	22717
871.1	22664
871.23	22885
871.36	23006
871.489	22805
871.619	22923
871.749	22980
871.879	22850
872.008	23105
872.138	23029
872.267	22877
872.397	22831
872.526	22649
872.656	22710
872.785	22710
872.915	22866
873.044	23029
873.173	22949
873.303	22938
873.432	22927
873.561	23064
873.69	22968
873.819	22991
873.948	23064
874.077	22755
874.206	22991
874.335	22866
874.464	23083
874.593	23254
874.722	23132
874.851	23250
874.979	23231
875.108	23174
875.237	23037
875.365	23048
875.494	23075
875.623	23124
875.751	23113
875.88	23220
876.008	23231
876.136	23410
876.265	23551
876.393	23649
876.521	23589
876.65	23592
876.778	23486
876.906	23509
877.034	23459
877.162	23501
877.29	23493
877.418	23558
877.546	23589
877.674	23429
877.802	23421
877.93	23372
878.058	23402
878.185	23368
878.313	23410
878.441	23490
878.568	23387
878.696	23440
878.824	23566
878.951	23493
879.079	23619
879.206	23726
879.333	23630
879.461	23581
879.588	23585
879.715	23668
879.842	23866
879.97	23554
880.097	23307
880.224	23383
880.351	23417
880.478	23303
880.605	23170
880.732	23258
880.859	23474
880.986	23303
881.112	23246
881.239	23193
881.366	22991
881.493	22999
881.619	22812
881.746	22820
881.872	22877
881.999	22835
882.125	22862
882.252	22984
882.378	22942
882.505	22942
882.631	22801
882.757	22748
882.883	22691
883.01	22626
883.136	22565
883.262	22436
883.388	22421
883.514	22599
883.64	22645
883.766	22440
883.892	22242
884.018	22306
884.143	22535
884.269	22508
884.395	22371
884.52	22230
884.646	22120
884.772	22166
884.897	21987
885.023	22200
885.148	22291
885.274	22272
885.399	22276
885.524	22219
885.65	22234
885.775	22226
885.9	22230
886.025	22322
886.15	22158
886.275	22158
886.4	22120
886.525	22173
886.65	22169
886.775	22048
886.9	22268
887.025	22360
887.149	22211
887.274	21903
887.399	21949
887.523	21960
887.648	21922
887.773	21842
887.897	22040
888.021	21994
888.146	21873
888.27	22025
888.395	22112
888.519	21918
888.643	21987
888.767	22055
888.891	21762
889.015	21713
889.139	21800
889.263	21663
889.387	21778
889.511	21922
889.635	21861
889.759	21694
889.883	21690
890.006	21709
890.13	21743
890.254	21534
890.377	21564
890.501	21469
890.624	21291
890.748	21386
890.871	21416
890.995	21203
891.118	21226
891.241	21237
891.364	21169
891.488	21329
891.611	21249
891.734	21199
891.857	21386
891.98	21260
892.103	21325
892.226	21218
892.349	21211
892.471	21028
892.594	21138
892.717	21241
892.839	21207
892.962	21268
893.085	21363
893.207	21199
893.33	21039
893.452	21005
893.575	21154
893.697	21245
893.819	21317
893.941	21233
894.064	21222
894.186	21055
894.308	21081
894.43	21112
894.552	21291
894.674	21184
894.796	20941
894.918	21104
895.04	21108
895.161	21233
895.283	21199
895.405	21119
895.526	21165
895.648	20956
895.769	21150
895.891	21283
896.012	21310
896.134	21077
896.255	21070
896.376	21123
896.498	21161
896.619	21188
896.74	21009
896.861	21237
896.982	21351
897.103	21526
897.224	21393
897.345	21431
897.466	21260
897.587	21424
897.708	21431
897.828	21325
897.949	21313
898.07	21055
898.19	21211
898.311	21359
898.431	21298
898.552	21294
898.672	21336
898.792	21389
898.913	21230
899.033	21199
899.153	21184
899.273	20963
899.393	20902
899.513	20990
899.633	21070
899.753	21039
899.873	20826
899.993	20929
900.113	20838
900.232	20819
900.352	20883
900.472	20845
900.591	20663
900.711	20838
900.83	20682
900.95	20857
901.069	20819
901.189	20648
901.308	20438
901.427	20343
901.546	20362
901.665	20396
901.784	20294
901.904	20313
902.023	20088
902.141	19852
902.26	19913
902.379	20008
902.498	19902
902.617	19746
902.735	19864
902.854	19845
902.973	19677
903.091	19544
903.21	19499
903.328	19533
903.446	19343
903.565	19270
903.683	19354
903.801	19228
903.919	19244
904.038	19240
904.156	19088
904.274	19141
904.392	19088
904.51	19072
904.627	19015
904.745	19103
904.863	19084
904.981	18738
905.098	18715
905.216	18696
905.334	18700
905.451	18635
905.569	18654
905.686	18719
905.803	18703
905.921	18456
906.038	18608
906.155	18429
906.272	18357
906.389	18391
906.506	18338
906.623	18216
906.74	18197
906.857	18163
906.974	18087
907.091	18220
907.208	18266
907.324	18182
907.441	18163
907.557	17965
907.674	17935
907.79	17863
907.907	17832
908.023	17904
908.139	17885
908.256	17775
908.372	17767
908.488	17726
908.604	17657
908.72	17543
908.836	17547
908.952	17509
909.068	17649
909.184	17745
909.3	17657
909.415	17699
909.531	17532
909.647	17349
909.762	17265
909.878	17341
909.993	17273
910.108	17315
910.224	17227
910.339	17288
910.454	17102
910.57	17041
910.685	16980
910.8	17322
910.915	17254
911.03	17045
911.145	16824
911.259	16816
911.374	16839
911.489	16801
911.604	16702
911.718	16569
911.833	16607
911.947	16504
912.062	16455
912.176	16588
912.291	16645
912.405	16645
912.519	16820
912.633	16805
912.748	16580
912.862	16519
912.976	16382
913.09	16284
913.204	16325
913.318	16348
913.431	16459
913.545	16382
913.659	16451
913.772	16249
913.886	16219
914	16116
914.113	16162
914.226	16295
914.34	16192
914.453	16051
914.566	16124
914.68	16006
914.793	16044
914.906	15785
915.019	15759
915.132	15633
915.245	15778
915.358	15808
915.47	15930
915.583	15835
915.696	15857
915.809	15922
915.921	15941
916.034	15648
916.146	15625
916.259	15561
916.371	15671
916.483	15732
916.595	15553
916.708	15473
916.82	15477
916.932	15504
917.044	15538
917.156	15450
917.268	15363
917.38	15370
917.491	15367
917.603	15367
917.715	15420
917.826	15386
917.938	15355
918.049	15203
918.161	15287
918.272	15431
918.384	15336
918.495	15245
918.606	15104
918.717	15093
918.828	15097
918.939	15104
919.05	14948
919.161	15017
919.272	14941
919.383	14963
919.494	15108
919.604	15245
919.715	15036
919.826	14998
919.936	15001
920.047	15150
920.157	15131
920.267	15226
920.378	14998
920.488	15051
920.598	15268
920.708	15336
920.818	15089
920.928	15135
921.038	15268
921.148	15291
921.258	14944
921.368	14815
921.477	14826
921.587	14720
921.697	14682
921.806	14705
921.916	14617
922.025	14461
922.134	14434
922.244	14351
922.353	14423
922.462	14301
922.571	14180
922.68	14081
922.789	14111
922.898	14027
923.007	13944
923.116	13993
923.224	14008
923.333	13989
923.442	13856
923.55	13799
923.659	13970
923.767	13860
923.876	13757
923.984	13860
924.092	13712
924.201	13746
924.309	13681
924.417	13750
924.525	13601
924.633	13727
924.741	14408
924.849	13487
924.956	13578
925.064	13499
925.172	13377
925.279	13365
925.387	13384
925.494	13403
925.602	13499
925.709	13400
925.816	13411
925.924	13327
926.031	13426
926.138	13324
926.245	13445
926.352	13202
926.459	13289
926.566	13377
926.673	13278
926.779	13145
926.886	13084
926.993	12913
927.099	12905
927.206	12935
927.312	12905
927.419	13019
927.525	12935
927.631	13023
927.737	12909
927.843	12848
927.95	12662
928.056	12787
928.162	12779
928.267	12837
928.373	13388
928.479	12791
928.585	12658
928.69	12692
928.796	12760
928.901	12582
929.007	12547
929.112	12612
929.218	12582
929.323	12456
929.428	12559
929.533	12563
929.638	12467
929.743	12388
929.848	12410
929.953	12445
930.058	12296
930.163	12152
930.267	12220
930.372	12304
930.477	12136
930.581	12395
930.685	12190
930.79	12019
930.894	12022
930.998	11996
931.103	12121
931.207	11672
931.311	11619
931.415	11585
931.519	11334
931.623	11296
