Data from test_V78500241_1435.txt Node
Date: Fri Mar 25 15:51:44 CST 2022
User: usil
Spectrometer: V785-0024
Trigger mode: 0
Integration Time (sec): 4.000000E-1
Scans to average: 1
Nonlinearity correction enabled: false
Boxcar width: 0
Storing dark spectrum: false
XAxis mode: Wavelengths
Number of Pixels in Spectrum: 1024
>>>>>Begin Spectral Data<<<<<
801.071	28143
801.214	28211
801.356	27850
801.499	27899
801.641	27713
801.783	27660
801.926	27720
802.068	27591
802.211	27690
802.353	27599
802.496	27332
802.638	27408
802.78	27241
802.923	27340
803.065	27203
803.208	27336
803.35	27264
803.492	27473
803.635	27485
803.777	27382
803.919	27473
804.061	27922
804.204	27637
804.346	27526
804.488	27568
804.63	27580
804.773	27363
804.915	27618
805.057	27675
805.199	27519
805.341	27766
805.483	27778
805.626	27766
805.768	27648
805.91	27675
806.052	27724
806.194	27637
806.336	27953
806.478	27743
806.62	27823
806.762	27835
806.904	27827
807.046	28105
807.188	28234
807.33	28211
807.472	28177
807.614	28112
807.756	28063
807.898	28036
808.04	27838
808.182	27808
808.324	28063
808.465	28051
808.607	28253
808.749	28246
808.891	28481
809.033	28607
809.174	28485
809.316	28382
809.458	28318
809.6	28314
809.741	28428
809.883	28565
810.025	28687
810.166	28634
810.308	28831
810.45	28542
810.591	28592
810.733	28367
810.875	28375
811.016	28242
811.158	28428
811.299	28500
811.441	28493
811.582	28577
811.724	28436
811.865	28291
812.007	28348
812.148	28413
812.29	28386
812.431	28474
812.573	28668
812.714	28797
812.855	28923
812.997	28946
813.138	29212
813.279	29003
813.421	28888
813.562	28885
813.703	28664
813.845	28481
813.986	28337
814.127	28162
814.268	28162
814.41	28055
814.551	28101
814.692	28116
814.833	27922
814.974	28044
815.115	28036
815.256	27850
815.397	27983
815.539	27884
815.68	27926
815.821	27842
815.962	28002
816.103	27854
816.244	27774
816.385	27530
816.526	27523
816.666	27287
816.807	27279
816.948	27542
817.089	27599
817.23	27214
817.371	27526
817.512	27260
817.653	27458
817.793	27386
817.934	27332
818.075	27397
818.216	27355
818.356	27272
818.497	27207
818.638	27116
818.778	27077
818.919	27058
819.06	27154
819.2	27188
819.341	27359
819.481	27348
819.622	27424
819.762	27682
819.903	27542
820.043	27519
820.184	27530
820.324	27401
820.465	27545
820.605	27504
820.746	27332
820.886	27313
821.026	27332
821.167	27382
821.307	27526
821.447	27359
821.588	27294
821.728	27214
821.868	27043
822.008	26769
822.149	26902
822.289	26758
822.429	26545
822.569	26640
822.709	26442
822.849	26278
822.99	26343
823.13	26282
823.27	26202
823.41	26142
823.55	26065
823.69	26164
823.83	26145
823.97	26172
824.11	25879
824.25	25864
824.389	25974
824.529	26024
824.669	26012
824.809	25909
824.949	26050
825.089	25959
825.228	26119
825.368	25738
825.508	25837
825.648	25890
825.787	26027
825.927	25830
826.067	25769
826.206	25894
826.346	26008
826.485	25830
826.625	25849
826.765	25966
826.904	25909
827.044	25719
827.183	25586
827.323	25518
827.462	25525
827.601	25624
827.741	25460
827.88	25662
828.02	25411
828.159	25567
828.298	25537
828.437	25632
828.577	25430
828.716	25613
828.855	25514
828.994	25320
829.134	25065
829.273	25194
829.412	25266
829.551	25217
829.69	25308
829.829	25316
829.968	25289
830.107	25346
830.246	25244
830.385	25107
830.524	25190
830.663	25141
830.802	24935
830.941	24844
831.08	24795
831.219	24821
831.357	24848
831.496	25050
831.635	24897
831.774	24684
831.913	24730
832.051	24597
832.19	24669
832.329	24661
832.467	24540
832.606	24304
832.744	24452
832.883	24528
833.022	24521
833.16	24452
833.299	24635
833.437	24578
833.576	24612
833.714	24467
833.852	24532
833.991	24544
834.129	24688
834.267	24582
834.406	24559
834.544	24642
834.682	24490
834.821	24544
834.959	24715
835.097	24566
835.235	24711
835.373	24574
835.511	24532
835.65	24384
835.788	24452
835.926	24346
836.064	24235
836.202	24235
836.34	24384
836.478	24475
836.615	24361
836.753	24369
836.891	24456
837.029	24445
837.167	24311
837.305	24300
837.443	24357
837.58	24232
837.718	24300
837.856	24239
837.993	24232
838.131	24190
838.269	24140
838.406	24232
838.544	24041
838.681	23931
838.819	23840
838.956	23668
839.094	23680
839.231	23707
839.369	23836
839.506	24068
839.643	23878
839.781	23714
839.918	23577
840.055	23710
840.193	23638
840.33	23695
840.467	23619
840.604	23665
840.742	23920
840.879	23490
841.016	23630
841.153	23638
841.29	23748
841.427	23535
841.564	23615
841.701	23524
841.838	23463
841.975	23463
842.112	23554
842.249	23501
842.385	23486
842.522	23501
842.659	23444
842.796	23288
842.933	23372
843.069	23284
843.206	23372
843.343	23395
843.479	23250
843.616	23448
843.752	23121
843.889	23170
844.025	23315
844.162	23170
844.298	23330
844.435	23189
844.571	23094
844.708	23220
844.844	23250
844.98	23162
845.117	23246
845.253	22923
845.389	22987
845.525	22972
845.661	22965
845.798	22778
845.934	22965
846.07	22782
846.206	22828
846.342	22995
846.478	22850
846.614	22580
846.75	22417
846.886	22618
847.022	22683
847.158	22504
847.294	22584
847.429	22679
847.565	22694
847.701	22824
847.837	22398
847.972	22371
848.108	22356
848.244	22367
848.379	22219
848.515	22215
848.65	22204
848.786	22303
848.921	22158
849.057	22207
849.192	22265
849.328	22223
849.463	22253
849.598	22078
849.734	22006
849.869	22067
850.004	22067
850.14	21865
850.275	22017
850.41	21762
850.545	21895
850.68	21895
850.815	21937
850.95	21842
851.085	22120
851.22	21987
851.355	21937
851.49	21918
851.625	22021
851.76	21949
851.895	21816
852.03	21899
852.165	21907
852.299	22109
852.434	22006
852.569	21857
852.703	21911
852.838	21953
852.973	22215
853.107	22017
853.242	21819
853.376	21884
853.511	21736
853.645	21751
853.78	21873
853.914	21911
854.048	21759
854.183	21709
854.317	21869
854.451	22002
854.585	21903
854.72	21785
854.854	21827
854.988	21610
855.122	21751
855.256	21793
855.39	21778
855.524	21892
855.658	21812
855.792	21785
855.926	21762
856.06	21785
856.194	21880
856.327	21755
856.461	21854
856.595	21614
856.729	21812
856.862	21819
856.996	21709
857.13	21690
857.263	21911
857.397	21774
857.53	21781
857.664	21876
857.797	21766
857.931	21789
858.064	21869
858.197	21876
858.331	21785
858.464	21823
858.597	21686
858.731	21778
858.864	21751
858.997	21690
859.13	21720
859.263	21701
859.396	21644
859.529	21770
859.662	21747
859.795	21747
859.928	21781
860.061	21892
860.194	21838
860.327	21861
860.46	21755
860.592	21842
860.725	21888
860.858	21911
860.99	21869
861.123	21641
861.256	21694
861.388	21732
861.521	22527
861.653	21736
861.786	21549
861.918	21736
862.05	21698
862.183	21736
862.315	21713
862.447	21789
862.58	21618
862.712	21542
862.844	21485
862.976	21545
863.108	21481
863.24	21888
863.372	21458
863.504	21523
863.636	21363
863.768	21500
863.9	21405
864.032	21283
864.164	21473
864.296	21496
864.428	21447
864.559	21469
864.691	21523
864.823	21542
864.954	21420
865.086	21435
865.217	21374
865.349	21264
865.48	21393
865.612	21424
865.743	21542
865.875	21393
866.006	21389
866.137	21306
866.269	21386
866.4	21325
866.531	21287
866.662	21237
866.793	21245
866.924	21256
867.055	21359
867.186	21382
867.317	21317
867.448	21214
867.579	21336
867.71	21226
867.841	21203
867.972	21256
868.103	21260
868.233	21351
868.364	21245
868.495	21329
868.625	21485
868.756	21603
868.886	21485
869.017	21561
869.147	21713
869.278	21568
869.408	21580
869.539	21622
869.669	21507
869.799	21572
869.929	21622
870.06	21591
870.19	21854
870.32	21953
870.45	21994
870.58	21884
870.71	22097
870.84	22006
870.97	21968
871.1	21873
871.23	22086
871.36	22162
871.489	21945
871.619	22226
871.749	22116
871.879	22139
872.008	22261
872.138	22242
872.267	22173
872.397	22078
872.526	21857
872.656	21892
872.785	22112
872.915	22116
873.044	22314
873.173	22238
873.303	22242
873.432	22257
873.561	22109
873.69	22112
873.819	22276
873.948	22306
874.077	22230
874.206	22219
874.335	22109
874.464	22219
874.593	22424
874.722	22421
874.851	22440
874.979	22421
875.108	22557
875.237	22306
875.365	22341
875.494	22291
875.623	22478
875.751	22280
875.88	22204
876.008	22508
876.136	22577
876.265	22759
876.393	22782
876.521	22820
876.65	22892
876.778	22771
876.906	22778
877.034	22637
877.162	22771
877.29	22729
877.418	22725
877.546	22752
877.674	22733
877.802	22763
877.93	22725
878.058	22702
878.185	22668
878.313	22615
878.441	22603
878.568	22561
878.696	22683
878.824	22809
878.951	22733
879.079	23018
879.206	23098
879.333	22839
879.461	22847
879.588	22949
879.715	23022
879.842	22911
879.97	22801
880.097	22512
880.224	22615
880.351	22569
880.478	22493
880.605	22599
880.732	22546
880.859	22702
880.986	22478
881.112	22569
881.239	22405
881.366	22276
881.493	22333
881.619	22158
881.746	22097
881.872	22185
881.999	22078
882.125	22158
882.252	22204
882.378	22143
882.505	22295
882.631	22032
882.757	21797
882.883	21854
883.01	21781
883.136	21789
883.262	21720
883.388	21576
883.514	21797
883.64	21998
883.766	21857
883.892	21652
884.018	21682
884.143	21812
884.269	21789
884.395	21511
884.52	21462
884.646	21526
884.772	21389
884.897	21378
885.023	21325
885.148	21603
885.274	21561
885.399	21549
885.524	21412
885.65	21454
885.775	21515
885.9	21397
886.025	21564
886.15	21515
886.275	21374
886.4	21405
886.525	21408
886.65	21386
886.775	21351
886.9	21545
887.025	21545
887.149	21401
887.274	21230
887.399	21405
887.523	21207
887.648	21150
887.773	21222
887.897	21249
888.021	21298
888.146	21135
888.27	21283
888.395	21401
888.519	21218
888.643	21283
888.767	21382
888.891	21173
889.015	21020
889.139	21051
889.263	21119
889.387	21146
889.511	21135
889.635	21241
889.759	20944
889.883	20830
890.006	20918
890.13	21096
890.254	20971
890.377	20963
890.501	20735
890.624	20731
890.748	20773
890.871	20701
890.995	20533
891.118	20594
891.241	20560
891.364	20708
891.488	20667
891.611	20670
891.734	20598
891.857	20606
891.98	20488
892.103	20727
892.226	20609
892.349	20587
892.471	20358
892.594	20575
892.717	20522
892.839	20575
892.962	20473
893.085	20560
893.207	20400
893.33	20446
893.452	20549
893.575	20587
893.697	20317
893.819	20750
893.941	20530
894.064	20434
894.186	20320
894.308	20446
894.43	20583
894.552	20655
894.674	20530
894.796	20317
894.918	20526
895.04	20457
895.161	20518
895.283	20442
895.405	20400
895.526	20351
895.648	20454
895.769	20423
895.891	20522
896.012	20575
896.134	20526
896.255	20530
896.376	20438
896.498	20457
896.619	20499
896.74	20469
896.861	20530
896.982	20834
897.103	20910
897.224	20678
897.345	20678
897.466	20629
897.587	20598
897.708	20796
897.828	20727
897.949	20659
898.07	20499
898.19	20617
898.311	20705
898.431	20629
898.552	20773
898.672	20788
898.792	20796
898.913	20659
899.033	20590
899.153	20408
899.273	20313
899.393	20442
899.513	20537
899.633	20393
899.753	20511
899.873	20377
899.993	20396
900.113	20415
900.232	20389
900.352	20336
900.472	20240
900.591	20149
900.711	20172
900.83	20244
900.95	20317
901.069	20305
901.189	19997
901.308	19818
901.427	19826
901.546	19788
901.665	19750
901.784	19750
901.904	19586
902.023	19521
902.141	19365
902.26	19362
902.379	19400
902.498	19339
902.617	19396
902.735	19270
902.854	19213
902.973	19187
903.091	18909
903.21	19027
903.328	18920
903.446	18905
903.565	18707
903.683	18779
903.801	18582
903.919	18639
904.038	18730
904.156	18574
904.274	18551
904.392	18532
904.51	18479
904.627	18441
904.745	18536
904.863	18521
904.981	18376
905.098	18205
905.216	18216
905.334	18220
905.451	18220
905.569	18133
905.686	18167
905.803	18163
905.921	17977
906.038	18209
906.155	18015
906.272	17908
906.389	17935
906.506	17764
906.623	17832
906.74	17668
906.857	17604
906.974	17520
907.091	17828
907.208	17901
907.324	17630
907.441	17592
907.557	17478
907.674	17360
907.79	17307
907.907	17433
908.023	17410
908.139	17452
908.256	17337
908.372	17311
908.488	17417
908.604	17170
908.72	17143
908.836	17174
908.952	17136
909.068	17200
909.184	17284
909.3	17151
909.415	17227
909.531	17124
909.647	16847
909.762	16835
909.878	16793
909.993	16900
910.108	16873
910.224	16759
910.339	16873
910.454	16710
910.57	16717
910.685	16565
910.8	16828
910.915	16805
911.03	16687
911.145	16398
911.259	16455
911.374	16451
911.489	16405
911.604	16200
911.718	16284
911.833	16150
911.947	16162
912.062	16029
912.176	16188
912.291	16223
912.405	16211
912.519	16405
912.633	16272
912.748	16219
912.862	16234
912.976	15922
913.09	15846
913.204	15994
913.318	15994
913.431	16150
913.545	15991
913.659	16093
913.772	15941
913.886	15759
914	15819
914.113	15865
914.226	15846
914.34	15842
914.453	15641
914.566	15819
914.68	15713
914.793	15610
914.906	15469
915.019	15374
915.132	15313
915.245	15348
915.358	15386
915.47	15332
915.583	15336
915.696	15336
915.809	15374
915.921	15405
916.034	15268
916.146	15313
916.259	15192
916.371	15317
916.483	15332
916.595	15275
916.708	15214
916.82	15207
916.932	15161
917.044	15127
917.156	15123
917.268	15112
917.38	15077
917.491	14960
917.603	14990
917.715	15100
917.826	15077
917.938	14986
918.049	14804
918.161	14979
918.272	15116
918.384	15013
918.495	14914
918.606	14864
918.717	14712
918.828	14864
918.939	14811
919.05	14765
919.161	14655
919.272	14575
919.383	14712
919.494	14807
919.604	14948
919.715	14804
919.826	14659
919.936	14712
920.047	14807
920.157	14693
920.267	14929
920.378	14708
920.488	14701
920.598	14982
920.708	14925
920.818	14815
920.928	14845
921.038	15077
921.148	14880
921.258	14739
921.368	14518
921.477	14598
921.587	14393
921.697	14221
921.806	14518
921.916	14343
922.025	14077
922.134	14058
922.244	14081
922.353	14210
922.462	14005
922.571	13967
922.68	13814
922.789	13750
922.898	13731
923.007	13651
923.116	13788
923.224	13696
923.333	13772
923.442	13582
923.55	13590
923.659	13533
923.767	13571
923.876	13502
923.984	13658
924.092	13449
924.201	13476
924.309	13472
924.417	13396
924.525	13381
924.633	13346
924.741	14172
924.849	13289
924.956	13297
925.064	13209
925.172	13133
925.279	13076
925.387	13190
925.494	13179
925.602	13308
925.709	13217
925.816	12989
925.924	13095
926.031	13126
926.138	13057
926.245	13099
926.352	13076
926.459	13114
926.566	13236
926.673	13015
926.779	12897
926.886	12920
926.993	12802
927.099	12757
927.206	12711
927.312	12688
927.419	12722
927.525	12677
927.631	12673
927.737	12650
927.843	12517
927.95	12407
928.056	12460
928.162	12604
928.267	12509
928.373	13187
928.479	12532
928.585	12437
928.69	12490
928.796	12532
928.901	12407
929.007	12262
929.112	12391
929.218	12308
929.323	12228
929.428	12201
929.533	12414
929.638	12117
929.743	12228
929.848	12228
929.953	12155
930.058	12171
930.163	12072
930.267	11977
930.372	12167
930.477	11878
930.581	12110
930.685	11855
930.79	11760
930.894	11939
930.998	11714
931.103	11931
931.207	11509
931.311	11509
931.415	11436
931.519	11254
931.623	11132
