Data from test_V78500241_1814.txt Node
Date: Fri Mar 25 15:54:22 CST 2022
User: usil
Spectrometer: V785-0024
Trigger mode: 0
Integration Time (sec): 4.000000E-1
Scans to average: 1
Nonlinearity correction enabled: false
Boxcar width: 0
Storing dark spectrum: false
XAxis mode: Wavelengths
Number of Pixels in Spectrum: 1024
>>>>>Begin Spectral Data<<<<<
801.071	28809
801.214	28858
801.356	28474
801.499	28500
801.641	28413
801.783	28253
801.926	28451
802.068	28405
802.211	28257
802.353	28299
802.496	28051
802.638	28025
802.78	27994
802.923	27991
803.065	27998
803.208	28006
803.35	28154
803.492	28223
803.635	28211
803.777	28021
803.919	28322
804.061	28615
804.204	28371
804.346	28268
804.488	28200
804.63	28265
804.773	28284
804.915	28390
805.057	28356
805.199	28413
805.341	28333
805.483	28580
805.626	28485
805.768	28318
805.91	28531
806.052	28584
806.194	28527
806.336	28694
806.478	28466
806.62	28500
806.762	28679
806.904	28596
807.046	28938
807.188	29025
807.33	28885
807.472	28991
807.614	28839
807.756	28885
807.898	28820
808.04	28683
808.182	28713
808.324	28721
808.465	28946
808.607	29132
808.749	29200
808.891	29258
809.033	29299
809.174	29117
809.316	29181
809.458	29102
809.6	29200
809.741	29334
809.883	29391
810.025	29493
810.166	29554
810.308	29448
810.45	29311
810.591	29452
810.733	29315
810.875	29147
811.016	29052
811.158	29086
811.299	29265
811.441	29311
811.582	29368
811.724	29147
811.865	29162
812.007	29117
812.148	29246
812.29	29162
812.431	29368
812.573	29528
812.714	29710
812.855	29657
812.997	29882
813.138	30072
813.279	29904
813.421	29722
813.562	29665
813.703	29543
813.845	29486
813.986	29143
814.127	28995
814.268	28885
814.41	28908
814.551	28835
814.692	28984
814.833	28869
814.974	28896
815.115	28892
815.256	28774
815.397	28717
815.539	28820
815.68	28706
815.821	28694
815.962	28710
816.103	28721
816.244	28470
816.385	28352
816.526	28455
816.666	28333
816.807	28150
816.948	28238
817.089	28287
817.23	28143
817.371	28131
817.512	28185
817.653	28223
817.793	28295
817.934	28093
818.075	28360
818.216	28188
818.356	28234
818.497	28128
818.638	28040
818.778	27975
818.919	28048
819.06	27975
819.2	28143
819.341	28177
819.481	28055
819.622	28382
819.762	28371
819.903	28459
820.043	28535
820.184	28478
820.324	28363
820.465	28478
820.605	28219
820.746	28303
820.886	28116
821.026	28428
821.167	28215
821.307	28344
821.447	28291
821.588	28067
821.728	28124
821.868	27827
822.008	27766
822.149	27690
822.289	27850
822.429	27515
822.569	27481
822.709	27530
822.849	27180
822.99	27260
823.13	27275
823.27	27157
823.41	27024
823.55	26937
823.69	26998
823.83	27100
823.97	26929
824.11	26857
824.25	26670
824.389	26944
824.529	26815
824.669	26960
824.809	27062
824.949	26906
825.089	26990
825.228	26876
825.368	26629
825.508	26735
825.648	26697
825.787	26785
825.927	26781
826.067	26788
826.206	26739
826.346	26746
826.485	26777
826.625	26746
826.765	26834
826.904	26773
827.044	26484
827.183	26438
827.323	26404
827.462	26438
827.601	26564
827.741	26473
827.88	26434
828.02	26514
828.159	26469
828.298	26393
828.437	26434
828.577	26503
828.716	26495
828.855	26351
828.994	26210
829.134	26103
829.273	26191
829.412	26115
829.551	25890
829.69	26126
829.829	26122
829.968	26324
830.107	26084
830.246	26145
830.385	26077
830.524	26027
830.663	25959
830.802	25814
830.941	25670
831.08	25552
831.219	25841
831.357	25875
831.496	25868
831.635	25879
831.774	25712
831.913	25597
832.051	25529
832.19	25590
832.329	25502
832.467	25479
832.606	25285
832.744	25373
832.883	25358
833.022	25289
833.16	25377
833.299	25594
833.437	25270
833.576	25419
833.714	25285
833.852	25563
833.991	25567
834.129	25502
834.267	25582
834.406	25616
834.544	25514
834.682	25350
834.821	25487
834.959	25715
835.097	25438
835.235	25521
835.373	25388
835.511	25468
835.65	25316
835.788	25335
835.926	25255
836.064	25148
836.202	25145
836.34	25263
836.478	25369
836.615	25168
836.753	25339
836.891	25388
837.029	25426
837.167	25324
837.305	25289
837.443	25133
837.58	25061
837.718	25202
837.856	25145
837.993	25091
838.131	25110
838.269	25046
838.406	24928
838.544	24886
838.681	24791
838.819	24692
838.956	24547
839.094	24623
839.231	24604
839.369	24757
839.506	25076
839.643	24890
839.781	24555
839.918	24490
840.055	24623
840.193	24536
840.33	24456
840.467	24410
840.604	24464
840.742	24852
840.879	24384
841.016	24372
841.153	24369
841.29	24692
841.427	24597
841.564	24521
841.701	24555
841.838	24426
841.975	24467
842.112	24346
842.249	24296
842.385	24292
842.522	24532
842.659	24311
842.796	24247
842.933	24224
843.069	24148
843.206	24296
843.343	24213
843.479	24213
843.616	24213
843.752	23996
843.889	23961
844.025	24258
844.162	24007
844.298	24076
844.435	24011
844.571	23965
844.708	24178
844.844	24125
844.98	24114
845.117	24178
845.253	23999
845.389	23901
845.525	23904
845.661	23878
845.798	23760
845.934	23855
846.07	23676
846.206	23771
846.342	23942
846.478	23619
846.614	23497
846.75	23398
846.886	23520
847.022	23509
847.158	23524
847.294	23463
847.429	23566
847.565	23402
847.701	23817
847.837	23178
847.972	23147
848.108	23193
848.244	23208
848.379	23037
848.515	22995
848.65	22946
848.786	23147
848.921	23094
849.057	23170
849.192	23181
849.328	23094
849.463	22980
849.598	23029
849.734	22904
849.869	22881
850.004	22797
850.14	22839
850.275	22725
850.41	22755
850.545	22771
850.68	22763
850.815	22885
850.95	22869
851.085	23124
851.22	22858
851.355	22889
851.49	22782
851.625	22706
851.76	22809
851.895	22694
852.03	22812
852.165	22869
852.299	22866
852.434	22938
852.569	22793
852.703	22885
852.838	22843
852.973	22900
853.107	22866
853.242	22725
853.376	22691
853.511	22436
853.645	22527
853.78	22847
853.914	22607
854.048	22599
854.183	22531
854.317	22748
854.451	22854
854.585	22675
854.72	22649
854.854	22694
854.988	22523
855.122	22733
855.256	22474
855.39	22641
855.524	22664
855.658	22603
855.792	22660
855.926	22588
856.06	22596
856.194	22698
856.327	22535
856.461	22588
856.595	22603
856.729	22664
856.862	22809
856.996	22580
857.13	22611
857.263	22767
857.397	22653
857.53	22508
857.664	22710
857.797	22630
857.931	22763
858.064	22630
858.197	22702
858.331	22599
858.464	22542
858.597	22516
858.731	22607
858.864	22538
858.997	22611
859.13	22694
859.263	22733
859.396	22759
859.529	22573
859.662	22554
859.795	22516
859.928	22577
860.061	22725
860.194	22873
860.327	22786
860.46	22577
860.592	22641
860.725	22675
860.858	22805
860.99	22603
861.123	22508
861.256	22626
861.388	22679
861.521	23417
861.653	22394
861.786	22424
861.918	22470
862.05	22440
862.183	22546
862.315	22679
862.447	22565
862.58	22660
862.712	22268
862.844	22455
862.976	22280
863.108	22379
863.24	22782
863.372	22185
863.504	22341
863.636	22325
863.768	22379
863.9	22341
864.032	22219
864.164	22363
864.296	22299
864.428	22455
864.559	22432
864.691	22280
864.823	22333
864.954	22348
865.086	22177
865.217	22287
865.349	22166
865.48	22181
865.612	22090
865.743	22329
865.875	22276
866.006	22188
866.137	22215
866.269	22291
866.4	22185
866.531	22112
866.662	22139
866.793	22120
866.924	22139
867.055	22097
867.186	22185
867.317	22135
867.448	22017
867.579	22059
867.71	22025
867.841	21991
867.972	22067
868.103	22154
868.233	22013
868.364	22162
868.495	22211
868.625	22291
868.756	22398
868.886	22249
869.017	22268
869.147	22462
869.278	22504
869.408	22329
869.539	22322
869.669	22447
869.799	22379
869.929	22554
870.06	22470
870.19	22660
870.32	22561
870.45	22679
870.58	22797
870.71	22801
870.84	22873
870.97	22797
871.1	22752
871.23	22942
871.36	22911
871.489	22900
871.619	22965
871.749	22908
871.879	22995
872.008	23086
872.138	23003
872.267	22961
872.397	22847
872.526	22858
872.656	22854
872.785	22885
872.915	22896
873.044	23098
873.173	23022
873.303	23083
873.432	23033
873.561	23128
873.69	23067
873.819	22904
873.948	23041
874.077	22999
874.206	22927
874.335	22896
874.464	23067
874.593	23223
874.722	23296
874.851	23239
874.979	23322
875.108	23246
875.237	23071
875.365	23075
875.494	23090
875.623	23254
875.751	23181
875.88	23250
876.008	23269
876.136	23379
876.265	23547
876.393	23722
876.521	23627
876.65	23638
876.778	23547
876.906	23512
877.034	23516
877.162	23566
877.29	23433
877.418	23649
877.546	23520
877.674	23417
877.802	23604
877.93	23577
878.058	23512
878.185	23372
878.313	23471
878.441	23524
878.568	23235
878.696	23539
878.824	23596
878.951	23703
879.079	23802
879.206	23916
879.333	23619
879.461	23562
879.588	23676
879.715	23627
879.842	23748
879.97	23657
880.097	23296
880.224	23220
880.351	23372
880.478	23433
880.605	23303
880.732	23360
880.859	23642
880.986	23311
881.112	23292
881.239	23337
881.366	23102
881.493	23018
881.619	22889
881.746	22866
881.872	22984
881.999	22923
882.125	22953
882.252	22915
882.378	22854
882.505	23052
882.631	22740
882.757	22679
882.883	22683
883.01	22497
883.136	22615
883.262	22421
883.388	22367
883.514	22550
883.64	22516
883.766	22580
883.892	22375
884.018	22348
884.143	22512
884.269	22611
884.395	22386
884.52	22242
884.646	22272
884.772	22299
884.897	22177
885.023	22341
885.148	22333
885.274	22447
885.399	22386
885.524	22223
885.65	22261
885.775	22196
885.9	22162
886.025	22265
886.15	22386
886.275	22051
886.4	22112
886.525	22268
886.65	22166
886.775	22200
886.9	22215
887.025	22440
887.149	22257
887.274	22124
887.399	21972
887.523	22032
887.648	21960
887.773	21964
887.897	22010
888.021	22002
888.146	21922
888.27	22055
888.395	21934
888.519	21983
888.643	22051
888.767	22036
888.891	21854
889.015	21812
889.139	21781
889.263	21778
889.387	21812
889.511	21972
889.635	21774
889.759	21728
889.883	21865
890.006	21854
890.13	21808
890.254	21610
890.377	21629
890.501	21507
890.624	21595
890.748	21507
890.871	21412
890.995	21245
891.118	21367
891.241	21370
891.364	21416
891.488	21317
891.611	21283
891.734	21435
891.857	21325
891.98	21256
892.103	21173
892.226	21294
892.349	21306
892.471	21093
892.594	21260
892.717	21268
892.839	21142
892.962	21195
893.085	21272
893.207	21180
893.33	21119
893.452	21233
893.575	21150
893.697	21131
893.819	21348
893.941	21485
894.064	21287
894.186	21104
894.308	21085
894.43	21211
894.552	21332
894.674	21249
894.796	21077
894.918	21165
895.04	21104
895.161	21233
895.283	21218
895.405	21085
895.526	21211
895.648	21142
895.769	21093
895.891	21176
896.012	21302
896.134	21260
896.255	21096
896.376	21100
896.498	21245
896.619	21222
896.74	21089
896.861	21329
896.982	21526
897.103	21477
897.224	21412
897.345	21408
897.466	21199
897.587	21317
897.708	21454
897.828	21428
897.949	21363
898.07	21184
898.19	21332
898.311	21526
898.431	21378
898.552	21408
898.672	21496
898.792	21500
898.913	21340
899.033	21184
899.153	21184
899.273	21005
899.393	21096
899.513	21123
899.633	21161
899.753	21051
899.873	21039
899.993	21062
900.113	21112
900.232	21055
900.352	21055
900.472	20986
900.591	20804
900.711	20925
900.83	20777
900.95	20986
901.069	20952
901.189	20769
901.308	20545
901.427	20366
901.546	20537
901.665	20511
901.784	20465
901.904	20233
902.023	20161
902.141	20043
902.26	20031
902.379	20111
902.498	20005
902.617	19906
902.735	20024
902.854	19936
902.973	19917
903.091	19700
903.21	19734
903.328	19552
903.446	19605
903.565	19460
903.683	19419
903.801	19221
903.919	19422
904.038	19301
904.156	19289
904.274	19285
904.392	19255
904.51	19160
904.627	19168
904.745	19331
904.863	19107
904.981	18973
905.098	18977
905.216	18757
905.334	18852
905.451	18848
905.569	18951
905.686	18871
905.803	18867
905.921	18601
906.038	18749
906.155	18696
906.272	18525
906.389	18494
906.506	18308
906.623	18334
906.74	18357
906.857	18266
906.974	18372
907.091	18437
907.208	18467
907.324	18445
907.441	18289
907.557	18076
907.674	18114
907.79	18038
907.907	18102
908.023	18216
908.139	18133
908.256	17999
908.372	17916
908.488	17908
908.604	17863
908.72	17775
908.836	17805
908.952	17824
909.068	17817
909.184	17885
909.3	17764
909.415	17794
909.531	17764
909.647	17608
909.762	17414
909.878	17497
909.993	17512
910.108	17512
910.224	17448
910.339	17417
910.454	17467
910.57	17341
910.685	17258
910.8	17478
910.915	17379
911.03	17322
911.145	17105
911.259	17121
911.374	17018
911.489	16953
911.604	16942
911.718	16824
911.833	16908
911.947	16915
912.062	16630
912.176	16801
912.291	16763
912.405	16782
912.519	17045
912.633	16972
912.748	16767
912.862	16782
912.976	16744
913.09	16485
913.204	16618
913.318	16656
913.431	16694
913.545	16710
913.659	16736
913.772	16558
913.886	16352
914	16360
914.113	16424
914.226	16531
914.34	16489
914.453	16257
914.566	16459
914.68	16352
914.793	16257
914.906	16128
915.019	16044
915.132	15835
915.245	15979
915.358	16017
915.47	16067
915.583	15937
915.696	15972
915.809	16040
915.921	16044
916.034	15934
916.146	15895
916.259	15911
916.371	15907
916.483	15907
916.595	15766
916.708	15774
916.82	15766
916.932	15793
917.044	15743
917.156	15789
917.268	15622
917.38	15633
917.491	15564
917.603	15545
917.715	15595
917.826	15785
917.938	15428
918.049	15458
918.161	15507
918.272	15694
918.384	15728
918.495	15538
918.606	15294
918.717	15302
918.828	15329
918.939	15344
919.05	15359
919.161	15340
919.272	15058
919.383	15173
919.494	15428
919.604	15473
919.715	15344
919.826	15074
919.936	15268
920.047	15386
920.157	15435
920.267	15443
920.378	15268
920.488	15218
920.598	15439
920.708	15595
920.818	15431
920.928	15408
921.038	15507
921.148	15564
921.258	15264
921.368	15214
921.477	15070
921.587	15066
921.697	14910
921.806	14975
921.916	14834
922.025	14705
922.134	14587
922.244	14705
922.353	14606
922.462	14507
922.571	14480
922.68	14267
922.789	14248
922.898	14336
923.007	14153
923.116	14259
923.224	14225
923.333	14229
923.442	14111
923.55	14107
923.659	14100
923.767	14107
923.876	14100
923.984	14077
924.092	14096
924.201	14016
924.309	13959
924.417	13906
924.525	13883
924.633	13890
924.741	14598
924.849	13776
924.956	13890
925.064	13791
925.172	13624
925.279	13521
925.387	13628
925.494	13639
925.602	13731
925.709	13605
925.816	13449
925.924	13582
926.031	13658
926.138	13548
926.245	13571
926.352	13525
926.459	13689
926.566	13624
926.673	13495
926.779	13392
926.886	13384
926.993	13209
927.099	13110
927.206	13118
927.312	13145
927.419	13183
927.525	13152
927.631	13304
927.737	13194
927.843	13027
927.95	12935
928.056	12932
928.162	13061
928.267	13046
928.373	13636
928.479	13061
928.585	12882
928.69	12844
928.796	13000
928.901	12783
929.007	12711
929.112	12833
929.218	12856
929.323	12726
929.428	12696
929.533	12829
929.638	12608
929.743	12681
929.848	12711
929.953	12612
930.058	12498
930.163	12414
930.267	12467
930.372	12540
930.477	12311
930.581	12506
930.685	12426
930.79	12254
930.894	12319
930.998	12251
931.103	12399
931.207	12011
931.311	11954
931.415	11783
931.519	11577
931.623	11596
