Data from test_V78500241_3413.txt Node
Date: Fri Mar 25 16:05:26 CST 2022
User: usil
Spectrometer: V785-0024
Trigger mode: 0
Integration Time (sec): 4.000000E-1
Scans to average: 1
Nonlinearity correction enabled: false
Boxcar width: 0
Storing dark spectrum: false
XAxis mode: Wavelengths
Number of Pixels in Spectrum: 1024
>>>>>Begin Spectral Data<<<<<
801.071	28713
801.214	28713
801.356	28485
801.499	28417
801.641	28409
801.783	28059
801.926	28485
802.068	28318
802.211	28363
802.353	28318
802.496	28036
802.638	28135
802.78	27991
802.923	28055
803.065	27812
803.208	28044
803.35	28116
803.492	28177
803.635	28192
803.777	28002
803.919	28276
804.061	28542
804.204	28386
804.346	28291
804.488	28139
804.63	28200
804.773	28207
804.915	28257
805.057	28382
805.199	28382
805.341	28379
805.483	28504
805.626	28379
805.768	28322
805.91	28516
806.052	28409
806.194	28440
806.336	28535
806.478	28401
806.62	28394
806.762	28634
806.904	28675
807.046	28949
807.188	28881
807.33	28942
807.472	28949
807.614	28888
807.756	28888
807.898	28778
808.04	28660
808.182	28618
808.324	28710
808.465	28736
808.607	29090
808.749	29113
808.891	29242
809.033	29181
809.174	29181
809.316	29292
809.458	29136
809.6	29083
809.741	29242
809.883	29303
810.025	29421
810.166	29395
810.308	29368
810.45	29440
810.591	29299
810.733	29052
810.875	29067
811.016	29037
811.158	29067
811.299	29223
811.441	29261
811.582	29353
811.724	29155
811.865	29121
812.007	29162
812.148	29181
812.29	29121
812.431	29364
812.573	29493
812.714	29596
812.855	29687
812.997	29790
813.138	29824
813.279	29786
813.421	29623
813.562	29535
813.703	29516
813.845	29379
813.986	29117
814.127	29006
814.268	28877
814.41	28847
814.551	28710
814.692	28991
814.833	28888
814.974	28713
815.115	28767
815.256	28637
815.397	28725
815.539	28862
815.68	28599
815.821	28546
815.962	28656
816.103	28424
816.244	28607
816.385	28497
816.526	28405
816.666	28192
816.807	28120
816.948	28249
817.089	28329
817.23	28196
817.371	28303
817.512	28192
817.653	28093
817.793	28116
817.934	28093
818.075	28139
818.216	28173
818.356	28048
818.497	28166
818.638	28070
818.778	27922
818.919	28036
819.06	28029
819.2	28029
819.341	28112
819.481	28230
819.622	28405
819.762	28401
819.903	28371
820.043	28428
820.184	28500
820.324	28284
820.465	28428
820.605	28310
820.746	28276
820.886	28147
821.026	28253
821.167	28131
821.307	28196
821.447	28234
821.588	28169
821.728	27983
821.868	27800
822.008	27785
822.149	27561
822.289	27629
822.429	27359
822.569	27256
822.709	27363
822.849	27146
822.99	27180
823.13	27150
823.27	27074
823.41	27001
823.55	26796
823.69	27043
823.83	27013
823.97	26990
824.11	26663
824.25	26686
824.389	26815
824.529	26746
824.669	26880
824.809	26979
824.949	26804
825.089	26876
825.228	26925
825.368	26625
825.508	26651
825.648	26701
825.787	26670
825.927	26792
826.067	26708
826.206	26864
826.346	26853
826.485	26712
826.625	26849
826.765	26819
826.904	26697
827.044	26499
827.183	26358
827.323	26290
827.462	26465
827.601	26298
827.741	26415
827.88	26317
828.02	26305
828.159	26427
828.298	26393
828.437	26556
828.577	26282
828.716	26434
828.855	26225
828.994	26103
829.134	26164
829.273	26142
829.412	26073
829.551	26050
829.69	26107
829.829	26195
829.968	26153
830.107	26225
830.246	26153
830.385	26062
830.524	26001
830.663	25989
830.802	25693
830.941	25715
831.08	25689
831.219	25868
831.357	25803
831.496	25959
831.635	25727
831.774	25609
831.913	25525
832.051	25639
832.19	25510
832.329	25460
832.467	25460
832.606	25396
832.744	25232
832.883	25365
833.022	25358
833.16	25415
833.299	25384
833.437	25464
833.576	25411
833.714	25510
833.852	25506
833.991	25483
834.129	25521
834.267	25457
834.406	25514
834.544	25502
834.682	25384
834.821	25445
834.959	25548
835.097	25312
835.235	25453
835.373	25422
835.511	25392
835.65	25308
835.788	25365
835.926	25236
836.064	25091
836.202	25282
836.34	25282
836.478	25350
836.615	25259
836.753	25297
836.891	25335
837.029	25293
837.167	25301
837.305	25183
837.443	25122
837.58	25126
837.718	25145
837.856	25129
837.993	24985
838.131	25012
838.269	24867
838.406	25042
838.544	24905
838.681	24833
838.819	24665
838.956	24639
839.094	24589
839.231	24631
839.369	24806
839.506	24977
839.643	24726
839.781	24650
839.918	24521
840.055	24578
840.193	24445
840.33	24471
840.467	24426
840.604	24574
840.742	24715
840.879	24178
841.016	24372
841.153	24350
841.29	24574
841.427	24407
841.564	24597
841.701	24361
841.838	24369
841.975	24319
842.112	24289
842.249	24174
842.385	24319
842.522	24353
842.659	24296
842.796	24155
842.933	24129
843.069	24155
843.206	24144
843.343	24338
843.479	24254
843.616	24186
843.752	24011
843.889	24095
844.025	24072
844.162	23992
844.298	24232
844.435	23969
844.571	24003
844.708	23965
844.844	24102
844.98	24072
845.117	24022
845.253	23999
845.389	23984
845.525	24038
845.661	23843
845.798	23687
845.934	23901
846.07	23756
846.206	23752
846.342	23843
846.478	23634
846.614	23539
846.75	23398
846.886	23246
847.022	23509
847.158	23512
847.294	23410
847.429	23528
847.565	23360
847.701	23596
847.837	23064
847.972	23117
848.108	23200
848.244	23353
848.379	22995
848.515	23143
848.65	22957
848.786	23037
848.921	23098
849.057	23124
849.192	23060
849.328	23124
849.463	23189
849.598	23086
849.734	22934
849.869	22892
850.004	22824
850.14	22828
850.275	22927
850.41	22847
850.545	22763
850.68	22641
850.815	22877
850.95	22755
851.085	23018
851.22	23022
851.355	22733
851.49	22809
851.625	22801
851.76	22831
851.895	22748
852.03	22774
852.165	22759
852.299	22824
852.434	22778
852.569	22786
852.703	22752
852.838	22881
852.973	23037
853.107	22854
853.242	22755
853.376	22698
853.511	22561
853.645	22599
853.78	22740
853.914	22691
854.048	22592
854.183	22592
854.317	22588
854.451	22672
854.585	22565
854.72	22645
854.854	22694
854.988	22611
855.122	22615
855.256	22489
855.39	22569
855.524	22717
855.658	22588
855.792	22641
855.926	22607
856.06	22679
856.194	22759
856.327	22698
856.461	22531
856.595	22535
856.729	22508
856.862	22767
856.996	22607
857.13	22645
857.263	22767
857.397	22683
857.53	22504
857.664	22664
857.797	22660
857.931	22660
858.064	22615
858.197	22725
858.331	22565
858.464	22584
858.597	22470
858.731	22542
858.864	22577
858.997	22577
859.13	22592
859.263	22535
859.396	22736
859.529	22493
859.662	22580
859.795	22565
859.928	22542
860.061	22843
860.194	22687
860.327	22698
860.46	22611
860.592	22660
860.725	22706
860.858	22767
860.99	22679
861.123	22599
861.256	22440
861.388	22668
861.521	23455
861.653	22519
861.786	22481
861.918	22485
862.05	22474
862.183	22440
862.315	22531
862.447	22573
862.58	22538
862.712	22424
862.844	22287
862.976	22333
863.108	22322
863.24	22805
863.372	22322
863.504	22238
863.636	22257
863.768	22375
863.9	22287
864.032	22101
864.164	22257
864.296	22443
864.428	22318
864.559	22481
864.691	22375
864.823	22333
864.954	22249
865.086	22207
865.217	22226
865.349	22147
865.48	22097
865.612	22211
865.743	22303
865.875	22158
866.006	22177
866.137	22173
866.269	22238
866.4	22173
866.531	22074
866.662	22135
866.793	22086
866.924	22040
867.055	22181
867.186	22131
867.317	21915
867.448	22006
867.579	21964
867.71	22097
867.841	22082
867.972	22226
868.103	22051
868.233	22223
868.364	22131
868.495	22238
868.625	22333
868.756	22348
868.886	22360
869.017	22329
869.147	22413
869.278	22424
869.408	22352
869.539	22367
869.669	22443
869.799	22390
869.929	22504
870.06	22478
870.19	22694
870.32	22603
870.45	22664
870.58	22694
870.71	22892
870.84	22820
870.97	22755
871.1	22820
871.23	22843
871.36	22968
871.489	22812
871.619	22942
871.749	22942
871.879	22972
872.008	23121
872.138	22744
872.267	22965
872.397	22717
872.526	22767
872.656	22809
872.785	22900
872.915	22927
873.044	23033
873.173	22957
873.303	23037
873.432	23048
873.561	23136
873.69	23086
873.819	22942
873.948	23143
874.077	23048
874.206	22942
874.335	22976
874.464	23121
874.593	23178
874.722	23124
874.851	23181
874.979	23417
875.108	23227
875.237	23212
875.365	23003
875.494	23029
875.623	23246
875.751	23143
875.88	23083
876.008	23307
876.136	23429
876.265	23440
876.393	23714
876.521	23577
876.65	23638
876.778	23653
876.906	23585
877.034	23512
877.162	23551
877.29	23478
877.418	23467
877.546	23623
877.674	23452
877.802	23566
877.93	23558
878.058	23471
878.185	23376
878.313	23570
878.441	23410
878.568	23360
878.696	23516
878.824	23505
878.951	23547
879.079	23611
879.206	23935
879.333	23657
879.461	23596
879.588	23729
879.715	23722
879.842	23851
879.97	23596
880.097	23406
880.224	23463
880.351	23311
880.478	23303
880.605	23261
880.732	23368
880.859	23573
880.986	23429
881.112	23337
881.239	23254
881.366	23086
881.493	22961
881.619	22892
881.746	23113
881.872	22915
881.999	22797
882.125	22957
882.252	22896
882.378	22972
882.505	22934
882.631	22721
882.757	22596
882.883	22687
883.01	22584
883.136	22535
883.262	22356
883.388	22360
883.514	22546
883.64	22641
883.766	22360
883.892	22329
884.018	22352
884.143	22481
884.269	22592
884.395	22337
884.52	22230
884.646	22226
884.772	22158
884.897	22029
885.023	22268
885.148	22322
885.274	22394
885.399	22246
885.524	22154
885.65	22246
885.775	22249
885.9	22215
886.025	22375
886.15	22280
886.275	22070
886.4	22128
886.525	22242
886.65	22097
886.775	22086
886.9	22333
887.025	22363
887.149	22169
887.274	22051
887.399	21873
887.523	22044
887.648	21915
887.773	21873
887.897	22055
888.021	22082
888.146	21915
888.27	22131
888.395	21968
888.519	21983
888.643	21983
888.767	21994
888.891	21732
889.015	21800
889.139	21865
889.263	21766
889.387	21812
889.511	21880
889.635	21907
889.759	21705
889.883	21618
890.006	21766
890.13	21842
890.254	21774
890.377	21701
890.501	21496
890.624	21450
890.748	21424
890.871	21507
890.995	21367
891.118	21317
891.241	21332
891.364	21211
891.488	21386
891.611	21325
891.734	21306
891.857	21298
891.98	21272
892.103	21386
892.226	21325
892.349	21218
892.471	21108
892.594	21230
892.717	21214
892.839	21192
892.962	21260
893.085	21211
893.207	21199
893.33	21077
893.452	21161
893.575	21279
893.697	21135
893.819	21443
893.941	21329
894.064	21389
894.186	21176
894.308	21009
894.43	21226
894.552	21298
894.674	21287
894.796	21112
894.918	21116
895.04	21081
895.161	21249
895.283	21112
895.405	21150
895.526	21150
895.648	21131
895.769	21127
895.891	21154
896.012	21165
896.134	21214
896.255	21123
896.376	21138
896.498	21226
896.619	21176
896.74	21173
896.861	21363
896.982	21477
897.103	21625
897.224	21431
897.345	21306
897.466	21351
897.587	21378
897.708	21561
897.828	21504
897.949	21336
898.07	21260
898.19	21093
898.311	21492
898.431	21310
898.552	21496
898.672	21458
898.792	21485
898.913	21313
899.033	21260
899.153	21047
899.273	21013
899.393	21039
899.513	21123
899.633	21157
899.753	21131
899.873	21138
899.993	21116
900.113	20933
900.232	21028
900.352	20921
900.472	20941
900.591	20819
900.711	20838
900.83	20788
900.95	20872
901.069	21089
901.189	20602
901.308	20556
901.427	20465
901.546	20419
901.665	20275
901.784	20434
901.904	20233
902.023	20225
902.141	20012
902.26	19997
902.379	20020
902.498	19947
902.617	19936
902.735	20035
902.854	19864
902.973	19887
903.091	19613
903.21	19605
903.328	19655
903.446	19559
903.565	19354
903.683	19362
903.801	19164
903.919	19343
904.038	19392
904.156	19217
904.274	19270
904.392	19145
904.51	19091
904.627	19187
904.745	19259
904.863	19202
904.981	18958
905.098	18837
905.216	18833
905.334	18798
905.451	18886
905.569	18856
905.686	18783
905.803	18833
905.921	18612
906.038	18669
906.155	18658
906.272	18460
906.389	18627
906.506	18330
906.623	18391
906.74	18384
906.857	18273
906.974	18357
907.091	18304
907.208	18445
907.324	18315
907.441	18228
907.557	18110
907.674	17980
907.79	17931
907.907	18026
908.023	18121
908.139	17996
908.256	18034
908.372	17828
908.488	17961
908.604	17722
908.72	17707
908.836	17703
908.952	17790
909.068	17684
909.184	17794
909.3	17710
909.415	17748
909.531	17714
909.647	17421
909.762	17505
909.878	17398
909.993	17551
910.108	17433
910.224	17326
910.339	17505
910.454	17280
910.57	17288
910.685	17174
910.8	17421
910.915	17322
911.03	17349
911.145	17029
911.259	17067
911.374	17048
911.489	16953
911.604	16976
911.718	16778
911.833	16835
911.947	16637
912.062	16664
912.176	16767
912.291	16835
912.405	16664
912.519	16976
912.633	16877
912.748	16835
912.862	16748
912.976	16569
913.09	16558
913.204	16584
913.318	16592
913.431	16626
913.545	16641
913.659	16637
913.772	16451
913.886	16352
914	16314
914.113	16424
914.226	16466
914.34	16474
914.453	16257
914.566	16280
914.68	16257
914.793	16147
914.906	16063
915.019	16006
915.132	15854
915.245	15918
915.358	15994
915.47	15922
915.583	15960
915.696	15892
915.809	16116
915.921	16055
916.034	15888
916.146	15892
916.259	15876
916.371	15892
916.483	15793
916.595	15766
916.708	15728
916.82	15686
916.932	15724
917.044	15644
917.156	15675
917.268	15580
917.38	15606
917.491	15576
917.603	15492
917.715	15660
917.826	15652
917.938	15523
918.049	15424
918.161	15466
918.272	15507
918.384	15603
918.495	15477
918.606	15405
918.717	15180
918.828	15252
918.939	15431
919.05	15237
919.161	15214
919.272	15032
919.383	15112
919.494	15321
919.604	15496
919.715	15302
919.826	15150
919.936	15222
920.047	15272
920.157	15264
920.267	15344
920.378	15351
920.488	15199
920.598	15359
920.708	15568
920.818	15374
920.928	15370
921.038	15473
921.148	15454
921.258	15302
921.368	15097
921.477	14979
921.587	14979
921.697	14773
921.806	14944
921.916	14819
922.025	14697
922.134	14697
922.244	14568
922.353	14587
922.462	14454
922.571	14396
922.68	14202
922.789	14233
922.898	14278
923.007	14180
923.116	14240
923.224	14183
923.333	14164
923.442	14134
923.55	14168
923.659	14092
923.767	14084
923.876	14008
923.984	14027
924.092	13864
924.201	14100
924.309	13940
924.417	14008
924.525	13868
924.633	13917
924.741	14788
924.849	13601
924.956	13826
925.064	13613
925.172	13575
925.279	13575
925.387	13647
925.494	13491
925.602	13715
925.709	13765
925.816	13552
925.924	13544
926.031	13685
926.138	13510
926.245	13552
926.352	13464
926.459	13578
926.566	13582
926.673	13407
926.779	13403
926.886	13343
926.993	13209
927.099	13236
927.206	13149
927.312	13057
927.419	13278
927.525	13175
927.631	13221
927.737	13031
927.843	13012
927.95	12806
928.056	12989
928.162	13042
928.267	12970
928.373	13636
928.479	12985
928.585	12821
928.69	12878
928.796	12935
928.901	12844
929.007	12639
929.112	12814
929.218	12802
929.323	12719
929.428	12635
929.533	12844
929.638	12608
929.743	12593
929.848	12639
929.953	12578
930.058	12563
930.163	12323
930.267	12372
930.372	12426
930.477	12296
930.581	12475
930.685	12308
930.79	12216
930.894	12254
930.998	12144
931.103	12380
931.207	11958
931.311	11874
931.415	11813
931.519	11634
931.623	11604
