Data from test_V78500241_2031.txt Node
Date: Fri Mar 25 15:55:52 CST 2022
User: usil
Spectrometer: V785-0024
Trigger mode: 0
Integration Time (sec): 4.000000E-1
Scans to average: 1
Nonlinearity correction enabled: false
Boxcar width: 0
Storing dark spectrum: false
XAxis mode: Wavelengths
Number of Pixels in Spectrum: 1024
>>>>>Begin Spectral Data<<<<<
801.071	28911
801.214	28930
801.356	28645
801.499	28607
801.641	28447
801.783	28455
801.926	28596
802.068	28443
802.211	28569
802.353	28478
802.496	28204
802.638	28238
802.78	28169
802.923	28230
803.065	28230
803.208	28169
803.35	28188
803.492	28390
803.635	28523
803.777	28386
803.919	28527
804.061	28869
804.204	28683
804.346	28481
804.488	28508
804.63	28428
804.773	28382
804.915	28474
805.057	28698
805.199	28489
805.341	28672
805.483	28786
805.626	28611
805.768	28550
805.91	28622
806.052	28778
806.194	28592
806.336	28679
806.478	28672
806.62	28535
806.762	28698
806.904	29060
807.046	28991
807.188	29189
807.33	29105
807.472	29174
807.614	29117
807.756	29197
807.898	28968
808.04	28976
808.182	28999
808.324	28877
808.465	29086
808.607	29261
808.749	29356
808.891	29463
809.033	29444
809.174	29337
809.316	29345
809.458	29261
809.6	29303
809.741	29512
809.883	29425
810.025	29687
810.166	29566
810.308	29490
810.45	29562
810.591	29459
810.733	29433
810.875	29387
811.016	29356
811.158	29197
811.299	29535
811.441	29623
811.582	29490
811.724	29387
811.865	29383
812.007	29356
812.148	29296
812.29	29406
812.431	29554
812.573	29653
812.714	29862
812.855	29893
812.997	29908
813.138	30171
813.279	30171
813.421	29775
813.562	29805
813.703	29703
813.845	29627
813.986	29414
814.127	29044
814.268	29094
814.41	29113
814.551	29075
814.692	29162
814.833	29083
814.974	29124
815.115	29117
815.256	28976
815.397	28919
815.539	28984
815.68	28923
815.821	28866
815.962	28991
816.103	28801
816.244	28809
816.385	28664
816.526	28630
816.666	28607
816.807	28424
816.948	28447
817.089	28561
817.23	28421
817.371	28303
817.512	28272
817.653	28440
817.793	28375
817.934	28356
818.075	28386
818.216	28382
818.356	28325
818.497	28223
818.638	28131
818.778	28257
818.919	28234
819.06	28382
819.2	28257
819.341	28382
819.481	28348
819.622	28478
819.762	28839
819.903	28611
820.043	28497
820.184	28596
820.324	28531
820.465	28500
820.605	28462
820.746	28554
820.886	28405
821.026	28565
821.167	28500
821.307	28417
821.447	28394
821.588	28314
821.728	28226
821.868	27991
822.008	27854
822.149	28002
822.289	27857
822.429	27633
822.569	27591
822.709	27663
822.849	27405
822.99	27397
823.13	27321
823.27	27306
823.41	27138
823.55	27150
823.69	27184
823.83	27275
823.97	27055
824.11	27135
824.25	27138
824.389	27100
824.529	27154
824.669	27032
824.809	27222
824.949	27108
825.089	27135
825.228	27192
825.368	27074
825.508	26880
825.648	26921
825.787	26944
825.927	27100
826.067	26975
826.206	26883
826.346	26902
826.485	27070
826.625	26921
826.765	27001
826.904	27081
827.044	26872
827.183	26727
827.323	26807
827.462	26648
827.601	26788
827.741	26731
827.88	26811
828.02	26594
828.159	26625
828.298	26659
828.437	26701
828.577	26533
828.716	26823
828.855	26541
828.994	26301
829.134	26381
829.273	26438
829.412	26347
829.551	26202
829.69	26469
829.829	26419
829.968	26381
830.107	26457
830.246	26408
830.385	26336
830.524	26187
830.663	26240
830.802	26096
830.941	25997
831.08	25898
831.219	25940
831.357	26008
831.496	26145
831.635	25986
831.774	25803
831.913	25868
832.051	25830
832.19	25693
832.329	25723
832.467	25708
832.606	25651
832.744	25643
832.883	25533
833.022	25643
833.16	25727
833.299	25662
833.437	25628
833.576	25731
833.714	25772
833.852	25597
833.991	25712
834.129	25662
834.267	25791
834.406	25833
834.544	25689
834.682	25746
834.821	25628
834.959	25837
835.097	25712
835.235	25624
835.373	25609
835.511	25624
835.65	25552
835.788	25491
835.926	25430
836.064	25350
836.202	25392
836.34	25514
836.478	25563
836.615	25548
836.753	25529
836.891	25567
837.029	25590
837.167	25483
837.305	25460
837.443	25384
837.58	25316
837.718	25499
837.856	25460
837.993	25251
838.131	25202
838.269	25183
838.406	25365
838.544	25126
838.681	24947
838.819	24840
838.956	24753
839.094	24715
839.231	24897
839.369	24985
839.506	25156
839.643	25027
839.781	24787
839.918	24677
840.055	24806
840.193	24810
840.33	24802
840.467	24764
840.604	24772
840.742	24992
840.879	24650
841.016	24703
841.153	24681
841.29	24821
841.427	24764
841.564	24802
841.701	24791
841.838	24620
841.975	24749
842.112	24631
842.249	24525
842.385	24612
842.522	24631
842.659	24528
842.796	24612
842.933	24532
843.069	24399
843.206	24464
843.343	24426
843.479	24441
843.616	24433
843.752	24277
843.889	24273
844.025	24315
844.162	24197
844.298	24254
844.435	24232
844.571	24163
844.708	24308
844.844	24380
844.98	24441
845.117	24239
845.253	24117
845.389	24197
845.525	24155
845.661	24053
845.798	23942
845.934	23988
846.07	23958
846.206	23988
846.342	24266
846.478	24060
846.614	23760
846.75	23661
846.886	23752
847.022	23729
847.158	23802
847.294	23741
847.429	23760
847.565	23661
847.701	23802
847.837	23478
847.972	23497
848.108	23490
848.244	23452
848.379	23368
848.515	23318
848.65	23273
848.786	23261
848.921	23292
849.057	23330
849.192	23356
849.328	23318
849.463	23318
849.598	23216
849.734	23094
849.869	23109
850.004	23056
850.14	23044
850.275	23128
850.41	22953
850.545	23044
850.68	22965
850.815	23018
850.95	22991
851.085	23178
851.22	23094
851.355	23181
851.49	23113
851.625	23033
851.76	22923
851.895	22961
852.03	22930
852.165	22953
852.299	22999
852.434	23018
852.569	22984
852.703	22995
852.838	23098
852.973	23166
853.107	23166
853.242	22866
853.376	22774
853.511	22736
853.645	22831
853.78	22873
853.914	22885
854.048	22752
854.183	22869
854.317	22759
854.451	23052
854.585	22866
854.72	22812
854.854	22896
854.988	22809
855.122	22927
855.256	22687
855.39	22862
855.524	22881
855.658	22869
855.792	22999
855.926	22854
856.06	22862
856.194	22877
856.327	22577
856.461	22801
856.595	22771
856.729	22934
856.862	22896
856.996	22965
857.13	22930
857.263	22923
857.397	22900
857.53	22812
857.664	22858
857.797	22896
857.931	22934
858.064	22858
858.197	22999
858.331	22881
858.464	22843
858.597	22733
858.731	22797
858.864	22782
858.997	22839
859.13	22835
859.263	22790
859.396	22839
859.529	22812
859.662	22771
859.795	22866
859.928	22774
860.061	22919
860.194	22976
860.327	22839
860.46	22911
860.592	23083
860.725	22869
860.858	23006
860.99	22968
861.123	22767
861.256	22752
861.388	22793
861.521	23695
861.653	22740
861.786	22596
861.918	22656
862.05	22653
862.183	22675
862.315	22752
862.447	22790
862.58	22820
862.712	22565
862.844	22421
862.976	22702
863.108	22687
863.24	23109
863.372	22466
863.504	22527
863.636	22603
863.768	22664
863.9	22641
864.032	22485
864.164	22580
864.296	22599
864.428	22653
864.559	22580
864.691	22664
864.823	22550
864.954	22500
865.086	22455
865.217	22394
865.349	22440
865.48	22417
865.612	22424
865.743	22546
865.875	22402
866.006	22398
866.137	22470
866.269	22363
866.4	22398
866.531	22348
866.662	22299
866.793	22367
866.924	22253
867.055	22440
867.186	22402
867.317	22478
867.448	22322
867.579	22261
867.71	22192
867.841	22287
867.972	22249
868.103	22352
868.233	22333
868.364	22371
868.495	22436
868.625	22713
868.756	22698
868.886	22447
869.017	22637
869.147	22771
869.278	22615
869.408	22557
869.539	22634
869.669	22668
869.799	22733
869.929	22721
870.06	22691
870.19	22892
870.32	22900
870.45	22889
870.58	22972
870.71	22927
870.84	22995
870.97	22965
871.1	22915
871.23	23185
871.36	23086
871.489	22991
871.619	23029
871.749	23254
871.879	23242
872.008	23223
872.138	23239
872.267	23189
872.397	23181
872.526	23022
872.656	23029
872.785	22930
872.915	23273
873.044	23318
873.173	23223
873.303	23364
873.432	23246
873.561	23223
873.69	23254
873.819	23307
873.948	23322
874.077	23341
874.206	23132
874.335	23162
874.464	23406
874.593	23356
874.722	23372
874.851	23471
874.979	23402
875.108	23387
875.237	23410
875.365	23360
875.494	23383
875.623	23566
875.751	23395
875.88	23402
876.008	23596
876.136	23661
876.265	23813
876.393	23912
876.521	23931
876.65	23790
876.778	23786
876.906	23752
877.034	23630
877.162	23775
877.29	23741
877.418	23737
877.546	23790
877.674	23687
877.802	23764
877.93	23623
878.058	23589
878.185	23668
878.313	23707
878.441	23710
878.568	23539
878.696	23718
878.824	23707
878.951	23885
879.079	23882
879.206	23954
879.333	23946
879.461	23695
879.588	23980
879.715	23935
879.842	24045
879.97	23802
880.097	23672
880.224	23501
880.351	23539
880.478	23634
880.605	23573
880.732	23619
880.859	23790
880.986	23668
881.112	23566
881.239	23425
881.366	23360
881.493	23212
881.619	23174
881.746	23102
881.872	23265
881.999	22991
882.125	23143
882.252	23136
882.378	23044
882.505	23075
882.631	22873
882.757	22866
882.883	22843
883.01	22805
883.136	22763
883.262	22664
883.388	22561
883.514	22698
883.64	22729
883.766	22790
883.892	22466
884.018	22474
884.143	22630
884.269	22805
884.395	22447
884.52	22386
884.646	22497
884.772	22451
884.897	22299
885.023	22382
885.148	22535
885.274	22481
885.399	22535
885.524	22310
885.65	22478
885.775	22459
885.9	22402
886.025	22569
886.15	22413
886.275	22443
886.4	22261
886.525	22443
886.65	22276
886.775	22238
886.9	22497
887.025	22611
887.149	22367
887.274	22154
887.399	22333
887.523	22169
887.648	22063
887.773	22070
887.897	22314
888.021	22219
888.146	22116
888.27	22200
888.395	22204
888.519	22211
888.643	22116
888.767	22147
888.891	22158
889.015	22036
889.139	21983
889.263	21994
889.387	22063
889.511	22261
889.635	22048
889.759	21991
889.883	21930
890.006	22105
890.13	21956
890.254	21907
890.377	21884
890.501	21656
890.624	21610
890.748	21755
890.871	21500
890.995	21504
891.118	21408
891.241	21538
891.364	21477
891.488	21606
891.611	21439
891.734	21515
891.857	21625
891.98	21500
892.103	21507
892.226	21500
892.349	21420
892.471	21199
892.594	21412
892.717	21416
892.839	21378
892.962	21416
893.085	21557
893.207	21291
893.33	21291
893.452	21294
893.575	21435
893.697	21332
893.819	21538
893.941	21663
894.064	21557
894.186	21272
894.308	21386
894.43	21367
894.552	21568
894.674	21386
894.796	21279
894.918	21450
895.04	21416
895.161	21454
895.283	21294
895.405	21332
895.526	21294
895.648	21321
895.769	21386
895.891	21538
896.012	21492
896.134	21424
896.255	21477
896.376	21260
896.498	21275
896.619	21321
896.74	21454
896.861	21325
896.982	21610
897.103	21804
897.224	21690
897.345	21439
897.466	21542
897.587	21564
897.708	21652
897.828	21622
897.949	21416
898.07	21348
898.19	21466
898.311	21686
898.431	21382
898.552	21496
898.672	21736
898.792	21587
898.913	21633
899.033	21462
899.153	21469
899.273	21211
899.393	21218
899.513	21408
899.633	21298
899.753	21348
899.873	21199
899.993	21393
900.113	21291
900.232	21135
900.352	21211
900.472	21100
900.591	21047
900.711	21116
900.83	21039
900.95	21089
901.069	21237
901.189	20891
901.308	20727
901.427	20609
901.546	20655
901.665	20629
901.784	20670
901.904	20465
902.023	20404
902.141	20206
902.26	20161
902.379	20164
902.498	20046
902.617	20111
902.735	20267
902.854	20142
902.973	19875
903.091	19852
903.21	19738
903.328	19753
903.446	19609
903.565	19609
903.683	19609
903.801	19521
903.919	19487
904.038	19419
904.156	19263
904.274	19430
904.392	19293
904.51	19377
904.627	19190
904.745	19373
904.863	19285
904.981	19194
905.098	18882
905.216	18966
905.334	18954
905.451	19027
905.569	18993
905.686	19019
905.803	18966
905.921	18795
906.038	18825
906.155	18764
906.272	18669
906.389	18776
906.506	18540
906.623	18582
906.74	18456
906.857	18391
906.974	18399
907.091	18517
907.208	18525
907.324	18513
907.441	18388
907.557	18277
907.674	18228
907.79	18258
907.907	18133
908.023	18270
908.139	18159
908.256	18228
908.372	18121
908.488	18019
908.604	17885
908.72	17847
908.836	17927
908.952	17870
909.068	17958
909.184	18098
909.3	17904
909.415	17916
909.531	17965
909.647	17630
909.762	17699
909.878	17592
909.993	17699
910.108	17638
910.224	17554
910.339	17482
910.454	17482
910.57	17471
910.685	17379
910.8	17668
910.915	17478
911.03	17280
911.145	17166
911.259	17227
911.374	17151
911.489	17124
911.604	17075
911.718	16968
911.833	16923
911.947	16885
912.062	16736
912.176	16911
912.291	16968
912.405	16820
912.519	17075
912.633	17090
912.748	16946
912.862	16881
912.976	16793
913.09	16607
913.204	16672
913.318	16816
913.431	16759
913.545	16656
913.659	16774
913.772	16664
913.886	16596
914	16481
914.113	16615
914.226	16645
914.34	16615
914.453	16367
914.566	16592
914.68	16500
914.793	16367
914.906	16188
915.019	16002
915.132	16017
915.245	16036
915.358	16131
915.47	16105
915.583	16036
915.696	16006
915.809	16204
915.921	16181
916.034	15945
916.146	16017
916.259	15941
916.371	16090
916.483	15987
916.595	15975
916.708	16010
916.82	15888
916.932	15888
917.044	15747
917.156	15827
917.268	15682
917.38	15797
917.491	15637
917.603	15789
917.715	15770
917.826	15793
917.938	15633
918.049	15625
918.161	15713
918.272	15759
918.384	15804
918.495	15572
918.606	15523
918.717	15378
918.828	15408
918.939	15469
919.05	15401
919.161	15393
919.272	15226
919.383	15272
919.494	15386
919.604	15614
919.715	15534
919.826	15351
919.936	15340
920.047	15412
920.157	15367
920.267	15523
920.378	15412
920.488	15325
920.598	15595
920.708	15732
920.818	15481
920.928	15477
921.038	15698
921.148	15610
921.258	15359
921.368	15268
921.477	15176
921.587	15062
921.697	15039
921.806	15123
921.916	15028
922.025	14849
922.134	14762
922.244	14659
922.353	14750
922.462	14648
922.571	14473
922.68	14309
922.789	14442
922.898	14320
923.007	14351
923.116	14374
923.224	14351
923.333	14370
923.442	14191
923.55	14187
923.659	14275
923.767	14176
923.876	14149
923.984	14195
924.092	14126
924.201	14073
924.309	14138
924.417	14084
924.525	14024
924.633	14073
924.741	14773
924.849	13799
924.956	13944
925.064	13803
925.172	13753
925.279	13693
925.387	13795
925.494	13742
925.602	13890
925.709	13830
925.816	13613
925.924	13700
926.031	13731
926.138	13643
926.245	13666
926.352	13620
926.459	13677
926.566	13636
926.673	13586
926.779	13521
926.886	13521
926.993	13316
927.099	13358
927.206	13301
927.312	13209
927.419	13274
927.525	13168
927.631	13251
927.737	13156
927.843	13126
927.95	12989
928.056	13038
928.162	13168
928.267	13152
928.373	13696
928.479	13088
928.585	12932
928.69	13023
928.796	13084
928.901	12886
929.007	12829
929.112	12871
929.218	12837
929.323	12897
929.428	12833
929.533	12802
929.638	12764
929.743	12802
929.848	12734
929.953	12722
930.058	12589
930.163	12464
930.267	12536
930.372	12612
930.477	12357
930.581	12707
930.685	12475
930.79	12311
930.894	12365
930.998	12330
931.103	12471
931.207	12133
931.311	11935
931.415	11870
931.519	11722
931.623	11649
