Data from test_V78500241_3113.txt Node
Date: Fri Mar 25 16:03:21 CST 2022
User: usil
Spectrometer: V785-0024
Trigger mode: 0
Integration Time (sec): 4.000000E-1
Scans to average: 1
Nonlinearity correction enabled: false
Boxcar width: 0
Storing dark spectrum: false
XAxis mode: Wavelengths
Number of Pixels in Spectrum: 1024
>>>>>Begin Spectral Data<<<<<
801.071	28459
801.214	28451
801.356	28367
801.499	28246
801.641	28139
801.783	28192
801.926	28185
802.068	28219
802.211	28143
802.353	28059
802.496	27842
802.638	27854
802.78	27694
802.923	27751
803.065	27542
803.208	27770
803.35	27888
803.492	28002
803.635	28074
803.777	27892
803.919	28116
804.061	28280
804.204	28120
804.346	27987
804.488	27854
804.63	28010
804.773	28044
804.915	28150
805.057	28223
805.199	28169
805.341	28040
805.483	28128
805.626	28200
805.768	28112
805.91	28261
806.052	28181
806.194	28093
806.336	28265
806.478	28185
806.62	28112
806.762	28417
806.904	28504
807.046	28755
807.188	28668
807.33	28611
807.472	28691
807.614	28626
807.756	28569
807.898	28599
808.04	28428
808.182	28478
808.324	28577
808.465	28550
808.607	28736
808.749	28927
808.891	28968
809.033	29094
809.174	28984
809.316	28778
809.458	28854
809.6	29014
809.741	28919
809.883	29014
810.025	29242
810.166	29136
810.308	29258
810.45	29086
810.591	29033
810.733	29003
810.875	28923
811.016	28809
811.158	28740
811.299	28972
811.441	29041
811.582	29140
811.724	29048
811.865	28801
812.007	28812
812.148	28862
812.29	29086
812.431	29071
812.573	29197
812.714	29379
812.855	29490
812.997	29516
813.138	29570
813.279	29509
813.421	29391
813.562	29375
813.703	29204
813.845	29067
813.986	28866
814.127	28752
814.268	28733
814.41	28649
814.551	28588
814.692	28672
814.833	28538
814.974	28550
815.115	28535
815.256	28455
815.397	28603
815.539	28413
815.68	28341
815.821	28303
815.962	28447
816.103	28405
816.244	28299
816.385	28287
816.526	28211
816.666	28059
816.807	27888
816.948	27964
817.089	27991
817.23	28006
817.371	27854
817.512	27956
817.653	27922
817.793	27835
817.934	27899
818.075	28010
818.216	28074
818.356	27895
818.497	27774
818.638	27625
818.778	27701
818.919	27629
819.06	27789
819.2	27762
819.341	27892
819.481	27892
819.622	28029
819.762	28295
819.903	28124
820.043	28090
820.184	27994
820.324	28044
820.465	28303
820.605	27983
820.746	28051
820.886	27831
821.026	27941
821.167	28025
821.307	28154
821.447	27998
821.588	27892
821.728	27709
821.868	27614
822.008	27412
822.149	27549
822.289	27408
822.429	27233
822.569	27207
822.709	27020
822.849	26998
822.99	26880
823.13	26880
823.27	26872
823.41	26777
823.55	26617
823.69	26629
823.83	26743
823.97	26708
824.11	26636
824.25	26560
824.389	26549
824.529	26598
824.669	26575
824.809	26743
824.949	26731
825.089	26556
825.228	26655
825.368	26457
825.508	26412
825.648	26309
825.787	26457
825.927	26503
826.067	26427
826.206	26415
826.346	26530
826.485	26446
826.625	26526
826.765	26396
826.904	26526
827.044	26244
827.183	26290
827.323	26039
827.462	26187
827.601	26202
827.741	26183
827.88	26062
828.02	26161
828.159	26267
828.298	26069
828.437	26054
828.577	26122
828.716	26294
828.855	25978
828.994	25879
829.134	26027
829.273	25818
829.412	25750
829.551	25845
829.69	25841
829.829	25883
829.968	25925
830.107	26073
830.246	25830
830.385	25780
830.524	25784
830.663	25620
830.802	25609
830.941	25381
831.08	25510
831.219	25556
831.357	25533
831.496	25795
831.635	25506
831.774	25316
831.913	25346
832.051	25194
832.19	25331
832.329	25285
832.467	25091
832.606	25137
832.744	25114
832.883	25095
833.022	25198
833.16	25118
833.299	25171
833.437	25080
833.576	25301
833.714	25171
833.852	25266
833.991	25114
834.129	25274
834.267	25301
834.406	25293
834.544	25126
834.682	25240
834.821	25118
834.959	25381
835.097	25194
835.235	25327
835.373	25152
835.511	25148
835.65	24947
835.788	25061
835.926	24981
836.064	24802
836.202	24821
836.34	25141
836.478	25031
836.615	25088
836.753	24996
836.891	25126
837.029	25023
837.167	24996
837.305	24897
837.443	24875
837.58	24798
837.718	24924
837.856	24977
837.993	24806
838.131	24798
838.269	24787
838.406	24673
838.544	24646
838.681	24452
838.819	24563
838.956	24277
839.094	24388
839.231	24330
839.369	24448
839.506	24726
839.643	24521
839.781	24410
839.918	24232
840.055	24194
840.193	24155
840.33	24308
840.467	24239
840.604	24194
840.742	24467
840.879	24049
841.016	24155
841.153	24007
841.29	24262
841.427	24292
841.564	24258
841.701	24224
841.838	24117
841.975	24022
842.112	24136
842.249	23946
842.385	23870
842.522	24167
842.659	23996
842.796	24015
842.933	24007
843.069	23836
843.206	23927
843.343	24098
843.479	23920
843.616	23840
843.752	23840
843.889	23771
844.025	24007
844.162	23813
844.298	23893
844.435	23718
844.571	23726
844.708	23828
844.844	23996
844.98	23836
845.117	23904
845.253	23729
845.389	23638
845.525	23695
845.661	23634
845.798	23474
845.934	23608
846.07	23425
846.206	23512
846.342	23638
846.478	23444
846.614	23398
846.75	23227
846.886	23124
847.022	23330
847.158	23296
847.294	23231
847.429	23265
847.565	23132
847.701	23467
847.837	22881
847.972	22911
848.108	23067
848.244	23052
848.379	22797
848.515	22877
848.65	22866
848.786	22755
848.921	22748
849.057	22828
849.192	22881
849.328	22710
849.463	22938
849.598	22729
849.734	22820
849.869	22675
850.004	22542
850.14	22618
850.275	22546
850.41	22432
850.545	22557
850.68	22542
850.815	22542
850.95	22504
851.085	22774
851.22	22721
851.355	22603
851.49	22455
851.625	22573
851.76	22455
851.895	22573
852.03	22470
852.165	22569
852.299	22485
852.434	22565
852.569	22618
852.703	22637
852.838	22649
852.973	22736
853.107	22672
853.242	22557
853.376	22523
853.511	22409
853.645	22421
853.78	22485
853.914	22402
854.048	22329
854.183	22303
854.317	22493
854.451	22656
854.585	22421
854.72	22360
854.854	22527
854.988	22451
855.122	22512
855.256	22272
855.39	22394
855.524	22398
855.658	22466
855.792	22428
855.926	22538
856.06	22554
856.194	22504
856.327	22352
856.461	22394
856.595	22363
856.729	22261
856.862	22500
856.996	22561
857.13	22459
857.263	22577
857.397	22626
857.53	22371
857.664	22421
857.797	22417
857.931	22500
858.064	22413
858.197	22550
858.331	22341
858.464	22284
858.597	22337
858.731	22325
858.864	22322
858.997	22348
859.13	22367
859.263	22329
859.396	22451
859.529	22284
859.662	22337
859.795	22344
859.928	22455
860.061	22592
860.194	22584
860.327	22489
860.46	22478
860.592	22516
860.725	22569
860.858	22470
860.99	22367
861.123	22394
861.256	22432
861.388	22500
861.521	23079
861.653	22265
861.786	22116
861.918	22188
862.05	22253
862.183	22409
862.315	22329
862.447	22379
862.58	22242
862.712	22238
862.844	22055
862.976	22135
863.108	22226
863.24	22481
863.372	21998
863.504	22090
863.636	22158
863.768	22074
863.9	22192
864.032	22120
864.164	22059
864.296	22204
864.428	22268
864.559	22116
864.691	22162
864.823	22086
864.954	22067
865.086	22158
865.217	22101
865.349	21975
865.48	22002
865.612	22059
865.743	22135
865.875	22105
866.006	21945
866.137	21934
866.269	21953
866.4	22017
866.531	22006
866.662	21892
866.793	21964
866.924	21956
867.055	22135
867.186	21998
867.317	21907
867.448	21816
867.579	21937
867.71	21861
867.841	21785
867.972	21926
868.103	21930
868.233	21819
868.364	21888
868.495	22002
868.625	22143
868.756	22192
868.886	22006
869.017	22173
869.147	22280
869.278	22352
869.408	22166
869.539	22192
869.669	22253
869.799	22223
869.929	22272
870.06	22318
870.19	22466
870.32	22451
870.45	22557
870.58	22512
870.71	22736
870.84	22615
870.97	22599
871.1	22584
871.23	22683
871.36	22790
871.489	22835
871.619	22729
871.749	22740
871.879	22843
872.008	22763
872.138	22645
872.267	22755
872.397	22622
872.526	22535
872.656	22561
872.785	22565
872.915	22733
873.044	22927
873.173	22839
873.303	22885
873.432	22702
873.561	22740
873.69	22790
873.819	22923
873.948	22816
874.077	22710
874.206	22733
874.335	22679
874.464	22999
874.593	23071
874.722	23117
874.851	23041
874.979	23029
875.108	23105
875.237	22968
875.365	22889
875.494	22873
875.623	23064
875.751	22957
875.88	23064
876.008	23121
876.136	23181
876.265	23307
876.393	23467
876.521	23425
876.65	23505
876.778	23505
876.906	23417
877.034	23315
877.162	23334
877.29	23429
877.418	23372
877.546	23360
877.674	23402
877.802	23330
877.93	23341
878.058	23341
878.185	23318
878.313	23185
878.441	23379
878.568	23143
878.696	23280
878.824	23395
878.951	23349
879.079	23539
879.206	23695
879.333	23429
879.461	23265
879.588	23471
879.715	23547
879.842	23573
879.97	23406
880.097	23212
880.224	23147
880.351	23280
880.478	23250
880.605	23159
880.732	23044
880.859	23410
880.986	23151
881.112	23121
881.239	23071
881.366	22782
881.493	22835
881.619	22702
881.746	22687
881.872	22778
881.999	22691
882.125	22812
882.252	22683
882.378	22687
882.505	22843
882.631	22550
882.757	22402
882.883	22356
883.01	22409
883.136	22348
883.262	22280
883.388	22200
883.514	22409
883.64	22348
883.766	22249
883.892	22029
884.018	22150
884.143	22344
884.269	22508
884.395	21956
884.52	22036
884.646	22010
884.772	21945
884.897	21895
885.023	22010
885.148	22105
885.274	22093
885.399	22143
885.524	22109
885.65	21945
885.775	22158
885.9	21979
886.025	22128
886.15	22040
886.275	22010
886.4	21903
886.525	21987
886.65	21865
886.775	21907
886.9	22082
887.025	22196
887.149	22006
887.274	21823
887.399	21713
887.523	21606
887.648	21652
887.773	21724
887.897	21869
888.021	21854
888.146	21739
888.27	21816
888.395	21857
888.519	21903
888.643	21739
888.767	21895
888.891	21732
889.015	21629
889.139	21572
889.263	21614
889.387	21694
889.511	21812
889.635	21766
889.759	21580
889.883	21591
890.006	21428
890.13	21682
890.254	21572
890.377	21473
890.501	21420
890.624	21249
890.748	21374
890.871	21165
890.995	21180
891.118	21096
891.241	21241
891.364	21279
891.488	21226
891.611	21192
891.734	21222
891.857	21199
891.98	21081
892.103	21252
892.226	21131
892.349	21043
892.471	20883
892.594	21043
892.717	21085
892.839	21020
892.962	21017
893.085	21211
893.207	21017
893.33	20933
893.452	20937
893.575	20960
893.697	21017
893.819	21192
893.941	21077
894.064	21203
894.186	21020
894.308	20967
894.43	21074
894.552	21131
894.674	20975
894.796	20864
894.918	21062
895.04	20979
895.161	21085
895.283	21009
895.405	20880
895.526	21066
895.648	20941
895.769	21089
895.891	21028
896.012	21123
896.134	21108
896.255	20975
896.376	20880
896.498	20944
896.619	21051
896.74	21077
896.861	21058
896.982	21348
897.103	21367
897.224	21173
897.345	21157
897.466	21203
897.587	21146
897.708	21291
897.828	21173
897.949	21036
898.07	21096
898.19	21096
898.311	21351
898.431	21077
898.552	21230
898.672	21241
898.792	21207
898.913	21207
899.033	20990
899.153	20979
899.273	20975
899.393	20990
899.513	20914
899.633	20967
899.753	20906
899.873	20876
899.993	20952
900.113	20891
900.232	20975
900.352	20887
900.472	20750
900.591	20716
900.711	20648
900.83	20727
900.95	20826
901.069	20762
901.189	20625
901.308	20396
901.427	20206
901.546	20164
901.665	20240
901.784	20301
901.904	20195
902.023	20092
902.141	19940
902.26	19776
902.379	19750
902.498	19750
902.617	19685
902.735	19826
902.854	19830
902.973	19681
903.091	19453
903.21	19403
903.328	19365
903.446	19499
903.565	19221
903.683	19274
903.801	19179
903.919	19274
904.038	19187
904.156	19023
904.274	19114
904.392	19000
904.51	18909
904.627	18939
904.745	19023
904.863	19091
904.981	18764
905.098	18734
905.216	18661
905.334	18711
905.451	18719
905.569	18616
905.686	18783
905.803	18677
905.921	18395
906.038	18551
906.155	18441
906.272	18334
906.389	18365
906.506	18258
906.623	18152
906.74	18133
906.857	18155
906.974	18083
907.091	18205
907.208	18216
907.324	18243
907.441	18114
907.557	17927
907.674	17988
907.79	17874
907.907	17999
908.023	17859
908.139	18022
908.256	17874
908.372	17802
908.488	17809
908.604	17733
908.72	17474
908.836	17558
908.952	17570
909.068	17710
909.184	17687
909.3	17627
909.415	17627
909.531	17471
909.647	17341
909.762	17273
909.878	17379
909.993	17254
910.108	17307
910.224	17269
910.339	17296
910.454	17193
910.57	17140
910.685	16987
910.8	17235
910.915	17227
911.03	17102
911.145	16911
911.259	16968
911.374	16816
911.489	16763
911.604	16694
911.718	16637
911.833	16630
911.947	16508
912.062	16382
912.176	16649
912.291	16588
912.405	16611
912.519	16850
912.633	16771
912.748	16630
912.862	16561
912.976	16382
913.09	16303
913.204	16546
913.318	16402
913.431	16592
913.545	16512
913.659	16584
913.772	16455
913.886	16234
914	16253
914.113	16310
914.226	16367
914.34	16306
914.453	16154
914.566	16211
914.68	16112
914.793	16154
914.906	16013
915.019	15861
915.132	15785
915.245	15724
915.358	15789
915.47	15781
915.583	15816
915.696	15838
915.809	15888
915.921	15960
916.034	15667
916.146	15747
916.259	15713
916.371	15797
916.483	15762
916.595	15637
916.708	15603
916.82	15622
916.932	15629
917.044	15507
917.156	15553
917.268	15454
917.38	15515
917.491	15435
917.603	15431
917.715	15500
917.826	15439
917.938	15439
918.049	15359
918.161	15431
918.272	15545
918.384	15447
918.495	15294
918.606	15249
918.717	15142
918.828	15256
918.939	15283
919.05	15100
919.161	15154
919.272	15020
919.383	15001
919.494	15207
919.604	15287
919.715	15142
919.826	15058
919.936	15081
920.047	15222
920.157	15077
920.267	15332
920.378	15112
920.488	15077
920.598	15287
920.708	15473
920.818	15233
920.928	15298
921.038	15382
921.148	15321
921.258	15043
921.368	15020
921.477	14895
921.587	14944
921.697	14632
921.806	14918
921.916	14720
922.025	14522
922.134	14454
922.244	14366
922.353	14507
922.462	14309
922.571	14328
922.68	14168
922.789	14168
922.898	14183
923.007	14016
923.116	14214
923.224	14134
923.333	14107
923.442	14077
923.55	13967
923.659	14035
923.767	14031
923.876	13951
923.984	13871
924.092	13849
924.201	13841
924.309	13841
924.417	13902
924.525	13856
924.633	13761
924.741	14484
924.849	13468
924.956	13734
925.064	13510
925.172	13510
925.279	13620
925.387	13499
925.494	13495
925.602	13639
925.709	13620
925.816	13445
925.924	13403
926.031	13586
926.138	13441
926.245	13510
926.352	13324
926.459	13518
926.566	13537
926.673	13297
926.779	13377
926.886	13206
926.993	13080
927.099	13084
927.206	13015
927.312	13042
927.419	13156
927.525	13110
927.631	13038
927.737	12939
927.843	12871
927.95	12768
928.056	12989
928.162	12954
928.267	12878
928.373	13571
928.479	12894
928.585	12730
928.69	12852
928.796	12783
928.901	12798
929.007	12559
929.112	12741
929.218	12745
929.323	12506
929.428	12631
929.533	12662
929.638	12547
929.743	12506
929.848	12544
929.953	12585
930.058	12369
930.163	12266
930.267	12281
930.372	12353
930.477	12289
930.581	12365
930.685	12209
930.79	12136
930.894	12175
930.998	12140
931.103	12228
931.207	11859
931.311	11836
931.415	11627
931.519	11516
931.623	11486
