Data from test_V78500241_1519.txt Node
Date: Fri Mar 25 15:52:19 CST 2022
User: usil
Spectrometer: V785-0024
Trigger mode: 0
Integration Time (sec): 4.000000E-1
Scans to average: 1
Nonlinearity correction enabled: false
Boxcar width: 0
Storing dark spectrum: false
XAxis mode: Wavelengths
Number of Pixels in Spectrum: 1024
>>>>>Begin Spectral Data<<<<<
801.071	28093
801.214	28082
801.356	27793
801.499	27846
801.641	27606
801.783	27641
801.926	27591
802.068	27545
802.211	27511
802.353	27576
802.496	27393
802.638	27249
802.78	27310
802.923	27249
803.065	27237
803.208	27310
803.35	27378
803.492	27420
803.635	27504
803.777	27435
803.919	27488
804.061	27861
804.204	27625
804.346	27427
804.488	27336
804.63	27473
804.773	27416
804.915	27591
805.057	27759
805.199	27614
805.341	27545
805.483	27785
805.626	27747
805.768	27561
805.91	27553
806.052	27671
806.194	27561
806.336	27914
806.478	27694
806.62	27812
806.762	27842
806.904	27899
807.046	28055
807.188	28139
807.33	28097
807.472	28059
807.614	27934
807.756	28261
807.898	28010
808.04	27884
808.182	27907
808.324	28036
808.465	28040
808.607	28295
808.749	28428
808.891	28474
809.033	28557
809.174	28306
809.316	28379
809.458	28223
809.6	28299
809.741	28360
809.883	28409
810.025	28531
810.166	28626
810.308	28630
810.45	28371
810.591	28382
810.733	28348
810.875	28310
811.016	28280
811.158	28204
811.299	28367
811.441	28352
811.582	28386
811.724	28226
811.865	28325
812.007	28390
812.148	28371
812.29	28265
812.431	28577
812.573	28645
812.714	28687
812.855	28771
812.997	28828
813.138	29067
813.279	28949
813.421	28831
813.562	28900
813.703	28596
813.845	28432
813.986	28215
814.127	28063
814.268	28063
814.41	28025
814.551	28032
814.692	28173
814.833	27819
814.974	27895
815.115	27907
815.256	27972
815.397	27953
815.539	27831
815.68	27781
815.821	27728
815.962	27835
816.103	27816
816.244	27694
816.385	27564
816.526	27561
816.666	27450
816.807	27214
816.948	27332
817.089	27466
817.23	27306
817.371	27370
817.512	27332
817.653	27192
817.793	27260
817.934	27192
818.075	27367
818.216	27336
818.356	27374
818.497	27169
818.638	27165
818.778	27138
818.919	26971
819.06	27104
819.2	27188
819.341	27348
819.481	27264
819.622	27370
819.762	27580
819.903	27599
820.043	27462
820.184	27492
820.324	27355
820.465	27557
820.605	27374
820.746	27378
820.886	27226
821.026	27214
821.167	27397
821.307	27397
821.447	27367
821.588	27161
821.728	27207
821.868	26990
822.008	26781
822.149	26807
822.289	26720
822.429	26609
822.569	26476
822.709	26362
822.849	26366
822.99	26343
823.13	26355
823.27	26126
823.41	26142
823.55	25993
823.69	26172
823.83	26172
823.97	26027
824.11	25909
824.25	25837
824.389	25898
824.529	25917
824.669	25921
824.809	26107
824.949	25986
825.089	25986
825.228	26065
825.368	25780
825.508	25750
825.648	25811
825.787	25761
825.927	25734
826.067	25795
826.206	25818
826.346	25837
826.485	25894
826.625	25917
826.765	25860
826.904	25917
827.044	25635
827.183	25537
827.323	25510
827.462	25643
827.601	25647
827.741	25441
827.88	25632
828.02	25350
828.159	25373
828.298	25335
828.437	25468
828.577	25419
828.716	25624
828.855	25449
828.994	25183
829.134	25103
829.273	25217
829.412	25156
829.551	25202
829.69	25164
829.829	25255
829.968	25259
830.107	25251
830.246	25316
830.385	25126
830.524	25053
830.663	25107
830.802	25031
830.941	24821
831.08	24802
831.219	24878
831.357	24859
831.496	24920
831.635	24867
831.774	24658
831.913	24741
832.051	24517
832.19	24692
832.329	24608
832.467	24616
832.606	24369
832.744	24414
832.883	24433
833.022	24509
833.16	24410
833.299	24536
833.437	24456
833.576	24525
833.714	24521
833.852	24536
833.991	24559
834.129	24608
834.267	24665
834.406	24563
834.544	24631
834.682	24555
834.821	24437
834.959	24692
835.097	24486
835.235	24563
835.373	24498
835.511	24559
835.65	24490
835.788	24490
835.926	24407
836.064	24262
836.202	24205
836.34	24441
836.478	24502
836.615	24388
836.753	24494
836.891	24452
837.029	24369
837.167	24342
837.305	24334
837.443	24235
837.58	24277
837.718	24376
837.856	24232
837.993	24266
838.131	24243
838.269	24038
838.406	24167
838.544	24110
838.681	23977
838.819	23885
838.956	23630
839.094	23733
839.231	23775
839.369	23847
839.506	24102
839.643	23965
839.781	23668
839.918	23703
840.055	23847
840.193	23535
840.33	23592
840.467	23585
840.604	23684
840.742	23939
840.879	23433
841.016	23524
841.153	23551
841.29	23687
841.427	23615
841.564	23657
841.701	23543
841.838	23619
841.975	23433
842.112	23585
842.249	23402
842.385	23307
842.522	23630
842.659	23440
842.796	23364
842.933	23280
843.069	23307
843.206	23288
843.343	23307
843.479	23433
843.616	23349
843.752	23155
843.889	23273
844.025	23280
844.162	23102
844.298	23220
844.435	23204
844.571	23143
844.708	23242
844.844	23200
844.98	23376
845.117	23170
845.253	23117
845.389	22869
845.525	22976
845.661	23041
845.798	22824
845.934	23029
846.07	22752
846.206	22999
846.342	22949
846.478	22881
846.614	22778
846.75	22603
846.886	22538
847.022	22729
847.158	22713
847.294	22580
847.429	22752
847.565	22599
847.701	22809
847.837	22246
847.972	22318
848.108	22497
848.244	22478
848.379	22207
848.515	22192
848.65	22238
848.786	22246
848.921	22253
849.057	22257
849.192	22280
849.328	22272
849.463	22120
849.598	22200
849.734	22238
849.869	22063
850.004	21949
850.14	21937
850.275	21972
850.41	21915
850.545	21869
850.68	22063
850.815	21888
850.95	22044
851.085	22109
851.22	22078
851.355	22036
851.49	21918
851.625	21972
851.76	21838
851.895	21918
852.03	21926
852.165	22029
852.299	21842
852.434	21915
852.569	22013
852.703	22032
852.838	21994
852.973	22120
853.107	21972
853.242	21861
853.376	21861
853.511	21675
853.645	21709
853.78	21816
853.914	21804
854.048	21797
854.183	21812
854.317	21930
854.451	21918
854.585	21793
854.72	21785
854.854	21800
854.988	21770
855.122	21785
855.256	21644
855.39	21854
855.524	21682
855.658	21850
855.792	21774
855.926	21812
856.06	21854
856.194	21770
856.327	21797
856.461	21690
856.595	21701
856.729	21720
856.862	21842
856.996	21998
857.13	21831
857.263	21884
857.397	21880
857.53	21915
857.664	21930
857.797	21831
857.931	21903
858.064	21812
858.197	21972
858.331	21755
858.464	21675
858.597	21671
858.731	21838
858.864	21816
858.997	21789
859.13	21800
859.263	21793
859.396	21755
859.529	21854
859.662	21857
859.795	21667
859.928	21838
860.061	22021
860.194	22025
860.327	21827
860.46	21827
860.592	21926
860.725	21956
860.858	21854
860.99	21827
861.123	21785
861.256	21854
861.388	21724
861.521	22337
861.653	21736
861.786	21542
861.918	21701
862.05	21652
862.183	21648
862.315	21762
862.447	21827
862.58	21576
862.712	21450
862.844	21500
862.976	21629
863.108	21534
863.24	21987
863.372	21462
863.504	21481
863.636	21538
863.768	21477
863.9	21542
864.032	21511
864.164	21416
864.296	21599
864.428	21526
864.559	21507
864.691	21519
864.823	21519
864.954	21405
865.086	21500
865.217	21374
865.349	21325
865.48	21389
865.612	21401
865.743	21443
865.875	21340
866.006	21382
866.137	21374
866.269	21386
866.4	21344
866.531	21279
866.662	21260
866.793	21283
866.924	21405
867.055	21237
867.186	21351
867.317	21302
867.448	21222
867.579	21192
867.71	21359
867.841	21249
867.972	21386
868.103	21329
868.233	21272
868.364	21325
868.495	21458
868.625	21606
868.756	21557
868.886	21435
869.017	21428
869.147	21663
869.278	21698
869.408	21466
869.539	21580
869.669	21667
869.799	21580
869.929	21633
870.06	21724
870.19	21846
870.32	21876
870.45	21823
870.58	21869
870.71	22143
870.84	22070
870.97	21892
871.1	21972
871.23	22093
871.36	22131
871.489	22021
871.619	22112
871.749	22128
871.879	22177
872.008	22128
872.138	22051
872.267	22166
872.397	22025
872.526	21983
872.656	22040
872.785	22021
872.915	22219
873.044	22272
873.173	22154
873.303	22204
873.432	22192
873.561	22226
873.69	22158
873.819	22261
873.948	22318
874.077	22154
874.206	22105
874.335	22242
874.464	22325
874.593	22462
874.722	22249
874.851	22352
874.979	22371
875.108	22592
875.237	22169
875.365	22348
875.494	22356
875.623	22489
875.751	22363
875.88	22443
876.008	22542
876.136	22519
876.265	22717
876.393	23006
876.521	22816
876.65	22763
876.778	22729
876.906	22660
877.034	22641
877.162	22774
877.29	22546
877.418	22702
877.546	22729
877.674	22782
877.802	22774
877.93	22702
878.058	22717
878.185	22603
878.313	22744
878.441	22615
878.568	22523
878.696	22694
878.824	22717
878.951	22805
879.079	22968
879.206	22991
879.333	22972
879.461	22786
879.588	22942
879.715	22957
879.842	22961
879.97	22778
880.097	22546
880.224	22386
880.351	22565
880.478	22523
880.605	22497
880.732	22599
880.859	22740
880.986	22603
881.112	22649
881.239	22519
881.366	22284
881.493	22268
881.619	22067
881.746	22207
881.872	22082
881.999	22025
882.125	22097
882.252	22162
882.378	22162
882.505	22246
882.631	21972
882.757	21778
882.883	21926
883.01	21804
883.136	21732
883.262	21732
883.388	21698
883.514	21857
883.64	21899
883.766	21637
883.892	21618
884.018	21618
884.143	21724
884.269	21812
884.395	21549
884.52	21420
884.646	21549
884.772	21313
884.897	21466
885.023	21382
885.148	21355
885.274	21644
885.399	21515
885.524	21469
885.65	21424
885.775	21523
885.9	21329
886.025	21504
886.15	21431
886.275	21431
886.4	21351
886.525	21386
886.65	21378
886.775	21351
886.9	21576
887.025	21606
887.149	21477
887.274	21260
887.399	21203
887.523	21218
887.648	21135
887.773	21207
887.897	21287
888.021	21165
888.146	21173
888.27	21336
888.395	21382
888.519	21272
888.643	21252
888.767	21188
888.891	21199
889.015	21055
889.139	21085
889.263	20994
889.387	21138
889.511	21310
889.635	20979
889.759	20929
889.883	20979
890.006	21047
890.13	21116
890.254	20929
890.377	20948
890.501	20842
890.624	20701
890.748	20739
890.871	20503
890.995	20556
891.118	20533
891.241	20625
891.364	20629
891.488	20655
891.611	20533
891.734	20571
891.857	20621
891.98	20560
892.103	20568
892.226	20644
892.349	20473
892.471	20423
892.594	20549
892.717	20583
892.839	20427
892.962	20415
893.085	20667
893.207	20526
893.33	20396
893.452	20370
893.575	20434
893.697	20434
893.819	20526
893.941	20659
894.064	20556
894.186	20385
894.308	20366
894.43	20590
894.552	20644
894.674	20434
894.796	20343
894.918	20400
895.04	20385
895.161	20469
895.283	20564
895.405	20377
895.526	20412
895.648	20480
895.769	20617
895.891	20465
896.012	20575
896.134	20518
896.255	20446
896.376	20556
896.498	20488
896.619	20484
896.74	20495
896.861	20454
896.982	20739
897.103	20948
897.224	20686
897.345	20655
897.466	20670
897.587	20720
897.708	20693
897.828	20674
897.949	20560
898.07	20366
898.19	20609
898.311	20838
898.431	20522
898.552	20629
898.672	20693
898.792	20739
898.913	20769
899.033	20571
899.153	20617
899.273	20423
899.393	20492
899.513	20469
899.633	20393
899.753	20450
899.873	20381
899.993	20454
900.113	20434
900.232	20465
900.352	20400
900.472	20202
900.591	20103
900.711	20180
900.83	20153
900.95	20336
901.069	20259
901.189	20164
901.308	19894
901.427	19765
901.546	19624
901.665	19734
901.784	19776
901.904	19616
902.023	19540
902.141	19377
902.26	19415
902.379	19289
902.498	19293
902.617	19266
902.735	19308
902.854	19255
902.973	19168
903.091	18996
903.21	18890
903.328	18954
903.446	18913
903.565	18772
903.683	18745
903.801	18768
903.919	18696
904.038	18738
904.156	18681
904.274	18601
904.392	18570
904.51	18536
904.627	18460
904.745	18540
904.863	18589
904.981	18323
905.098	18201
905.216	18258
905.334	18228
905.451	18125
905.569	18205
905.686	18140
905.803	18155
905.921	17950
906.038	18133
906.155	17942
906.272	17847
906.389	17977
906.506	17726
906.623	17718
906.74	17687
906.857	17649
906.974	17741
907.091	17767
907.208	17843
907.324	17695
907.441	17604
907.557	17364
907.674	17364
907.79	17452
907.907	17372
908.023	17463
908.139	17398
908.256	17398
908.372	17277
908.488	17318
908.604	17143
908.72	17189
908.836	17162
908.952	17159
909.068	17242
909.184	17235
909.3	17151
909.415	17090
909.531	17185
909.647	16828
909.762	16892
909.878	16930
909.993	16930
910.108	16736
910.224	16900
910.339	16850
910.454	16763
910.57	16664
910.685	16599
910.8	16972
910.915	16790
911.03	16584
911.145	16459
911.259	16542
911.374	16443
911.489	16421
911.604	16310
911.718	16242
911.833	16181
911.947	16078
912.062	15979
912.176	16261
912.291	16230
912.405	16219
912.519	16344
912.633	16386
912.748	16242
912.862	16097
912.976	15972
913.09	15911
913.204	15888
913.318	16032
913.431	16055
913.545	16059
913.659	16090
913.772	15892
913.886	15781
914	15812
914.113	15926
914.226	15884
914.34	15747
914.453	15682
914.566	15800
914.68	15644
914.793	15629
914.906	15530
915.019	15450
915.132	15313
915.245	15412
915.358	15382
915.47	15370
915.583	15321
915.696	15458
915.809	15469
915.921	15462
916.034	15245
916.146	15313
916.259	15241
916.371	15325
916.483	15321
916.595	15249
916.708	15268
916.82	15214
916.932	15093
917.044	15211
917.156	15142
917.268	15024
917.38	15020
917.491	14956
917.603	15077
917.715	15123
917.826	15058
917.938	14921
918.049	14861
918.161	15005
918.272	15116
918.384	15024
918.495	14990
918.606	14952
918.717	14788
918.828	14857
918.939	14785
919.05	14762
919.161	14724
919.272	14514
919.383	14613
919.494	14864
919.604	15058
919.715	14777
919.826	14644
919.936	14606
920.047	14750
920.157	14811
920.267	14975
920.378	14743
920.488	14762
920.598	14895
920.708	14967
920.818	14762
920.928	14849
921.038	15043
921.148	15017
921.258	14727
921.368	14625
921.477	14469
921.587	14473
921.697	14290
921.806	14465
921.916	14294
922.025	14202
922.134	14096
922.244	14046
922.353	14183
922.462	14008
922.571	13906
922.68	13757
922.789	13799
922.898	13674
923.007	13746
923.116	13807
923.224	13833
923.333	13803
923.442	13605
923.55	13578
923.659	13639
923.767	13571
923.876	13533
923.984	13594
924.092	13464
924.201	13495
924.309	13510
924.417	13514
924.525	13464
924.633	13449
924.741	14358
924.849	13255
924.956	13411
925.064	13202
925.172	13095
925.279	13164
925.387	13217
925.494	13152
925.602	13285
925.709	13202
925.816	13046
925.924	13209
926.031	13168
926.138	13145
926.245	13168
926.352	13050
926.459	13175
926.566	13133
926.673	13110
926.779	12939
926.886	12882
926.993	12757
927.099	12783
927.206	12692
927.312	12612
927.419	12738
927.525	12738
927.631	12654
927.737	12574
927.843	12620
927.95	12467
928.056	12555
928.162	12604
928.267	12563
928.373	13209
928.479	12502
928.585	12433
928.69	12464
928.796	12441
928.901	12346
929.007	12224
929.112	12334
929.218	12414
929.323	12175
929.428	12258
929.533	12369
929.638	12201
929.743	12243
929.848	12239
929.953	12243
930.058	12007
930.163	11954
930.267	11977
930.372	11977
930.477	11882
930.581	12232
930.685	11992
930.79	11809
930.894	11897
930.998	11767
931.103	11965
931.207	11623
931.311	11471
931.415	11440
931.519	11216
931.623	11216
