Data from test_V78500241_282.txt Node
Date: Fri Mar 25 15:43:45 CST 2022
User: usil
Spectrometer: V785-0024
Trigger mode: 0
Integration Time (sec): 4.000000E-1
Scans to average: 1
Nonlinearity correction enabled: false
Boxcar width: 0
Storing dark spectrum: false
XAxis mode: Wavelengths
Number of Pixels in Spectrum: 1024
>>>>>Begin Spectral Data<<<<<
801.071	29695
801.214	29726
801.356	29551
801.499	29406
801.641	29372
801.783	29341
801.926	29368
802.068	29303
802.211	29258
802.353	28987
802.496	28930
802.638	28972
802.78	29117
802.923	29029
803.065	28774
803.208	28953
803.35	29060
803.492	29204
803.635	29258
803.777	29014
803.919	29242
804.061	29558
804.204	29117
804.346	29075
804.488	28961
804.63	29140
804.773	28995
804.915	29052
805.057	29273
805.199	29132
805.341	29113
805.483	29258
805.626	29307
805.768	29174
805.91	29242
806.052	29299
806.194	29170
806.336	29402
806.478	29368
806.62	29311
806.762	29429
806.904	29505
807.046	29802
807.188	29615
807.33	29771
807.472	29885
807.614	29718
807.756	29779
807.898	29486
808.04	29505
808.182	29383
808.324	29387
808.465	29414
808.607	29726
808.749	29596
808.891	29961
809.033	30114
809.174	29969
809.316	29927
809.458	29942
809.6	29802
809.741	29832
809.883	29996
810.025	30098
810.166	30319
810.308	30045
810.45	30140
810.591	29965
810.733	29901
810.875	29794
811.016	29771
811.158	29813
811.299	29999
811.441	30102
811.582	29912
811.724	29710
811.865	29958
812.007	29855
812.148	29661
812.29	29843
812.431	29965
812.573	30140
812.714	30338
812.855	30426
812.997	30494
813.138	30563
813.279	30399
813.421	30319
813.562	30353
813.703	30136
813.845	30174
813.986	29870
814.127	29661
814.268	29604
814.41	29535
814.551	29619
814.692	29676
814.833	29467
814.974	29387
815.115	29566
815.256	29402
815.397	29345
815.539	29261
815.68	29265
815.821	29162
815.962	29155
816.103	29200
816.244	29170
816.385	28930
816.526	29048
816.666	28866
816.807	28767
816.948	28797
817.089	28748
817.23	28828
817.371	28736
817.512	28713
817.653	28626
817.793	28672
817.934	28752
818.075	28820
818.216	28752
818.356	28660
818.497	28592
818.638	28303
818.778	28348
818.919	28417
819.06	28607
819.2	28519
819.341	28729
819.481	28634
819.622	28888
819.762	29079
819.903	28862
820.043	28850
820.184	28828
820.324	28816
820.465	28877
820.605	28885
820.746	28672
820.886	28634
821.026	28565
821.167	28664
821.307	28691
821.447	28599
821.588	28660
821.728	28637
821.868	28253
822.008	28276
822.149	28090
822.289	28124
822.429	27934
822.569	27838
822.709	27614
822.849	27648
822.99	27606
823.13	27625
823.27	27485
823.41	27382
823.55	27256
823.69	27420
823.83	27424
823.97	27317
824.11	27188
824.25	27272
824.389	27089
824.529	27393
824.669	27192
824.809	27386
824.949	27439
825.089	27207
825.228	27268
825.368	27074
825.508	27024
825.648	27013
825.787	27070
825.927	27039
826.067	27036
826.206	26952
826.346	27066
826.485	27051
826.625	27188
826.765	27066
826.904	27058
827.044	26800
827.183	26754
827.323	26640
827.462	26743
827.601	26686
827.741	26705
827.88	26708
828.02	26568
828.159	26613
828.298	26724
828.437	26773
828.577	26670
828.716	26857
828.855	26549
828.994	26568
829.134	26434
829.273	26423
829.412	26389
829.551	26355
829.69	26457
829.829	26381
829.968	26461
830.107	26393
830.246	26351
830.385	26347
830.524	26244
830.663	26100
830.802	26054
830.941	26020
831.08	25856
831.219	26092
831.357	26058
831.496	26100
831.635	26039
831.774	25879
831.913	25845
832.051	25677
832.19	25666
832.329	25704
832.467	25594
832.606	25556
832.744	25666
832.883	25533
833.022	25434
833.16	25742
833.299	25681
833.437	25616
833.576	25696
833.714	25666
833.852	25670
833.991	25639
834.129	25753
834.267	25670
834.406	25655
834.544	25613
834.682	25666
834.821	25677
834.959	25772
835.097	25578
835.235	25639
835.373	25658
835.511	25556
835.65	25400
835.788	25487
835.926	25308
836.064	25129
836.202	25247
836.34	25411
836.478	25647
836.615	25407
836.753	25343
836.891	25556
837.029	25403
837.167	25346
837.305	25331
837.443	25213
837.58	25141
837.718	25343
837.856	25358
837.993	25194
838.131	25179
838.269	25103
838.406	25091
838.544	24996
838.681	24882
838.819	24878
838.956	24707
839.094	24635
839.231	24825
839.369	24897
839.506	25084
839.643	24901
839.781	24635
839.918	24426
840.055	24585
840.193	24654
840.33	24521
840.467	24623
840.604	24738
840.742	24715
840.879	24517
841.016	24426
841.153	24330
841.29	24490
841.427	24559
841.564	24627
841.701	24467
841.838	24445
841.975	24467
842.112	24426
842.249	24342
842.385	24319
842.522	24376
842.659	24197
842.796	24292
842.933	24235
843.069	24205
843.206	24148
843.343	24292
843.479	24171
843.616	24171
843.752	23988
843.889	23969
844.025	24125
844.162	24011
844.298	24148
844.435	23992
844.571	23882
844.708	23977
844.844	24110
844.98	24095
845.117	24155
845.253	23927
845.389	23866
845.525	23980
845.661	23821
845.798	23611
845.934	23710
846.07	23710
846.206	23691
846.342	23824
846.478	23642
846.614	23368
846.75	23318
846.886	23501
847.022	23505
847.158	23455
847.294	23467
847.429	23337
847.565	23345
847.701	23611
847.837	23143
847.972	23041
848.108	23315
848.244	23181
848.379	23143
848.515	22923
848.65	22915
848.786	23033
848.921	22915
849.057	23064
849.192	23162
849.328	23025
849.463	22896
849.598	22942
849.734	22820
849.869	22801
850.004	22672
850.14	22778
850.275	22805
850.41	22653
850.545	22683
850.68	22664
850.815	22763
850.95	22736
851.085	22873
851.22	22767
851.355	22675
851.49	22641
851.625	22668
851.76	22675
851.895	22679
852.03	22599
852.165	22656
852.299	22717
852.434	22755
852.569	22736
852.703	22691
852.838	22755
852.973	22839
853.107	22710
853.242	22660
853.376	22443
853.511	22413
853.645	22531
853.78	22497
853.914	22516
854.048	22500
854.183	22402
854.317	22485
854.451	22675
854.585	22596
854.72	22565
854.854	22535
854.988	22398
855.122	22561
855.256	22424
855.39	22451
855.524	22573
855.658	22599
855.792	22565
855.926	22447
856.06	22580
856.194	22713
856.327	22421
856.461	22481
856.595	22440
856.729	22344
856.862	22656
856.996	22611
857.13	22569
857.263	22584
857.397	22618
857.53	22417
857.664	22607
857.797	22504
857.931	22694
858.064	22421
858.197	22512
858.331	22451
858.464	22390
858.597	22310
858.731	22379
858.864	22379
858.997	22550
859.13	22451
859.263	22485
859.396	22577
859.529	22455
859.662	22421
859.795	22489
859.928	22428
860.061	22557
860.194	22725
860.327	22535
860.46	22440
860.592	22459
860.725	22603
860.858	22615
860.99	22451
861.123	22337
861.256	22337
861.388	22375
861.521	23098
861.653	22417
861.786	22234
861.918	22276
862.05	22497
862.183	22455
862.315	22626
862.447	22504
862.58	22386
862.712	22204
862.844	22150
862.976	22200
863.108	22226
863.24	22493
863.372	22097
863.504	22185
863.636	22223
863.768	22196
863.9	22105
864.032	22013
864.164	22090
864.296	22249
864.428	22280
864.559	22139
864.691	22249
864.823	22188
864.954	22082
865.086	22169
865.217	21983
865.349	21876
865.48	22078
865.612	22048
865.743	22207
865.875	22032
866.006	22059
866.137	21994
866.269	22078
866.4	21987
866.531	21945
866.662	22006
866.793	21979
866.924	21972
867.055	21903
867.186	21994
867.317	21926
867.448	21705
867.579	21979
867.71	21884
867.841	21903
867.972	21884
868.103	21915
868.233	21972
868.364	21880
868.495	21964
868.625	22120
868.756	22211
868.886	22109
869.017	22181
869.147	22413
869.278	22135
869.408	22162
869.539	22181
869.669	22303
869.799	22276
869.929	22253
870.06	22257
870.19	22489
870.32	22596
870.45	22500
870.58	22527
870.71	22736
870.84	22596
870.97	22702
871.1	22455
871.23	22733
871.36	22771
871.489	22641
871.619	22664
871.749	22847
871.879	22748
872.008	22805
872.138	22767
872.267	22759
872.397	22630
872.526	22550
872.656	22459
872.785	22622
872.915	22828
873.044	22862
873.173	22755
873.303	22869
873.432	22858
873.561	22984
873.69	22828
873.819	22744
873.948	22900
874.077	22812
874.206	22843
874.335	22599
874.464	22858
874.593	23014
874.722	23086
874.851	22965
874.979	22980
875.108	23128
875.237	22976
875.365	23014
875.494	22999
875.623	22995
875.751	22927
875.88	23060
876.008	23204
876.136	23147
876.265	23440
876.393	23391
876.521	23509
876.65	23440
876.778	23444
876.906	23258
877.034	23341
877.162	23322
877.29	23280
877.418	23242
877.546	23406
877.674	23318
877.802	23387
877.93	23429
878.058	23345
878.185	23220
878.313	23318
878.441	23448
878.568	23208
878.696	23231
878.824	23341
878.951	23383
879.079	23395
879.206	23630
879.333	23425
879.461	23463
879.588	23444
879.715	23425
879.842	23440
879.97	23406
880.097	23151
880.224	23124
880.351	23250
880.478	23090
880.605	23151
880.732	23052
880.859	23341
880.986	23151
881.112	23337
881.239	23044
881.366	22805
881.493	22740
881.619	22801
881.746	22835
881.872	22733
881.999	22721
882.125	22660
882.252	22805
882.378	22771
882.505	22786
882.631	22607
882.757	22333
882.883	22535
883.01	22493
883.136	22421
883.262	22188
883.388	22253
883.514	22348
883.64	22481
883.766	22360
883.892	22265
884.018	22147
884.143	22390
884.269	22523
884.395	22032
884.52	22017
884.646	21998
884.772	21907
884.897	22013
885.023	22006
885.148	22166
885.274	22246
885.399	22006
885.524	21918
885.65	21972
885.775	21960
885.9	21865
886.025	22097
886.15	21975
886.275	21888
886.4	21968
886.525	22051
886.65	21850
886.775	21850
886.9	22143
887.025	22238
887.149	21998
887.274	21804
887.399	21732
887.523	21739
887.648	21709
887.773	21816
887.897	21797
888.021	21724
888.146	21793
888.27	21819
888.395	21808
888.519	21705
888.643	21812
888.767	21751
888.891	21774
889.015	21610
889.139	21599
889.263	21424
889.387	21679
889.511	21808
889.635	21587
889.759	21591
889.883	21618
890.006	21671
890.13	21564
890.254	21477
890.377	21538
890.501	21264
890.624	21317
890.748	21272
890.871	21233
890.995	21028
891.118	21051
891.241	21005
891.364	21100
891.488	21207
891.611	21146
891.734	21146
891.857	21313
891.98	21085
892.103	21173
892.226	21169
892.349	21043
892.471	20937
892.594	20979
892.717	21100
892.839	20933
892.962	20925
893.085	21089
893.207	21112
893.33	20864
893.452	20906
893.575	21043
893.697	21001
893.819	21203
893.941	21001
894.064	21104
894.186	20944
894.308	20902
894.43	21013
894.552	21108
894.674	21020
894.796	20918
894.918	20883
895.04	20979
895.161	21123
895.283	20998
895.405	20952
895.526	20963
895.648	20914
895.769	20975
895.891	21039
896.012	21066
896.134	21066
896.255	21043
896.376	21085
896.498	20963
896.619	21165
896.74	21070
896.861	21100
896.982	21283
897.103	21389
897.224	21298
897.345	21321
897.466	21119
897.587	21298
897.708	21306
897.828	21260
897.949	21203
898.07	21169
898.19	21146
898.311	21252
898.431	21275
898.552	21100
898.672	21192
898.792	21131
898.913	21237
899.033	20937
899.153	20952
899.273	20845
899.393	20880
899.513	20883
899.633	20876
899.753	20880
899.873	20727
899.993	20982
900.113	20914
900.232	20849
900.352	20781
900.472	20731
900.591	20693
900.711	20731
900.83	20678
900.95	20682
901.069	20571
901.189	20583
901.308	20427
901.427	20149
901.546	20142
901.665	20263
901.784	20183
901.904	20020
902.023	19963
902.141	19780
902.26	19769
902.379	19845
902.498	19731
902.617	19632
902.735	19734
902.854	19628
902.973	19571
903.091	19373
903.21	19365
903.328	19396
903.446	19225
903.565	19190
903.683	19171
903.801	19008
903.919	19015
904.038	19179
904.156	18970
904.274	18985
904.392	18966
904.51	18852
904.627	18806
904.745	19069
904.863	18932
904.981	18730
905.098	18559
905.216	18551
905.334	18532
905.451	18623
905.569	18547
905.686	18563
905.803	18464
905.921	18410
906.038	18308
906.155	18502
906.272	18323
906.389	18334
906.506	18163
906.623	18194
906.74	18095
906.857	18022
906.974	17927
907.091	18178
907.208	18068
907.324	18194
907.441	17992
907.557	17764
907.674	17783
907.79	17665
907.907	17691
908.023	17779
908.139	17798
908.256	17794
908.372	17551
908.488	17608
908.604	17497
908.72	17535
908.836	17547
908.952	17391
909.068	17558
909.184	17619
909.3	17425
909.415	17436
909.531	17490
909.647	17204
909.762	17239
909.878	17136
909.993	17227
910.108	17197
910.224	17151
910.339	17132
910.454	17067
910.57	16968
910.685	16854
910.8	17265
910.915	17143
911.03	16942
911.145	16820
911.259	16828
911.374	16759
911.489	16675
911.604	16592
911.718	16561
911.833	16497
911.947	16398
912.062	16337
912.176	16493
912.291	16535
912.405	16577
912.519	16790
912.633	16694
912.748	16588
912.862	16440
912.976	16280
913.09	16173
913.204	16188
913.318	16257
913.431	16405
913.545	16375
913.659	16459
913.772	16257
913.886	16109
914	15949
914.113	16238
914.226	16166
914.34	16166
914.453	15934
914.566	16200
914.68	15983
914.793	15949
914.906	15778
915.019	15671
915.132	15641
915.245	15618
915.358	15736
915.47	15652
915.583	15762
915.696	15720
915.809	15785
915.921	15705
916.034	15580
916.146	15675
916.259	15519
916.371	15705
916.483	15641
916.595	15519
916.708	15549
916.82	15488
916.932	15458
917.044	15466
917.156	15386
917.268	15264
917.38	15268
917.491	15211
917.603	15226
917.715	15329
917.826	15298
917.938	15161
918.049	15150
918.161	15199
918.272	15279
918.384	15329
918.495	15233
918.606	15089
918.717	15043
918.828	15081
918.939	15066
919.05	15017
919.161	15058
919.272	14792
919.383	14929
919.494	15013
919.604	15146
919.715	14994
919.826	14914
919.936	14967
920.047	14979
920.157	15074
920.267	15192
920.378	15005
920.488	14967
920.598	15100
920.708	15237
920.818	15043
920.928	15013
921.038	15230
921.148	15188
921.258	14921
921.368	14792
921.477	14682
921.587	14686
921.697	14602
921.806	14644
921.916	14579
922.025	14396
922.134	14328
922.244	14271
922.353	14275
922.462	14218
922.571	14103
922.68	13997
922.789	13906
922.898	13986
923.007	13906
923.116	13974
923.224	13951
923.333	13860
923.442	13719
923.55	13727
923.659	13734
923.767	13731
923.876	13681
923.984	13715
924.092	13632
924.201	13655
924.309	13666
924.417	13681
924.525	13613
924.633	13582
924.741	14518
924.849	13460
924.956	13518
925.064	13388
925.172	13266
925.279	13346
925.387	13320
925.494	13339
925.602	13434
925.709	13354
925.816	13217
925.924	13232
926.031	13346
926.138	13263
926.245	13263
926.352	13168
926.459	13289
926.566	13430
926.673	13217
926.779	13103
926.886	12951
926.993	12897
927.099	12928
927.206	12795
927.312	12738
927.419	12932
927.525	12894
927.631	12932
927.737	12806
927.843	12700
927.95	12688
928.056	12719
928.162	12646
928.267	12779
928.373	13327
928.479	12749
928.585	12486
928.69	12608
928.796	12639
928.901	12608
929.007	12346
929.112	12578
929.218	12486
929.323	12437
929.428	12437
929.533	12506
929.638	12308
929.743	12334
929.848	12346
929.953	12338
930.058	12201
930.163	11980
930.267	12060
930.372	12308
930.477	12026
930.581	12232
930.685	12057
930.79	11920
930.894	11973
930.998	11908
931.103	12038
931.207	11714
931.311	11630
931.415	11528
931.519	11288
931.623	11345
