Data from test_V78500241_1849.txt Node
Date: Fri Mar 25 15:54:36 CST 2022
User: usil
Spectrometer: V785-0024
Trigger mode: 0
Integration Time (sec): 4.000000E-1
Scans to average: 1
Nonlinearity correction enabled: false
Boxcar width: 0
Storing dark spectrum: false
XAxis mode: Wavelengths
Number of Pixels in Spectrum: 1024
>>>>>Begin Spectral Data<<<<<
801.071	28519
801.214	28428
801.356	28173
801.499	28314
801.641	28135
801.783	28131
801.926	28006
802.068	28139
802.211	27907
802.353	27812
802.496	27869
802.638	27682
802.78	27618
802.923	27679
803.065	27656
803.208	27774
803.35	27747
803.492	27835
803.635	28029
803.777	28029
803.919	27926
804.061	28401
804.204	27903
804.346	28055
804.488	27918
804.63	28013
804.773	27778
804.915	28051
805.057	28223
805.199	27914
805.341	28048
805.483	28166
805.626	27949
805.768	28055
805.91	28078
806.052	28120
806.194	27953
806.336	28226
806.478	28257
806.62	28154
806.762	28280
806.904	28390
807.046	28535
807.188	28554
807.33	28561
807.472	28729
807.614	28508
807.756	28451
807.898	28500
808.04	28417
808.182	28436
808.324	28478
808.465	28577
808.607	28656
808.749	28847
808.891	28778
809.033	28976
809.174	28968
809.316	28725
809.458	28892
809.6	28759
809.741	28938
809.883	29121
810.025	29094
810.166	29048
810.308	29044
810.45	29003
810.591	29060
810.733	28908
810.875	28786
811.016	28637
811.158	28698
811.299	28866
811.441	28938
811.582	28881
811.724	28919
811.865	28748
812.007	28850
812.148	28797
812.29	28740
812.431	29041
812.573	29143
812.714	29315
812.855	29322
812.997	29360
813.138	29551
813.279	29478
813.421	29379
813.562	29311
813.703	29094
813.845	29124
813.986	28778
814.127	28706
814.268	28455
814.41	28626
814.551	28440
814.692	28512
814.833	28413
814.974	28603
815.115	28596
815.256	28329
815.397	28451
815.539	28421
815.68	28363
815.821	28223
815.962	28341
816.103	28306
816.244	28105
816.385	28029
816.526	28090
816.666	27816
816.807	27770
816.948	27979
817.089	28051
817.23	27835
817.371	27842
817.512	27724
817.653	27838
817.793	27717
817.934	27701
818.075	27701
818.216	27827
818.356	27759
818.497	27732
818.638	27538
818.778	27473
818.919	27462
819.06	27709
819.2	27705
819.341	27850
819.481	27816
819.622	27934
819.762	28219
819.903	28006
820.043	28029
820.184	27895
820.324	27934
820.465	28048
820.605	27911
820.746	27918
820.886	27762
821.026	27876
821.167	27819
821.307	27956
821.447	27876
821.588	27614
821.728	27637
821.868	27416
822.008	27336
822.149	27275
822.289	27283
822.429	27017
822.569	27070
822.709	26963
822.849	26807
822.99	26777
823.13	26807
823.27	26689
823.41	26659
823.55	26651
823.69	26686
823.83	26716
823.97	26587
824.11	26408
824.25	26419
824.389	26415
824.529	26495
824.669	26381
824.809	26568
824.949	26575
825.089	26689
825.228	26499
825.368	26278
825.508	26199
825.648	26301
825.787	26389
825.927	26469
826.067	26199
826.206	26313
826.346	26320
826.485	26278
826.625	26343
826.765	26317
826.904	26343
827.044	26084
827.183	26122
827.323	26065
827.462	26107
827.601	25970
827.741	26008
827.88	25936
828.02	25986
828.159	25955
828.298	25986
828.437	26031
828.577	25963
828.716	26043
828.855	25898
828.994	25738
829.134	25712
829.273	25734
829.412	25830
829.551	25651
829.69	25681
829.829	25731
829.968	25807
830.107	25753
830.246	25677
830.385	25780
830.524	25727
830.663	25445
830.802	25331
830.941	25324
831.08	25282
831.219	25396
831.357	25434
831.496	25571
831.635	25407
831.774	25244
831.913	25107
832.051	25118
832.19	25061
832.329	25141
832.467	25061
832.606	24882
832.744	24905
832.883	25057
833.022	25053
833.16	25034
833.299	25053
833.437	25053
833.576	25091
833.714	24894
833.852	25065
833.991	25206
834.129	25152
834.267	25156
834.406	25118
834.544	25107
834.682	24924
834.821	25053
834.959	25419
835.097	25012
835.235	25038
835.373	25061
835.511	24989
835.65	25019
835.788	24924
835.926	24795
836.064	24661
836.202	24779
836.34	24711
836.478	25019
836.615	24890
836.753	25034
836.891	24894
837.029	24905
837.167	24882
837.305	24810
837.443	24688
837.58	24749
837.718	24635
837.856	24833
837.993	24795
838.131	24623
838.269	24509
838.406	24452
838.544	24551
838.681	24388
838.819	24338
838.956	24232
839.094	24186
839.231	24220
839.369	24292
839.506	24669
839.643	24441
839.781	24220
839.918	24095
840.055	24140
840.193	24079
840.33	24015
840.467	24216
840.604	24197
840.742	24365
840.879	23954
841.016	24140
841.153	23939
841.29	24205
841.427	24038
841.564	24167
841.701	24095
841.838	24060
841.975	24045
842.112	23984
842.249	24038
842.385	24007
842.522	23931
842.659	23851
842.796	23923
842.933	23863
843.069	23699
843.206	23828
843.343	23843
843.479	23851
843.616	23878
843.752	23543
843.889	23798
844.025	23855
844.162	23726
844.298	23608
844.435	23676
844.571	23611
844.708	23623
844.844	23767
844.98	23741
845.117	23790
845.253	23516
845.389	23619
845.525	23646
845.661	23505
845.798	23452
845.934	23353
846.07	23284
846.206	23395
846.342	23448
846.478	23330
846.614	23166
846.75	23143
846.886	23048
847.022	23113
847.158	23121
847.294	23022
847.429	23117
847.565	22957
847.701	23261
847.837	22771
847.972	22706
848.108	22957
848.244	22877
848.379	22691
848.515	22656
848.65	22561
848.786	22622
848.921	22618
849.057	22854
849.192	22786
849.328	22740
849.463	22626
849.598	22489
849.734	22478
849.869	22596
850.004	22436
850.14	22504
850.275	22474
850.41	22394
850.545	22352
850.68	22443
850.815	22428
850.95	22428
851.085	22577
851.22	22497
851.355	22413
851.49	22417
851.625	22272
851.76	22379
851.895	22341
852.03	22348
852.165	22432
852.299	22432
852.434	22577
852.569	22363
852.703	22268
852.838	22440
852.973	22489
853.107	22565
853.242	22360
853.376	22139
853.511	22249
853.645	22299
853.78	22405
853.914	22211
854.048	22234
854.183	22341
854.317	22371
854.451	22478
854.585	22310
854.72	22352
854.854	22371
854.988	22188
855.122	22257
855.256	22048
855.39	22265
855.524	22261
855.658	22333
855.792	22291
855.926	22295
856.06	22284
856.194	22261
856.327	22207
856.461	22249
856.595	22188
856.729	22291
856.862	22284
856.996	22344
857.13	22268
857.263	22284
857.397	22276
857.53	22287
857.664	22310
857.797	22329
857.931	22314
858.064	22375
858.197	22337
858.331	22207
858.464	22188
858.597	22204
858.731	22215
858.864	22223
858.997	22101
859.13	22226
859.263	22261
859.396	22314
859.529	22185
859.662	22158
859.795	22124
859.928	22116
860.061	22386
860.194	22447
860.327	22303
860.46	22226
860.592	22440
860.725	22455
860.858	22382
860.99	22299
861.123	22200
861.256	22238
861.388	22177
861.521	22923
861.653	22044
861.786	21983
861.918	22162
862.05	22112
862.183	22226
862.315	22112
862.447	22131
862.58	22310
862.712	22021
862.844	21865
862.976	22082
863.108	22025
863.24	22318
863.372	21861
863.504	21994
863.636	21972
863.768	21972
863.9	21899
864.032	21880
864.164	21880
864.296	22048
864.428	22017
864.559	21945
864.691	22055
864.823	21926
864.954	21945
865.086	21892
865.217	21934
865.349	21816
865.48	21812
865.612	21876
865.743	21922
865.875	21831
866.006	21785
866.137	21907
866.269	21656
866.4	21941
866.531	21698
866.662	21717
866.793	21774
866.924	21694
867.055	21762
867.186	21808
867.317	21663
867.448	21648
867.579	21690
867.71	21610
867.841	21682
867.972	21789
868.103	21648
868.233	21804
868.364	21846
868.495	21918
868.625	21812
868.756	22055
868.886	21979
869.017	21937
869.147	21991
869.278	22048
869.408	21964
869.539	22025
869.669	21987
869.799	22036
869.929	22150
870.06	22162
870.19	22379
870.32	22230
870.45	22371
870.58	22333
870.71	22424
870.84	22462
870.97	22371
871.1	22436
871.23	22653
871.36	22550
871.489	22485
871.619	22561
871.749	22580
871.879	22641
872.008	22656
872.138	22569
872.267	22531
872.397	22508
872.526	22489
872.656	22436
872.785	22443
872.915	22618
873.044	22812
873.173	22607
873.303	22672
873.432	22759
873.561	22615
873.69	22546
873.819	22645
873.948	22755
874.077	22599
874.206	22508
874.335	22577
874.464	22626
874.593	22835
874.722	22797
874.851	22828
874.979	22805
875.108	22911
875.237	22771
875.365	22603
875.494	22915
875.623	22828
875.751	22843
875.88	22797
876.008	23003
876.136	23006
876.265	23239
876.393	23368
876.521	23212
876.65	23326
876.778	23124
876.906	23140
877.034	23113
877.162	23284
877.29	23197
877.418	23280
877.546	23094
877.674	23254
877.802	23326
877.93	23193
878.058	23132
878.185	23067
878.313	23109
878.441	23079
878.568	23102
878.696	23121
878.824	23242
878.951	23121
879.079	23383
879.206	23520
879.333	23334
879.461	23246
879.588	23349
879.715	23452
879.842	23516
879.97	23296
880.097	23048
880.224	22908
880.351	22991
880.478	23086
880.605	23022
880.732	23094
880.859	23341
880.986	23022
881.112	22965
881.239	22953
881.366	22687
881.493	22634
881.619	22592
881.746	22580
881.872	22611
881.999	22546
882.125	22500
882.252	22656
882.378	22535
882.505	22637
882.631	22500
882.757	22394
882.883	22341
883.01	22135
883.136	22139
883.262	22272
883.388	22128
883.514	22371
883.64	22360
883.766	22257
883.892	22010
884.018	22048
884.143	22223
884.269	22272
884.395	21888
884.52	21922
884.646	21899
884.772	21709
884.897	21827
885.023	21907
885.148	22070
885.274	22029
885.399	22044
885.524	21903
885.65	21972
885.775	21953
885.9	21956
886.025	22017
886.15	21945
886.275	21907
886.4	21736
886.525	21747
886.65	21835
886.775	21762
886.9	21926
887.025	22131
887.149	21857
887.274	21625
887.399	21766
887.523	21656
887.648	21549
887.773	21500
887.897	21724
888.021	21663
888.146	21572
888.27	21663
888.395	21732
888.519	21644
888.643	21720
888.767	21606
888.891	21622
889.015	21576
889.139	21458
889.263	21378
889.387	21660
889.511	21622
889.635	21671
889.759	21405
889.883	21488
890.006	21469
890.13	21500
890.254	21332
890.377	21287
890.501	21249
890.624	21169
890.748	21237
890.871	21112
890.995	21039
891.118	20891
891.241	20982
891.364	20842
891.488	21142
891.611	21039
891.734	20960
891.857	21036
891.98	21077
892.103	21077
892.226	20963
892.349	21089
892.471	20705
892.594	20864
892.717	20895
892.839	20925
892.962	20929
893.085	20975
893.207	20921
893.33	20743
893.452	20819
893.575	20952
893.697	20754
893.819	21036
893.941	21081
894.064	21013
894.186	20868
894.308	20754
894.43	20971
894.552	21058
894.674	21081
894.796	20853
894.918	20819
895.04	20815
895.161	20910
895.283	20963
895.405	20910
895.526	20891
895.648	20819
895.769	20994
895.891	20872
896.012	20960
896.134	20929
896.255	20906
896.376	20906
896.498	20880
896.619	20796
896.74	20872
896.861	20941
896.982	21214
897.103	21272
897.224	21150
897.345	21062
897.466	20914
897.587	21131
897.708	21184
897.828	20967
897.949	21032
898.07	20944
898.19	20975
898.311	21176
898.431	21036
898.552	21020
898.672	21005
898.792	21055
898.913	21043
899.033	21032
899.153	20952
899.273	20815
899.393	20872
899.513	20823
899.633	20800
899.753	20868
899.873	20804
899.993	20777
900.113	20800
900.232	20705
900.352	20746
900.472	20663
900.591	20564
900.711	20750
900.83	20617
900.95	20659
901.069	20651
901.189	20465
901.308	20294
901.427	20161
901.546	20161
901.665	20263
901.784	20191
901.904	20096
902.023	19875
902.141	19693
902.26	19624
902.379	19772
902.498	19635
902.617	19681
902.735	19772
902.854	19559
902.973	19624
903.091	19369
903.21	19422
903.328	19335
903.446	19232
903.565	19164
903.683	19164
903.801	18966
903.919	19225
904.038	18985
904.156	18928
904.274	19012
904.392	18897
904.51	18920
904.627	18711
904.745	18985
904.863	18935
904.981	18791
905.098	18570
905.216	18597
905.334	18692
905.451	18635
905.569	18494
905.686	18517
905.803	18589
905.921	18300
906.038	18391
906.155	18350
906.272	18209
906.389	18243
906.506	18110
906.623	18125
906.74	18079
906.857	17935
906.974	17996
907.091	18201
907.208	18205
907.324	18076
907.441	18011
907.557	17707
907.674	17798
907.79	17805
907.907	17703
908.023	17771
908.139	17821
908.256	17741
908.372	17710
908.488	17733
908.604	17547
908.72	17562
908.836	17573
908.952	17497
909.068	17535
909.184	17558
909.3	17478
909.415	17623
909.531	17509
909.647	17181
909.762	17284
909.878	17170
909.993	17170
910.108	17193
910.224	17067
910.339	17239
910.454	17143
910.57	17010
910.685	16927
910.8	17113
910.915	17094
911.03	17083
911.145	16949
911.259	16854
911.374	16778
911.489	16653
911.604	16710
911.718	16516
911.833	16569
911.947	16402
912.062	16322
912.176	16504
912.291	16603
912.405	16607
912.519	16668
912.633	16710
912.748	16550
912.862	16459
912.976	16367
913.09	16249
913.204	16314
913.318	16386
913.431	16398
913.545	16478
913.659	16371
913.772	16341
913.886	16162
914	16150
914.113	16219
914.226	16238
914.34	16215
914.453	16059
914.566	16128
914.68	16010
914.793	16090
914.906	15789
915.019	15808
915.132	15690
915.245	15713
915.358	15675
915.47	15766
915.583	15637
915.696	15739
915.809	15827
915.921	15800
916.034	15656
916.146	15606
916.259	15599
916.371	15603
916.483	15625
916.595	15557
916.708	15538
916.82	15477
916.932	15511
917.044	15473
917.156	15306
917.268	15272
917.38	15359
917.491	15249
917.603	15424
917.715	15450
917.826	15405
917.938	15237
918.049	15188
918.161	15386
918.272	15405
918.384	15443
918.495	15207
918.606	15135
918.717	15066
918.828	15112
918.939	15070
919.05	14971
919.161	14982
919.272	14960
919.383	14842
919.494	15119
919.604	15321
919.715	15013
919.826	15013
919.936	15062
920.047	15028
920.157	15062
920.267	15294
920.378	15020
920.488	15100
920.598	15214
920.708	15294
920.818	15249
920.928	15104
921.038	15405
921.148	15256
921.258	15005
921.368	14868
921.477	14727
921.587	14724
921.697	14583
921.806	14758
921.916	14636
922.025	14583
922.134	14507
922.244	14328
922.353	14396
922.462	14172
922.571	14221
922.68	14054
922.789	14058
922.898	14027
923.007	13974
923.116	14050
923.224	14008
923.333	14050
923.442	13898
923.55	13887
923.659	13936
923.767	13890
923.876	13833
923.984	13898
924.092	13670
924.201	13719
924.309	13799
924.417	13803
924.525	13734
924.633	13704
924.741	14495
924.849	13457
924.956	13563
925.064	13449
925.172	13422
925.279	13381
925.387	13476
925.494	13457
925.602	13575
925.709	13506
925.816	13301
925.924	13343
926.031	13487
926.138	13502
926.245	13407
926.352	13225
926.459	13350
926.566	13407
926.673	13263
926.779	13183
926.886	13152
926.993	13038
927.099	12973
927.206	12875
927.312	12856
927.419	12985
927.525	12897
927.631	12996
927.737	12871
927.843	12878
927.95	12700
928.056	12757
928.162	12859
928.267	12894
928.373	13316
928.479	12837
928.585	12650
928.69	12700
928.796	12749
928.901	12662
929.007	12536
929.112	12544
929.218	12688
929.323	12521
929.428	12509
929.533	12612
929.638	12513
929.743	12437
929.848	12521
929.953	12471
930.058	12384
930.163	12186
930.267	12224
930.372	12327
930.477	12133
930.581	12323
930.685	12243
930.79	12030
930.894	12098
930.998	12060
931.103	12171
931.207	11779
931.311	11710
931.415	11707
931.519	11486
931.623	11414
