Data from test_V78500241_334.txt Node
Date: Fri Mar 25 15:44:06 CST 2022
User: usil
Spectrometer: V785-0024
Trigger mode: 0
Integration Time (sec): 4.000000E-1
Scans to average: 1
Nonlinearity correction enabled: false
Boxcar width: 0
Storing dark spectrum: false
XAxis mode: Wavelengths
Number of Pixels in Spectrum: 1024
>>>>>Begin Spectral Data<<<<<
801.071	29760
801.214	29764
801.356	29520
801.499	29535
801.641	29486
801.783	29166
801.926	29349
802.068	29296
802.211	29383
802.353	29296
802.496	29090
802.638	28957
802.78	29044
802.923	29044
803.065	28923
803.208	28972
803.35	28972
803.492	29029
803.635	29303
803.777	29102
803.919	29121
804.061	29577
804.204	29402
804.346	29216
804.488	29147
804.63	29181
804.773	29147
804.915	29258
805.057	29231
805.199	29200
805.341	29353
805.483	29341
805.626	29315
805.768	29181
805.91	29334
806.052	29246
806.194	29269
806.336	29687
806.478	29235
806.62	29417
806.762	29463
806.904	29676
807.046	29950
807.188	29798
807.33	29847
807.472	29885
807.614	29691
807.756	29729
807.898	29551
808.04	29512
808.182	29581
808.324	29573
808.465	29577
808.607	29813
808.749	29935
808.891	29980
809.033	30171
809.174	30045
809.316	29946
809.458	30064
809.6	29901
809.741	30102
809.883	30194
810.025	30254
810.166	30349
810.308	30296
810.45	30254
810.591	30174
810.733	30018
810.875	30007
811.016	29893
811.158	29790
811.299	30163
811.441	30095
811.582	30178
811.724	29988
811.865	29999
812.007	29984
812.148	29939
812.29	29980
812.431	30239
812.573	30201
812.714	30270
812.855	30471
812.997	30654
813.138	30810
813.279	30566
813.421	30692
813.562	30445
813.703	30277
813.845	30235
813.986	29901
814.127	29874
814.268	29581
814.41	29756
814.551	29562
814.692	29646
814.833	29459
814.974	29539
815.115	29558
815.256	29535
815.397	29471
815.539	29379
815.68	29383
815.821	29395
815.962	29322
816.103	29455
816.244	29330
816.385	29162
816.526	29136
816.666	29006
816.807	28904
816.948	28976
817.089	29003
817.23	28965
817.371	28919
817.512	28820
817.653	28888
817.793	28790
817.934	28873
818.075	28809
818.216	28854
818.356	28793
818.497	28793
818.638	28508
818.778	28626
818.919	28542
819.06	28656
819.2	28733
819.341	28793
819.481	28858
819.622	28934
819.762	29265
819.903	29140
820.043	29094
820.184	29010
820.324	28854
820.465	28946
820.605	29102
820.746	29025
820.886	28919
821.026	28991
821.167	28839
821.307	28862
821.447	28725
821.588	28744
821.728	28554
821.868	28421
822.008	28135
822.149	28371
822.289	28314
822.429	28025
822.569	27941
822.709	27907
822.849	27861
822.99	27774
823.13	27880
823.27	27671
823.41	27515
823.55	27511
823.69	27622
823.83	27663
823.97	27481
824.11	27405
824.25	27336
824.389	27458
824.529	27439
824.669	27473
824.809	27466
824.949	27507
825.089	27580
825.228	27462
825.368	27165
825.508	27287
825.648	27268
825.787	27424
825.927	27412
826.067	27256
826.206	27055
826.346	27241
826.485	27272
826.625	27146
826.765	27340
826.904	27401
827.044	27043
827.183	27013
827.323	27058
827.462	26963
827.601	26998
827.741	26971
827.88	26975
828.02	26807
828.159	26857
828.298	26853
828.437	26925
828.577	26849
828.716	27013
828.855	26689
828.994	26651
829.134	26632
829.273	26693
829.412	26469
829.551	26629
829.69	26419
829.829	26606
829.968	26625
830.107	26609
830.246	26594
830.385	26530
830.524	26381
830.663	26389
830.802	26145
830.941	26111
831.08	26103
831.219	26202
831.357	26164
831.496	26347
831.635	26183
831.774	26073
831.913	25909
832.051	25974
832.19	25890
832.329	25803
832.467	25944
832.606	25765
832.744	25670
832.883	25856
833.022	25868
833.16	25693
833.299	25837
833.437	25746
833.576	25970
833.714	25913
833.852	25909
833.991	25868
834.129	25841
834.267	25856
834.406	25887
834.544	25780
834.682	25917
834.821	25830
834.959	25909
835.097	25811
835.235	25826
835.373	25906
835.511	25715
835.65	25586
835.788	25731
835.926	25556
836.064	25354
836.202	25384
836.34	25624
836.478	25704
836.615	25460
836.753	25590
836.891	25677
837.029	25632
837.167	25529
837.305	25525
837.443	25373
837.58	25346
837.718	25529
837.856	25453
837.993	25384
838.131	25597
838.269	25164
838.406	25251
838.544	25156
838.681	25099
838.819	25027
838.956	24909
839.094	24833
839.231	24958
839.369	25141
839.506	25152
839.643	25080
839.781	24787
839.918	24791
840.055	24920
840.193	24760
840.33	24738
840.467	24753
840.604	24749
840.742	25015
840.879	24585
841.016	24635
841.153	24612
841.29	24863
841.427	24738
841.564	24726
841.701	24722
841.838	24722
841.975	24627
842.112	24612
842.249	24601
842.385	24437
842.522	24753
842.659	24593
842.796	24582
842.933	24327
843.069	24365
843.206	24315
843.343	24407
843.479	24509
843.616	24395
843.752	24186
843.889	24220
844.025	24315
844.162	24167
844.298	24232
844.435	24216
844.571	24106
844.708	24213
844.844	24277
844.98	24327
845.117	24330
845.253	24091
845.389	24026
845.525	24144
845.661	24007
845.798	24003
845.934	23882
846.07	23885
846.206	23923
846.342	24038
846.478	23847
846.614	23707
846.75	23493
846.886	23520
847.022	23745
847.158	23600
847.294	23615
847.429	23623
847.565	23520
847.701	23843
847.837	23376
847.972	23288
848.108	23436
848.244	23387
848.379	23254
848.515	23166
848.65	23307
848.786	23162
848.921	23239
849.057	23200
849.192	23269
849.328	23269
849.463	23174
849.598	23113
849.734	23018
849.869	23079
850.004	22949
850.14	22919
850.275	22885
850.41	22809
850.545	22873
850.68	22980
850.815	22820
850.95	22881
851.085	23121
851.22	23052
851.355	22885
851.49	22908
851.625	22923
851.76	22801
851.895	22847
852.03	22835
852.165	22755
852.299	22892
852.434	23003
852.569	22900
852.703	22885
852.838	22965
852.973	23083
853.107	22968
853.242	22854
853.376	22721
853.511	22729
853.645	22630
853.78	22786
853.914	22786
854.048	22649
854.183	22679
854.317	22622
854.451	22919
854.585	22713
854.72	22653
854.854	22828
854.988	22592
855.122	22622
855.256	22561
855.39	22580
855.524	22771
855.658	22736
855.792	22675
855.926	22733
856.06	22767
856.194	22752
856.327	22599
856.461	22653
856.595	22653
856.729	22702
856.862	22717
856.996	22721
857.13	22828
857.263	22748
857.397	22885
857.53	22660
857.664	22679
857.797	22793
857.931	22790
858.064	22782
858.197	22782
858.331	22656
858.464	22660
858.597	22550
858.731	22706
858.864	22626
858.997	22626
859.13	22573
859.263	22744
859.396	22733
859.529	22634
859.662	22660
859.795	22660
859.928	22637
860.061	22782
860.194	22858
860.327	22668
860.46	22653
860.592	22748
860.725	22698
860.858	22812
860.99	22615
861.123	22470
861.256	22519
861.388	22611
861.521	23471
861.653	22535
861.786	22554
861.918	22500
862.05	22367
862.183	22626
862.315	22584
862.447	22626
862.58	22493
862.712	22287
862.844	22344
862.976	22428
863.108	22386
863.24	22953
863.372	22143
863.504	22337
863.636	22303
863.768	22322
863.9	22470
864.032	22242
864.164	22265
864.296	22337
864.428	22409
864.559	22333
864.691	22447
864.823	22451
864.954	22253
865.086	22329
865.217	22284
865.349	22192
865.48	22253
865.612	22207
865.743	22485
865.875	22097
866.006	22150
866.137	22120
866.269	22219
866.4	22105
866.531	22143
866.662	22101
866.793	22188
866.924	22082
867.055	22219
867.186	22082
867.317	22116
867.448	22074
867.579	21994
867.71	22032
867.841	22124
867.972	22150
868.103	22185
868.233	22055
868.364	22124
868.495	22257
868.625	22318
868.756	22424
868.886	22329
869.017	22291
869.147	22394
869.278	22432
869.408	22417
869.539	22306
869.669	22421
869.799	22299
869.929	22588
870.06	22466
870.19	22561
870.32	22561
870.45	22759
870.58	22748
870.71	22809
870.84	22816
870.97	22740
871.1	22755
871.23	22908
871.36	22957
871.489	22774
871.619	22919
871.749	22968
871.879	22877
872.008	22987
872.138	22877
872.267	22984
872.397	22881
872.526	22793
872.656	22706
872.785	22831
872.915	23083
873.044	23075
873.173	22847
873.303	22972
873.432	23048
873.561	23204
873.69	23064
873.819	22843
873.948	23075
874.077	22987
874.206	22953
874.335	23010
874.464	22976
874.593	23189
874.722	23086
874.851	23174
874.979	23216
875.108	23181
875.237	23132
875.365	23178
875.494	23181
875.623	23269
875.751	23162
875.88	23280
876.008	23360
876.136	23341
876.265	23604
876.393	23680
876.521	23794
876.65	23543
876.778	23558
876.906	23581
877.034	23452
877.162	23634
877.29	23482
877.418	23497
877.546	23520
877.674	23604
877.802	23554
877.93	23551
878.058	23459
878.185	23391
878.313	23395
878.441	23501
878.568	23425
878.696	23406
878.824	23478
878.951	23558
879.079	23745
879.206	23805
879.333	23638
879.461	23665
879.588	23619
879.715	23707
879.842	23783
879.97	23596
880.097	23326
880.224	23273
880.351	23318
880.478	23311
880.605	23212
880.732	23360
880.859	23634
880.986	23269
881.112	23311
881.239	23181
881.366	23121
881.493	22965
881.619	22908
881.746	22904
881.872	22915
881.999	22816
882.125	22866
882.252	22919
882.378	22934
882.505	22927
882.631	22653
882.757	22603
882.883	22664
883.01	22618
883.136	22557
883.262	22474
883.388	22481
883.514	22611
883.64	22694
883.766	22478
883.892	22322
884.018	22417
884.143	22451
884.269	22478
884.395	22295
884.52	22226
884.646	22162
884.772	22147
884.897	22090
885.023	22261
885.148	22261
885.274	22402
885.399	22276
885.524	22223
885.65	22306
885.775	22169
885.9	22162
886.025	22242
886.15	22356
886.275	22166
886.4	22017
886.525	22135
886.65	22109
886.775	22112
886.9	22306
887.025	22329
887.149	22124
887.274	22044
887.399	21972
887.523	21895
887.648	21884
887.773	21922
887.897	21941
888.021	22021
888.146	21964
888.27	22097
888.395	22051
888.519	22044
888.643	21930
888.767	22120
888.891	21865
889.015	21831
889.139	21789
889.263	21682
889.387	21785
889.511	21960
889.635	21812
889.759	21819
889.883	21694
890.006	21751
890.13	21865
890.254	21701
890.377	21667
890.501	21447
890.624	21306
890.748	21428
890.871	21264
890.995	21218
891.118	21207
891.241	21287
891.364	21359
891.488	21291
891.611	21241
891.734	21306
891.857	21260
891.98	21321
892.103	21313
892.226	21317
892.349	21142
892.471	21161
892.594	21203
892.717	21150
892.839	21203
892.962	21192
893.085	21325
893.207	21157
893.33	21047
893.452	21112
893.575	21233
893.697	21112
893.819	21336
893.941	21264
894.064	21370
894.186	21043
894.308	20994
894.43	21222
894.552	21310
894.674	21195
894.796	21017
894.918	21142
895.04	21207
895.161	21279
895.283	21138
895.405	21116
895.526	21161
895.648	21169
895.769	21116
895.891	21195
896.012	21256
896.134	21241
896.255	21192
896.376	21154
896.498	21146
896.619	21207
896.74	21039
896.861	21222
896.982	21477
897.103	21652
897.224	21443
897.345	21408
897.466	21439
897.587	21355
897.708	21454
897.828	21416
897.949	21348
898.07	21249
898.19	21325
898.311	21397
898.431	21233
898.552	21378
898.672	21424
898.792	21351
898.913	21378
899.033	21176
899.153	21294
899.273	21062
899.393	21180
899.513	21085
899.633	21085
899.753	21020
899.873	21009
899.993	20990
900.113	20891
900.232	20944
900.352	20975
900.472	20857
900.591	20773
900.711	20842
900.83	20785
900.95	20933
901.069	20883
901.189	20663
901.308	20541
901.427	20446
901.546	20396
901.665	20438
901.784	20423
901.904	20351
902.023	20271
902.141	20031
902.26	19868
902.379	19940
902.498	19970
902.617	19890
902.735	19799
902.854	19742
902.973	19700
903.091	19582
903.21	19567
903.328	19597
903.446	19396
903.565	19301
903.683	19422
903.801	19259
903.919	19396
904.038	19206
904.156	19114
904.274	19137
904.392	19164
904.51	19133
904.627	19122
904.745	19065
904.863	19046
904.981	18905
905.098	18692
905.216	18856
905.334	18798
905.451	18833
905.569	18749
905.686	18909
905.803	18696
905.921	18544
906.038	18627
906.155	18570
906.272	18376
906.389	18410
906.506	18262
906.623	18266
906.74	18289
906.857	18102
906.974	18095
907.091	18334
907.208	18357
907.324	18228
907.441	18152
907.557	18003
907.674	17965
907.79	17901
907.907	17939
908.023	18003
908.139	17992
908.256	17878
908.372	17874
908.488	17767
908.604	17630
908.72	17623
908.836	17596
908.952	17691
909.068	17760
909.184	17767
909.3	17611
909.415	17684
909.531	17615
909.647	17395
909.762	17315
909.878	17433
909.993	17261
910.108	17296
910.224	17326
910.339	17227
910.454	17250
910.57	17140
910.685	17128
910.8	17429
910.915	17204
911.03	17060
911.145	16976
911.259	16831
911.374	16847
911.489	16847
911.604	16782
911.718	16618
911.833	16683
911.947	16584
912.062	16596
912.176	16622
912.291	16656
912.405	16706
912.519	16816
912.633	16831
912.748	16660
912.862	16554
912.976	16402
913.09	16284
913.204	16356
913.318	16405
913.431	16527
913.545	16485
913.659	16485
913.772	16310
913.886	16207
914	16280
914.113	16276
914.226	16268
914.34	16329
914.453	16109
914.566	16177
914.68	16048
914.793	16059
914.906	15892
915.019	15774
915.132	15736
915.245	15690
915.358	15873
915.47	15732
915.583	15781
915.696	15846
915.809	15968
915.921	15934
916.034	15739
916.146	15701
916.259	15622
916.371	15816
916.483	15739
916.595	15587
916.708	15667
916.82	15542
916.932	15530
917.044	15599
917.156	15557
917.268	15435
917.38	15485
917.491	15439
917.603	15488
917.715	15549
917.826	15523
917.938	15370
918.049	15287
918.161	15454
918.272	15545
918.384	15504
918.495	15428
918.606	15241
918.717	15039
918.828	15241
918.939	15252
919.05	15028
919.161	15150
919.272	15032
919.383	15077
919.494	15195
919.604	15416
919.715	15188
919.826	15066
919.936	15142
920.047	15283
920.157	15230
920.267	15245
920.378	15131
920.488	15119
920.598	15306
920.708	15420
920.818	15207
920.928	15344
921.038	15431
921.148	15355
921.258	15100
921.368	14963
921.477	14883
921.587	14910
921.697	14777
921.806	14857
921.916	14716
922.025	14602
922.134	14454
922.244	14438
922.353	14541
922.462	14389
922.571	14309
922.68	14237
922.789	14119
922.898	14214
923.007	13940
923.116	14100
923.224	14065
923.333	14111
923.442	13967
923.55	13894
923.659	13951
923.767	14024
923.876	13913
923.984	13883
924.092	13784
924.201	13951
924.309	13841
924.417	13803
924.525	13753
924.633	13727
924.741	14469
924.849	13537
924.956	13734
925.064	13472
925.172	13464
925.279	13480
925.387	13472
925.494	13495
925.602	13571
925.709	13525
925.816	13499
925.924	13384
926.031	13518
926.138	13411
926.245	13472
926.352	13301
926.459	13460
926.566	13472
926.673	13346
926.779	13225
926.886	13247
926.993	13080
927.099	13046
927.206	12985
927.312	12962
927.419	13110
927.525	13057
927.631	12970
927.737	12947
927.843	12833
927.95	12757
928.056	12783
928.162	12878
928.267	12928
928.373	13510
928.479	12947
928.585	12741
928.69	12776
928.796	12795
928.901	12696
929.007	12517
929.112	12673
929.218	12623
929.323	12597
929.428	12464
929.533	12764
929.638	12563
929.743	12483
929.848	12597
929.953	12563
930.058	12433
930.163	12292
930.267	12258
930.372	12426
930.477	12201
930.581	12490
930.685	12300
930.79	12053
930.894	12129
930.998	12121
931.103	12186
931.207	11745
931.311	11779
931.415	11604
931.519	11512
931.623	11395
