Data from test_V78500241_1854.txt Node
Date: Fri Mar 25 15:54:38 CST 2022
User: usil
Spectrometer: V785-0024
Trigger mode: 0
Integration Time (sec): 4.000000E-1
Scans to average: 1
Nonlinearity correction enabled: false
Boxcar width: 0
Storing dark spectrum: false
XAxis mode: Wavelengths
Number of Pixels in Spectrum: 1024
>>>>>Begin Spectral Data<<<<<
801.071	28322
801.214	28382
801.356	28055
801.499	28086
801.641	27857
801.783	28006
801.926	28055
802.068	28017
802.211	27979
802.353	27838
802.496	27720
802.638	27603
802.78	27629
802.923	27576
803.065	27580
803.208	27591
803.35	27705
803.492	27625
803.635	27831
803.777	27808
803.919	27831
804.061	28185
804.204	27892
804.346	27663
804.488	27785
804.63	27804
804.773	27888
804.915	27899
805.057	27907
805.199	27911
805.341	27975
805.483	27949
805.626	28105
805.768	27960
805.91	28082
806.052	28082
806.194	27994
806.336	28078
806.478	27922
806.62	28017
806.762	28097
806.904	28249
807.046	28565
807.188	28417
807.33	28314
807.472	28596
807.614	28360
807.756	28390
807.898	28219
808.04	28246
808.182	28143
808.324	28325
808.465	28390
808.607	28512
808.749	28729
808.891	28812
809.033	28843
809.174	28599
809.316	28653
809.458	28641
809.6	28675
809.741	28881
809.883	28847
810.025	28805
810.166	29010
810.308	28904
810.45	28854
810.591	28809
810.733	28752
810.875	28790
811.016	28527
811.158	28493
811.299	28694
811.441	28854
811.582	28713
811.724	28668
811.865	28599
812.007	28603
812.148	28687
812.29	28687
812.431	28694
812.573	29067
812.714	29029
812.855	29280
812.997	29273
813.138	29337
813.279	29383
813.421	29166
813.562	29254
813.703	29025
813.845	28961
813.986	28717
814.127	28535
814.268	28329
814.41	28386
814.551	28291
814.692	28344
814.833	28436
814.974	28306
815.115	28432
815.256	28215
815.397	28344
815.539	28150
815.68	28139
815.821	27991
815.962	28162
816.103	28032
816.244	27937
816.385	27914
816.526	27956
816.666	27804
816.807	27762
816.948	27724
817.089	27717
817.23	27652
817.371	27568
817.512	27808
817.653	27656
817.793	27587
817.934	27587
818.075	27587
818.216	27690
818.356	27690
818.497	27591
818.638	27435
818.778	27359
818.919	27416
819.06	27466
819.2	27504
819.341	27720
819.481	27633
819.622	27793
819.762	28029
819.903	27975
820.043	27895
820.184	27827
820.324	27800
820.465	27759
820.605	27675
820.746	27732
820.886	27732
821.026	27850
821.167	27709
821.307	27835
821.447	27679
821.588	27614
821.728	27462
821.868	27218
822.008	27188
822.149	27192
822.289	27096
822.429	26868
822.569	26807
822.709	26883
822.849	26636
822.99	26739
823.13	26655
823.27	26571
823.41	26568
823.55	26473
823.69	26522
823.83	26579
823.97	26518
824.11	26259
824.25	26290
824.389	26412
824.529	26336
824.669	26400
824.809	26457
824.949	26419
825.089	26396
825.228	26377
825.368	26164
825.508	26088
825.648	26145
825.787	26286
825.927	26286
826.067	26073
826.206	26256
826.346	26275
826.485	26214
826.625	26259
826.765	26275
826.904	26294
827.044	25951
827.183	26050
827.323	25898
827.462	25909
827.601	25944
827.741	25795
827.88	25932
828.02	25734
828.159	25765
828.298	25932
828.437	26012
828.577	25738
828.716	25883
828.855	25757
828.994	25556
829.134	25556
829.273	25571
829.412	25605
829.551	25529
829.69	25700
829.829	25495
829.968	25567
830.107	25666
830.246	25533
830.385	25578
830.524	25643
830.663	25430
830.802	25247
830.941	25213
831.08	25107
831.219	25449
831.357	25240
831.496	25316
831.635	25190
831.774	25145
831.913	25069
832.051	25004
832.19	25008
832.329	25053
832.467	24878
832.606	24856
832.744	24741
832.883	24890
833.022	24829
833.16	24791
833.299	24863
833.437	24996
833.576	24863
833.714	24901
833.852	24954
833.991	24966
834.129	25099
834.267	24989
834.406	24928
834.544	25012
834.682	24890
834.821	25027
834.959	24996
835.097	24852
835.235	25057
835.373	24943
835.511	24859
835.65	24768
835.788	24688
835.926	24627
836.064	24418
836.202	24597
836.34	24707
836.478	24776
836.615	24665
836.753	24696
836.891	24760
837.029	24787
837.167	24760
837.305	24616
837.443	24730
837.58	24547
837.718	24612
837.856	24502
837.993	24578
838.131	24467
838.269	24410
838.406	24490
838.544	24346
838.681	24144
838.819	24117
838.956	24125
839.094	24178
839.231	24171
839.369	24247
839.506	24479
839.643	24323
839.781	24133
839.918	23885
840.055	24007
840.193	23988
840.33	24022
840.467	23977
840.604	23988
840.742	24087
840.879	23889
841.016	23901
841.153	23783
841.29	24167
841.427	23798
841.564	23942
841.701	23996
841.838	23882
841.975	23901
842.112	23847
842.249	23718
842.385	23611
842.522	23870
842.659	23764
842.796	23661
842.933	23832
843.069	23691
843.206	23699
843.343	23779
843.479	23627
843.616	23726
843.752	23444
843.889	23402
844.025	23661
844.162	23353
844.298	23581
844.435	23516
844.571	23493
844.708	23349
844.844	23608
844.98	23619
845.117	23551
845.253	23353
845.389	23250
845.525	23315
845.661	23425
845.798	23159
845.934	23284
846.07	23189
846.206	23315
846.342	23486
846.478	23094
846.614	22942
846.75	22866
846.886	22946
847.022	22972
847.158	22961
847.294	22915
847.429	23037
847.565	22980
847.701	23147
847.837	22527
847.972	22637
848.108	22694
848.244	22713
848.379	22618
848.515	22523
848.65	22489
848.786	22500
848.921	22584
849.057	22793
849.192	22523
849.328	22470
849.463	22516
849.598	22421
849.734	22531
849.869	22417
850.004	22306
850.14	22322
850.275	22341
850.41	22230
850.545	22261
850.68	22215
850.815	22299
850.95	22276
851.085	22443
851.22	22333
851.355	22303
851.49	22291
851.625	22341
851.76	22306
851.895	22215
852.03	22147
852.165	22268
852.299	22329
852.434	22284
852.569	22257
852.703	22257
852.838	22230
852.973	22398
853.107	22394
853.242	22200
853.376	22044
853.511	21975
853.645	22112
853.78	22143
853.914	22192
854.048	22135
854.183	22067
854.317	22158
854.451	22284
854.585	22173
854.72	22097
854.854	22230
854.988	22002
855.122	22093
855.256	21880
855.39	21991
855.524	22162
855.658	22124
855.792	22135
855.926	22200
856.06	22013
856.194	22177
856.327	22120
856.461	22010
856.595	22128
856.729	22200
856.862	22131
856.996	22230
857.13	22188
857.263	22158
857.397	22074
857.53	22017
857.664	22112
857.797	22139
857.931	22253
858.064	22074
858.197	22158
858.331	22048
858.464	21937
858.597	22044
858.731	22013
858.864	22067
858.997	22116
859.13	22105
859.263	22177
859.396	22200
859.529	22048
859.662	22059
859.795	22051
859.928	22063
860.061	22287
860.194	22325
860.327	22188
860.46	22112
860.592	22223
860.725	22253
860.858	22223
860.99	22101
861.123	22048
861.256	22070
861.388	22116
861.521	22805
861.653	21785
861.786	21876
861.918	21907
862.05	21968
862.183	21960
862.315	22051
862.447	21975
862.58	21983
862.712	21766
862.844	21667
862.976	21857
863.108	21873
863.24	22322
863.372	21656
863.504	21918
863.636	21804
863.768	21865
863.9	21732
864.032	21831
864.164	21755
864.296	22010
864.428	21842
864.559	21888
864.691	21884
864.823	21819
864.954	21991
865.086	21774
865.217	21743
865.349	21618
865.48	21656
865.612	21739
865.743	21880
865.875	21736
866.006	21644
866.137	21709
866.269	21728
866.4	21686
866.531	21568
866.662	21583
866.793	21530
866.924	21557
867.055	21633
867.186	21713
867.317	21553
867.448	21523
867.579	21557
867.71	21542
867.841	21519
867.972	21580
868.103	21637
868.233	21679
868.364	21743
868.495	21618
868.625	21854
868.756	21964
868.886	21998
869.017	21701
869.147	22128
869.278	21975
869.408	22010
869.539	21804
869.669	21873
869.799	21972
869.929	22109
870.06	21991
870.19	22185
870.32	22379
870.45	22238
870.58	22192
870.71	22310
870.84	22337
870.97	22150
871.1	22211
871.23	22436
871.36	22413
871.489	22371
871.619	22356
871.749	22535
871.879	22424
872.008	22512
872.138	22360
872.267	22512
872.397	22299
872.526	22265
872.656	22337
872.785	22284
872.915	22409
873.044	22538
873.173	22561
873.303	22470
873.432	22394
873.561	22470
873.69	22508
873.819	22447
873.948	22542
874.077	22588
874.206	22440
874.335	22489
874.464	22656
874.593	22748
874.722	22683
874.851	22603
874.979	22774
875.108	22713
875.237	22694
875.365	22561
875.494	22721
875.623	22706
875.751	22653
875.88	22717
876.008	22683
876.136	22900
876.265	23105
876.393	23239
876.521	23102
876.65	23094
876.778	23083
876.906	23029
877.034	22961
877.162	23098
877.29	22930
877.418	22828
877.546	23048
877.674	22980
877.802	22995
877.93	23018
878.058	22957
878.185	22915
878.313	22934
878.441	23094
878.568	22881
878.696	22911
878.824	23098
878.951	22972
879.079	23284
879.206	23296
879.333	23166
879.461	23056
879.588	23136
879.715	23235
879.842	23200
879.97	23067
880.097	22972
880.224	22934
880.351	22843
880.478	22820
880.605	22809
880.732	22946
880.859	23181
880.986	22927
881.112	22702
881.239	22717
881.366	22504
881.493	22615
881.619	22500
881.746	22280
881.872	22436
881.999	22314
882.125	22379
882.252	22474
882.378	22394
882.505	22478
882.631	22280
882.757	22124
882.883	22070
883.01	22158
883.136	22086
883.262	21987
883.388	21968
883.514	21998
883.64	22215
883.766	22032
883.892	21770
884.018	21960
884.143	21979
884.269	22063
884.395	21797
884.52	21644
884.646	21797
884.772	21808
884.897	21629
885.023	21831
885.148	21880
885.274	21827
885.399	21915
885.524	21781
885.65	21823
885.775	21797
885.9	21614
886.025	21846
886.15	21698
886.275	21701
886.4	21606
886.525	21660
886.65	21648
886.775	21739
886.9	21838
887.025	21926
887.149	21774
887.274	21549
887.399	21469
887.523	21492
887.648	21557
887.773	21466
887.897	21492
888.021	21545
888.146	21458
888.27	21717
888.395	21625
888.519	21443
888.643	21496
888.767	21500
888.891	21389
889.015	21291
889.139	21325
889.263	21332
889.387	21416
889.511	21519
889.635	21462
889.759	21321
889.883	21237
890.006	21252
890.13	21241
890.254	21150
890.377	21188
890.501	21062
890.624	20933
890.748	21062
890.871	20982
890.995	20804
891.118	20868
891.241	20891
891.364	20906
891.488	20921
891.611	20826
891.734	20788
891.857	20937
891.98	20849
892.103	20883
892.226	20864
892.349	20823
892.471	20663
892.594	20758
892.717	20804
892.839	20720
892.962	20739
893.085	20899
893.207	20762
893.33	20648
893.452	20754
893.575	20804
893.697	20697
893.819	20887
893.941	20967
894.064	20914
894.186	20640
894.308	20648
894.43	20800
894.552	20914
894.674	20819
894.796	20682
894.918	20686
895.04	20743
895.161	20724
895.283	20716
895.405	20667
895.526	20735
895.648	20651
895.769	20727
895.891	20674
896.012	20743
896.134	20815
896.255	20788
896.376	20727
896.498	20769
896.619	20826
896.74	20758
896.861	20788
896.982	20967
897.103	20994
897.224	20979
897.345	20899
897.466	20906
897.587	21020
897.708	21138
897.828	21039
897.949	20826
898.07	20906
898.19	20895
898.311	21039
898.431	20979
898.552	20952
898.672	21047
898.792	20971
898.913	20929
899.033	20819
899.153	20708
899.273	20549
899.393	20712
899.513	20834
899.633	20640
899.753	20807
899.873	20571
899.993	20754
900.113	20678
900.232	20705
900.352	20594
900.472	20621
900.591	20358
900.711	20495
900.83	20446
900.95	20587
901.069	20488
901.189	20419
901.308	20153
901.427	20115
901.546	19944
901.665	20035
901.784	20161
901.904	19769
902.023	19860
902.141	19514
902.26	19616
902.379	19635
902.498	19472
902.617	19476
902.735	19597
902.854	19457
902.973	19388
903.091	19301
903.21	19187
903.328	19114
903.446	19114
903.565	19072
903.683	19012
903.801	18856
903.919	18821
904.038	18894
904.156	18795
904.274	18810
904.392	18787
904.51	18764
904.627	18772
904.745	18806
904.863	18749
904.981	18582
905.098	18254
905.216	18418
905.334	18426
905.451	18418
905.569	18513
905.686	18544
905.803	18399
905.921	18182
906.038	18216
906.155	18163
906.272	18152
906.389	18076
906.506	18015
906.623	17973
906.74	17969
906.857	17741
906.974	17824
907.091	17950
907.208	18133
907.324	17923
907.441	17859
907.557	17684
907.674	17630
907.79	17657
907.907	17638
908.023	17741
908.139	17630
908.256	17608
908.372	17585
908.488	17581
908.604	17463
908.72	17364
908.836	17353
908.952	17410
909.068	17288
909.184	17421
909.3	17433
909.415	17368
909.531	17330
909.647	17102
909.762	17090
909.878	17064
909.993	17098
910.108	16995
910.224	17136
910.339	16885
910.454	16942
910.57	16881
910.685	16694
910.8	17025
910.915	17208
911.03	16911
911.145	16752
911.259	16725
911.374	16691
911.489	16504
911.604	16455
911.718	16329
911.833	16451
911.947	16265
912.062	16196
912.176	16440
912.291	16462
912.405	16462
912.519	16550
912.633	16565
912.748	16478
912.862	16284
912.976	16230
913.09	16219
913.204	16185
913.318	16166
913.431	16249
913.545	16257
913.659	16291
913.772	16181
913.886	16002
914	15987
914.113	16097
914.226	16162
914.34	16002
914.453	15865
914.566	16078
914.68	15903
914.793	15937
914.906	15637
915.019	15523
915.132	15561
915.245	15584
915.358	15652
915.47	15576
915.583	15576
915.696	15545
915.809	15755
915.921	15804
916.034	15576
916.146	15507
916.259	15389
916.371	15492
916.483	15473
916.595	15515
916.708	15542
916.82	15374
916.932	15412
917.044	15237
917.156	15332
917.268	15226
917.38	15332
917.491	15252
917.603	15249
917.715	15332
917.826	15329
917.938	15127
918.049	15119
918.161	15195
918.272	15272
918.384	15249
918.495	15131
918.606	14944
918.717	14918
918.828	15028
918.939	15001
919.05	14895
919.161	14952
919.272	14861
919.383	14777
919.494	14948
919.604	15252
919.715	14944
919.826	14861
919.936	14921
920.047	14971
920.157	14857
920.267	15165
920.378	14979
920.488	14868
920.598	15123
920.708	15176
920.818	15039
920.928	14948
921.038	15241
921.148	15131
921.258	14937
921.368	14773
921.477	14708
921.587	14571
921.697	14511
921.806	14796
921.916	14610
922.025	14377
922.134	14328
922.244	14256
922.353	14317
922.462	14195
922.571	14142
922.68	14046
922.789	13936
922.898	14035
923.007	13909
923.116	14005
923.224	13868
923.333	13921
923.442	13845
923.55	13746
923.659	13822
923.767	13795
923.876	13715
923.984	13826
924.092	13639
924.201	13742
924.309	13590
924.417	13738
924.525	13540
924.633	13647
924.741	14317
924.849	13419
924.956	13457
925.064	13392
925.172	13190
925.279	13343
925.387	13365
925.494	13297
925.602	13464
925.709	13392
925.816	13244
925.924	13232
926.031	13369
926.138	13316
926.245	13324
926.352	13179
926.459	13266
926.566	13320
926.673	13187
926.779	12985
926.886	13122
926.993	12916
927.099	12939
927.206	12863
927.312	12837
927.419	12924
927.525	12859
927.631	12905
927.737	12757
927.843	12684
927.95	12597
928.056	12715
928.162	12772
928.267	12749
928.373	13392
928.479	12806
928.585	12528
928.69	12662
928.796	12681
928.901	12532
929.007	12376
929.112	12563
929.218	12494
929.323	12395
929.428	12414
929.533	12574
929.638	12334
929.743	12323
929.848	12399
929.953	12391
930.058	12190
930.163	12079
930.267	12121
930.372	12224
930.477	12121
930.581	12232
930.685	12213
930.79	11950
930.894	11980
930.998	11939
931.103	12087
931.207	11817
931.311	11684
931.415	11573
931.519	11376
931.623	11292
