Data from test_V78500241_374.txt Node
Date: Fri Mar 25 15:44:23 CST 2022
User: usil
Spectrometer: V785-0024
Trigger mode: 0
Integration Time (sec): 4.000000E-1
Scans to average: 1
Nonlinearity correction enabled: false
Boxcar width: 0
Storing dark spectrum: false
XAxis mode: Wavelengths
Number of Pixels in Spectrum: 1024
>>>>>Begin Spectral Data<<<<<
801.071	29615
801.214	29592
801.356	29349
801.499	29379
801.641	29322
801.783	29288
801.926	29280
802.068	29246
802.211	29155
802.353	29090
802.496	28980
802.638	28843
802.78	28843
802.923	28866
803.065	28725
803.208	28961
803.35	28786
803.492	28927
803.635	29056
803.777	29022
803.919	29124
804.061	29433
804.204	29185
804.346	29117
804.488	29113
804.63	29075
804.773	28839
804.915	29113
805.057	29143
805.199	29090
805.341	29140
805.483	29166
805.626	29098
805.768	29220
805.91	29105
806.052	29212
806.194	29166
806.336	29334
806.478	29288
806.62	29132
806.762	29269
806.904	29531
807.046	29695
807.188	29570
807.33	29726
807.472	29687
807.614	29497
807.756	29589
807.898	29471
808.04	29524
808.182	29391
808.324	29406
808.465	29467
808.607	29653
808.749	29790
808.891	29946
809.033	29954
809.174	29973
809.316	29824
809.458	29958
809.6	29718
809.741	30076
809.883	29950
810.025	30053
810.166	30174
810.308	30133
810.45	30064
810.591	30136
810.733	29942
810.875	29851
811.016	29748
811.158	29882
811.299	29988
811.441	29999
811.582	29999
811.724	29923
811.865	29718
812.007	29824
812.148	29862
812.29	29878
812.431	30053
812.573	30205
812.714	30315
812.855	30357
812.997	30441
813.138	30528
813.279	30407
813.421	30433
813.562	30372
813.703	30334
813.845	30209
813.986	29707
814.127	29687
814.268	29543
814.41	29547
814.551	29459
814.692	29630
814.833	29551
814.974	29444
815.115	29630
815.256	29406
815.397	29570
815.539	29277
815.68	29143
815.821	29273
815.962	29303
816.103	29315
816.244	29216
816.385	28946
816.526	29143
816.666	28820
816.807	28702
816.948	28938
817.089	28934
817.23	28763
817.371	28736
817.512	28740
817.653	28767
817.793	28782
817.934	28866
818.075	28854
818.216	28660
818.356	28733
818.497	28717
818.638	28440
818.778	28561
818.919	28618
819.06	28626
819.2	28675
819.341	28892
819.481	28691
819.622	28946
819.762	29029
819.903	29033
820.043	28961
820.184	28881
820.324	28755
820.465	28923
820.605	28980
820.746	28995
820.886	28752
821.026	28888
821.167	28763
821.307	29022
821.447	28862
821.588	28569
821.728	28519
821.868	28333
822.008	28329
822.149	28135
822.289	28253
822.429	27975
822.569	27953
822.709	27793
822.849	27755
822.99	27648
823.13	27663
823.27	27507
823.41	27393
823.55	27378
823.69	27488
823.83	27519
823.97	27439
824.11	27287
824.25	27256
824.389	27279
824.529	27348
824.669	27226
824.809	27325
824.949	27306
825.089	27393
825.228	27336
825.368	27093
825.508	27237
825.648	27161
825.787	27180
825.927	27176
826.067	27127
826.206	27184
826.346	27138
826.485	27142
826.625	27081
826.765	27355
826.904	27066
827.044	26918
827.183	26914
827.323	26842
827.462	26815
827.601	26792
827.741	26842
827.88	26796
828.02	26716
828.159	26773
828.298	26944
828.437	26838
828.577	26765
828.716	26868
828.855	26788
828.994	26476
829.134	26511
829.273	26549
829.412	26495
829.551	26355
829.69	26503
829.829	26571
829.968	26404
830.107	26590
830.246	26564
830.385	26412
830.524	26385
830.663	26233
830.802	26244
830.941	26202
831.08	26039
831.219	26206
831.357	26107
831.496	26336
831.635	26107
831.774	25928
831.913	26046
832.051	25841
832.19	25864
832.329	25978
832.467	25689
832.606	25734
832.744	25765
832.883	25757
833.022	25601
833.16	25803
833.299	25746
833.437	25674
833.576	25875
833.714	25769
833.852	25864
833.991	25746
834.129	25894
834.267	25757
834.406	25856
834.544	25700
834.682	25769
834.821	25833
834.959	25928
835.097	25605
835.235	25906
835.373	25655
835.511	25655
835.65	25525
835.788	25552
835.926	25529
836.064	25506
836.202	25400
836.34	25597
836.478	25556
836.615	25605
836.753	25624
836.891	25689
837.029	25586
837.167	25415
837.305	25438
837.443	25327
837.58	25502
837.718	25419
837.856	25438
837.993	25384
838.131	25491
838.269	25148
838.406	25236
838.544	25107
838.681	25000
838.819	24970
838.956	24844
839.094	24776
839.231	24817
839.369	24954
839.506	25217
839.643	25103
839.781	24852
839.918	24795
840.055	24867
840.193	24646
840.33	24715
840.467	24741
840.604	24776
840.742	24878
840.879	24570
841.016	24696
841.153	24467
841.29	24844
841.427	24601
841.564	24795
841.701	24749
841.838	24601
841.975	24540
842.112	24597
842.249	24388
842.385	24388
842.522	24517
842.659	24498
842.796	24437
842.933	24372
843.069	24445
843.206	24376
843.343	24490
843.479	24380
843.616	24346
843.752	24136
843.889	24167
844.025	24262
844.162	24011
844.298	24216
844.435	24194
844.571	24106
844.708	24174
844.844	24308
844.98	24205
845.117	24136
845.253	24064
845.389	23996
845.525	24045
845.661	23920
845.798	23958
845.934	23958
846.07	23923
846.206	23889
846.342	23885
846.478	23798
846.614	23562
846.75	23566
846.886	23566
847.022	23646
847.158	23463
847.294	23501
847.429	23733
847.565	23551
847.701	23691
847.837	23337
847.972	23269
848.108	23376
848.244	23349
848.379	23181
848.515	23223
848.65	23102
848.786	23174
848.921	23181
849.057	23204
849.192	23292
849.328	23170
849.463	23140
849.598	22987
849.734	23140
849.869	22995
850.004	23006
850.14	22858
850.275	22866
850.41	22923
850.545	22900
850.68	22816
850.815	22972
850.95	22858
851.085	22995
851.22	23025
851.355	22835
851.49	22877
851.625	22786
851.76	22847
851.895	22839
852.03	22713
852.165	22892
852.299	22896
852.434	22869
852.569	22957
852.703	22828
852.838	22991
852.973	22938
853.107	22961
853.242	22835
853.376	22683
853.511	22615
853.645	22603
853.78	22854
853.914	22790
854.048	22569
854.183	22649
854.317	22706
854.451	22824
854.585	22683
854.72	22694
854.854	22744
854.988	22702
855.122	22702
855.256	22538
855.39	22660
855.524	22820
855.658	22687
855.792	22664
855.926	22759
856.06	22809
856.194	22634
856.327	22630
856.461	22630
856.595	22565
856.729	22736
856.862	22736
856.996	22812
857.13	22729
857.263	22771
857.397	22759
857.53	22664
857.664	22596
857.797	22702
857.931	22854
858.064	22653
858.197	22752
858.331	22599
858.464	22580
858.597	22554
858.731	22550
858.864	22588
858.997	22554
859.13	22694
859.263	22626
859.396	22694
859.529	22592
859.662	22599
859.795	22569
859.928	22580
860.061	22729
860.194	22805
860.327	22824
860.46	22736
860.592	22744
860.725	22835
860.858	22672
860.99	22542
861.123	22561
861.256	22459
861.388	22554
861.521	23258
861.653	22436
861.786	22470
861.918	22535
862.05	22535
862.183	22645
862.315	22512
862.447	22679
862.58	22664
862.712	22306
862.844	22398
862.976	22440
863.108	22440
863.24	22782
863.372	22169
863.504	22230
863.636	22207
863.768	22405
863.9	22371
864.032	22253
864.164	22154
864.296	22265
864.428	22424
864.559	22299
864.691	22287
864.823	22284
864.954	22226
865.086	22226
865.217	22215
865.349	22375
865.48	22158
865.612	22143
865.743	22421
865.875	22242
866.006	22105
866.137	22162
866.269	22128
866.4	22238
866.531	22143
866.662	22135
866.793	22025
866.924	22150
867.055	22177
867.186	22074
867.317	22040
867.448	21979
867.579	22257
867.71	21873
867.841	21922
867.972	21960
868.103	22044
868.233	22048
868.364	22086
868.495	22192
868.625	22318
868.756	22413
868.886	22348
869.017	22268
869.147	22557
869.278	22561
869.408	22379
869.539	22348
869.669	22348
869.799	22299
869.929	22371
870.06	22538
870.19	22569
870.32	22774
870.45	22778
870.58	22839
870.71	22908
870.84	22801
870.97	22759
871.1	22831
871.23	22915
871.36	22820
871.489	22740
871.619	22774
871.749	22900
871.879	22957
872.008	23098
872.138	22892
872.267	22923
872.397	22862
872.526	22797
872.656	22828
872.785	22767
872.915	22911
873.044	22949
873.173	22961
873.303	23124
873.432	23098
873.561	23033
873.69	22957
873.819	22934
873.948	23041
874.077	22946
874.206	22854
874.335	22961
874.464	23029
874.593	23220
874.722	23227
874.851	23265
874.979	23193
875.108	23326
875.237	23166
875.365	23010
875.494	23090
875.623	23242
875.751	23010
875.88	23189
876.008	23376
876.136	23246
876.265	23551
876.393	23699
876.521	23554
876.65	23676
876.778	23600
876.906	23539
877.034	23539
877.162	23459
877.29	23482
877.418	23474
877.546	23474
877.674	23417
877.802	23520
877.93	23528
878.058	23474
878.185	23318
878.313	23474
878.441	23467
878.568	23322
878.696	23436
878.824	23509
878.951	23604
879.079	23653
879.206	23748
879.333	23737
879.461	23520
879.588	23680
879.715	23687
879.842	23714
879.97	23638
880.097	23273
880.224	23349
880.351	23277
880.478	23322
880.605	23151
880.732	23261
880.859	23524
880.986	23220
881.112	23273
881.239	23086
881.366	23117
881.493	22991
881.619	22942
881.746	22934
881.872	22763
881.999	22900
882.125	22809
882.252	22919
882.378	22790
882.505	22957
882.631	22801
882.757	22527
882.883	22748
883.01	22603
883.136	22584
883.262	22443
883.388	22360
883.514	22653
883.64	22634
883.766	22550
883.892	22363
884.018	22276
884.143	22554
884.269	22516
884.395	22310
884.52	22139
884.646	22177
884.772	22188
884.897	22048
885.023	22242
885.148	22261
885.274	22196
885.399	22322
885.524	22196
885.65	22344
885.775	22166
885.9	22128
886.025	22303
886.15	22253
886.275	22226
886.4	22055
886.525	22181
886.65	22116
886.775	22082
886.9	22223
887.025	22432
887.149	22173
887.274	21937
887.399	21998
887.523	21884
887.648	21907
887.773	21895
887.897	22029
888.021	21956
888.146	21812
888.27	21949
888.395	21975
888.519	21934
888.643	21956
888.767	21960
888.891	21739
889.015	21835
889.139	21781
889.263	21793
889.387	21739
889.511	21880
889.635	21918
889.759	21633
889.883	21690
890.006	21682
890.13	21774
890.254	21675
890.377	21633
890.501	21469
890.624	21526
890.748	21500
890.871	21348
890.995	21249
891.118	21165
891.241	21264
891.364	21344
891.488	21386
891.611	21203
891.734	21245
891.857	21348
891.98	21283
892.103	21340
892.226	21222
892.349	21150
892.471	21077
892.594	21176
892.717	21332
892.839	21081
892.962	21043
893.085	21287
893.207	21062
893.33	21104
893.452	21112
893.575	21157
893.697	21199
893.819	21317
893.941	21332
894.064	21321
894.186	21058
894.308	21001
894.43	21127
894.552	21249
894.674	21066
894.796	21024
894.918	21070
895.04	21039
895.161	21154
895.283	21192
895.405	21055
895.526	21032
895.648	21100
895.769	21100
895.891	21169
896.012	21218
896.134	21108
896.255	21085
896.376	21112
896.498	21108
896.619	21100
896.74	21142
896.861	21195
896.982	21519
897.103	21641
897.224	21447
897.345	21325
897.466	21279
897.587	21344
897.708	21492
897.828	21374
897.949	21298
898.07	21184
898.19	21313
898.311	21462
898.431	21351
898.552	21230
898.672	21321
898.792	21405
898.913	21401
899.033	21283
899.153	20963
899.273	21017
899.393	21043
899.513	21074
899.633	21005
899.753	21009
899.873	20921
899.993	21058
900.113	20864
900.232	21066
900.352	20861
900.472	20975
900.591	20735
900.711	20765
900.83	20765
900.95	20929
901.069	20895
901.189	20758
901.308	20499
901.427	20320
901.546	20419
901.665	20427
901.784	20408
901.904	20229
902.023	20100
902.141	19906
902.26	19944
902.379	20005
902.498	19849
902.617	19887
902.735	19944
902.854	19811
902.973	19807
903.091	19582
903.21	19571
903.328	19552
903.446	19514
903.565	19354
903.683	19426
903.801	19091
903.919	19228
904.038	19179
904.156	19129
904.274	19133
904.392	18947
904.51	18985
904.627	19099
904.745	19171
904.863	19046
904.981	18890
905.098	18601
905.216	18787
905.334	18753
905.451	18745
905.569	18623
905.686	18768
905.803	18779
905.921	18620
906.038	18521
906.155	18563
906.272	18308
906.389	18418
906.506	18251
906.623	18243
906.74	18178
906.857	18277
906.974	18133
907.091	18388
907.208	18338
907.324	18266
907.441	18110
907.557	18007
907.674	17999
907.79	17935
907.907	17851
908.023	17866
908.139	17847
908.256	17828
908.372	17798
908.488	17699
908.604	17646
908.72	17722
908.836	17767
908.952	17486
909.068	17630
909.184	17790
909.3	17497
909.415	17665
909.531	17554
909.647	17364
909.762	17425
909.878	17216
909.993	17383
910.108	17318
910.224	17280
910.339	17349
910.454	17143
910.57	17212
910.685	17067
910.8	17326
910.915	17311
911.03	17155
911.145	16904
911.259	16999
911.374	16957
911.489	16885
911.604	16782
911.718	16584
911.833	16599
911.947	16656
912.062	16489
912.176	16679
912.291	16660
912.405	16774
912.519	16839
912.633	16687
912.748	16645
912.862	16588
912.976	16618
913.09	16261
913.204	16402
913.318	16436
913.431	16611
913.545	16443
913.659	16478
913.772	16409
913.886	16268
914	16204
914.113	16303
914.226	16306
914.34	16261
914.453	16074
914.566	16238
914.68	16147
914.793	15922
914.906	15876
915.019	15835
915.132	15660
915.245	15724
915.358	15915
915.47	15823
915.583	15842
915.696	15907
915.809	15842
915.921	15987
916.034	15797
916.146	15713
916.259	15652
916.371	15717
916.483	15641
916.595	15648
916.708	15660
916.82	15622
916.932	15557
917.044	15652
917.156	15523
917.268	15405
917.38	15439
917.491	15431
917.603	15447
917.715	15389
917.826	15568
917.938	15374
918.049	15355
918.161	15416
918.272	15450
918.384	15447
918.495	15298
918.606	15233
918.717	15024
918.828	15154
918.939	15230
919.05	15093
919.161	15085
919.272	14944
919.383	15020
919.494	15199
919.604	15313
919.715	15161
919.826	14975
919.936	15112
920.047	15165
920.157	15024
920.267	15279
920.378	15062
920.488	15062
920.598	15180
920.708	15389
920.818	15195
920.928	15207
921.038	15260
921.148	15310
921.258	15077
921.368	14918
921.477	14861
921.587	14887
921.697	14701
921.806	14796
921.916	14606
922.025	14568
922.134	14454
922.244	14408
922.353	14415
922.462	14244
922.571	14252
922.68	14134
922.789	14077
922.898	14252
923.007	14016
923.116	14084
923.224	14084
923.333	14054
923.442	13967
923.55	13799
923.659	13906
923.767	13898
923.876	13868
923.984	13944
924.092	13776
924.201	13875
924.309	13807
924.417	13750
924.525	13685
924.633	13715
924.741	14419
924.849	13552
924.956	13693
925.064	13415
925.172	13460
925.279	13476
925.387	13506
925.494	13460
925.602	13597
925.709	13499
925.816	13400
925.924	13453
926.031	13483
926.138	13453
926.245	13392
926.352	13259
926.459	13449
926.566	13407
926.673	13324
926.779	13156
926.886	13160
926.993	13038
927.099	13122
927.206	12954
927.312	12905
927.419	13038
927.525	13038
927.631	13015
927.737	12871
927.843	12852
927.95	12673
928.056	12810
928.162	12802
928.267	12863
928.373	13377
928.479	12928
928.585	12639
928.69	12749
928.796	12814
928.901	12703
929.007	12551
929.112	12730
929.218	12650
929.323	12544
929.428	12509
929.533	12612
929.638	12456
929.743	12475
929.848	12555
929.953	12494
930.058	12338
930.163	12178
930.267	12182
930.372	12304
930.477	12216
930.581	12384
930.685	12163
930.79	12068
930.894	12129
930.998	12076
931.103	12136
931.207	11866
931.311	11695
931.415	11611
931.519	11402
931.623	11452
