Data from test_V78500241_1261.txt Node
Date: Fri Mar 25 15:50:32 CST 2022
User: usil
Spectrometer: V785-0024
Trigger mode: 0
Integration Time (sec): 4.000000E-1
Scans to average: 1
Nonlinearity correction enabled: false
Boxcar width: 0
Storing dark spectrum: false
XAxis mode: Wavelengths
Number of Pixels in Spectrum: 1024
>>>>>Begin Spectral Data<<<<<
801.071	28843
801.214	28824
801.356	28755
801.499	28691
801.641	28561
801.783	28371
801.926	28527
802.068	28489
802.211	28596
802.353	28386
802.496	28223
802.638	28086
802.78	28234
802.923	28120
803.065	28154
803.208	28188
803.35	28333
803.492	28291
803.635	28287
803.777	28405
803.919	28462
804.061	28828
804.204	28512
804.346	28360
804.488	28356
804.63	28348
804.773	28287
804.915	28390
805.057	28527
805.199	28577
805.341	28485
805.483	28630
805.626	28519
805.768	28474
805.91	28694
806.052	28607
806.194	28379
806.336	28869
806.478	28721
806.62	28687
806.762	28805
806.904	28908
807.046	29117
807.188	29067
807.33	29143
807.472	29121
807.614	28972
807.756	28991
807.898	28885
808.04	28869
808.182	28915
808.324	28987
808.465	29025
808.607	29143
808.749	29387
808.891	29303
809.033	29402
809.174	29425
809.316	29109
809.458	29193
809.6	29299
809.741	29433
809.883	29444
810.025	29608
810.166	29638
810.308	29661
810.45	29505
810.591	29486
810.733	29296
810.875	29212
811.016	29265
811.158	29216
811.299	29455
811.441	29474
811.582	29566
811.724	29383
811.865	29151
812.007	29254
812.148	29330
812.29	29315
812.431	29516
812.573	29649
812.714	29703
812.855	29870
812.997	29847
813.138	30060
813.279	29992
813.421	29771
813.562	29954
813.703	29600
813.845	29581
813.986	29223
814.127	29109
814.268	29151
814.41	29033
814.551	29071
814.692	29048
814.833	28953
814.974	29041
815.115	29052
815.256	29018
815.397	28896
815.539	28984
815.68	28843
815.821	28946
815.962	28759
816.103	28809
816.244	28554
816.385	28561
816.526	28557
816.666	28565
816.807	28360
816.948	28519
817.089	28569
817.23	28455
817.371	28333
817.512	28421
817.653	28409
817.793	28192
817.934	28318
818.075	28363
818.216	28341
818.356	28246
818.497	28200
818.638	28105
818.778	28036
818.919	28131
819.06	28204
819.2	28356
819.341	28322
819.481	28443
819.622	28493
819.762	28736
819.903	28592
820.043	28485
820.184	28546
820.324	28386
820.465	28557
820.605	28417
820.746	28554
820.886	28360
821.026	28325
821.167	28451
821.307	28447
821.447	28462
821.588	28367
821.728	28215
821.868	28090
822.008	27831
822.149	27907
822.289	27785
822.429	27534
822.569	27568
822.709	27542
822.849	27317
822.99	27389
823.13	27302
823.27	27325
823.41	27230
823.55	27195
823.69	27207
823.83	27081
823.97	27173
824.11	27020
824.25	27043
824.389	27096
824.529	27062
824.669	27009
824.809	27024
824.949	27093
825.089	27291
825.228	27020
825.368	26880
825.508	26845
825.648	26842
825.787	26891
825.927	26948
826.067	27005
826.206	26906
826.346	27017
826.485	27013
826.625	26990
826.765	27047
826.904	26891
827.044	26686
827.183	26590
827.323	26651
827.462	26807
827.601	26655
827.741	26724
827.88	26659
828.02	26575
828.159	26564
828.298	26663
828.437	26560
828.577	26556
828.716	26689
828.855	26545
828.994	26233
829.134	26358
829.273	26469
829.412	26461
829.551	26180
829.69	26393
829.829	26412
829.968	26358
830.107	26332
830.246	26202
830.385	26347
830.524	26237
830.663	26084
830.802	26111
830.941	25936
831.08	25803
831.219	25913
831.357	26103
831.496	26168
831.635	25970
831.774	25811
831.913	25761
832.051	25734
832.19	25753
832.329	25704
832.467	25712
832.606	25552
832.744	25544
832.883	25556
833.022	25472
833.16	25670
833.299	25647
833.437	25757
833.576	25605
833.714	25677
833.852	25742
833.991	25772
834.129	25693
834.267	25902
834.406	25693
834.544	25738
834.682	25620
834.821	25685
834.959	25890
835.097	25590
835.235	25666
835.373	25628
835.511	25715
835.65	25548
835.788	25597
835.926	25407
836.064	25270
836.202	25251
836.34	25540
836.478	25597
836.615	25460
836.753	25537
836.891	25689
837.029	25624
837.167	25449
837.305	25343
837.443	25297
837.58	25407
837.718	25343
837.856	25278
837.993	25327
838.131	25247
838.269	25217
838.406	25225
838.544	25141
838.681	24985
838.819	24992
838.956	24798
839.094	24681
839.231	24817
839.369	24905
839.506	25187
839.643	25133
839.781	24707
839.918	24734
840.055	24730
840.193	24772
840.33	24696
840.467	24623
840.604	24802
840.742	25023
840.879	24623
841.016	24513
841.153	24627
841.29	24711
841.427	24665
841.564	24707
841.701	24620
841.838	24661
841.975	24483
842.112	24513
842.249	24570
842.385	24426
842.522	24528
842.659	24517
842.796	24441
842.933	24323
843.069	24414
843.206	24517
843.343	24353
843.479	24479
843.616	24388
843.752	24327
843.889	24285
844.025	24334
844.162	24178
844.298	24410
844.435	24182
844.571	24076
844.708	24262
844.844	24277
844.98	24277
845.117	24232
845.253	24174
845.389	23996
845.525	24277
845.661	24091
845.798	23946
845.934	23901
846.07	23885
846.206	23878
846.342	24018
846.478	23802
846.614	23722
846.75	23554
846.886	23524
847.022	23695
847.158	23676
847.294	23687
847.429	23668
847.565	23684
847.701	23912
847.837	23379
847.972	23345
848.108	23467
848.244	23379
848.379	23261
848.515	23143
848.65	23227
848.786	23303
848.921	23216
849.057	23379
849.192	23379
849.328	23242
849.463	23178
849.598	23208
849.734	23143
849.869	23109
850.004	22972
850.14	22999
850.275	22999
850.41	22843
850.545	22980
850.68	22915
850.815	22965
850.95	23075
851.085	23189
851.22	23105
851.355	23018
851.49	22930
851.625	22938
851.76	23044
851.895	22866
852.03	22828
852.165	22927
852.299	22991
852.434	23155
852.569	22995
852.703	22961
852.838	23014
852.973	23018
853.107	23185
853.242	22984
853.376	22858
853.511	22717
853.645	22828
853.78	22835
853.914	22824
854.048	22767
854.183	22763
854.317	22835
854.451	22961
854.585	22771
854.72	22854
854.854	22892
854.988	22656
855.122	22717
855.256	22793
855.39	22816
855.524	22824
855.658	22831
855.792	22904
855.926	22927
856.06	22900
856.194	22831
856.327	22809
856.461	22706
856.595	22767
856.729	22774
856.862	22949
856.996	22828
857.13	22919
857.263	22938
857.397	22927
857.53	22793
857.664	22767
857.797	22900
857.931	22946
858.064	22869
858.197	22896
858.331	22873
858.464	22790
858.597	22584
858.731	22759
858.864	22710
858.997	22771
859.13	22862
859.263	22889
859.396	22968
859.529	22702
859.662	22641
859.795	22713
859.928	22828
860.061	23003
860.194	22995
860.327	22908
860.46	22854
860.592	22809
860.725	23067
860.858	22976
860.99	22858
861.123	22618
861.256	22752
861.388	22801
861.521	23387
861.653	22691
861.786	22561
861.918	22634
862.05	22740
862.183	22755
862.315	22634
862.447	22717
862.58	22698
862.712	22436
862.844	22523
862.976	22771
863.108	22603
863.24	22835
863.372	22352
863.504	22474
863.636	22538
863.768	22428
863.9	22569
864.032	22390
864.164	22367
864.296	22493
864.428	22554
864.559	22607
864.691	22474
864.823	22493
864.954	22497
865.086	22599
865.217	22398
865.349	22367
865.48	22341
865.612	22341
865.743	22519
865.875	22356
866.006	22246
866.137	22333
866.269	22382
866.4	22382
866.531	22459
866.662	22257
866.793	22371
866.924	22325
867.055	22291
867.186	22246
867.317	22360
867.448	22261
867.579	22325
867.71	22162
867.841	22314
867.972	22223
868.103	22299
868.233	22280
868.364	22265
868.495	22356
868.625	22527
868.756	22679
868.886	22459
869.017	22440
869.147	22569
869.278	22736
869.408	22535
869.539	22504
869.669	22713
869.799	22592
869.929	22656
870.06	22725
870.19	22881
870.32	22923
870.45	22873
870.58	22984
870.71	23117
870.84	23048
870.97	22968
871.1	22812
871.23	23128
871.36	23132
871.489	22972
871.619	23033
871.749	23079
871.879	23220
872.008	23341
872.138	23140
872.267	23094
872.397	23006
872.526	22930
872.656	22877
872.785	23018
872.915	23166
873.044	23318
873.173	23231
873.303	23223
873.432	23189
873.561	23303
873.69	23185
873.819	23075
873.948	23227
874.077	23193
874.206	23025
874.335	23159
874.464	23208
874.593	23512
874.722	23334
874.851	23387
874.979	23429
875.108	23440
875.237	23425
875.365	23246
875.494	23376
875.623	23467
875.751	23368
875.88	23444
876.008	23433
876.136	23429
876.265	23817
876.393	23958
876.521	23821
876.65	23824
876.778	23741
876.906	23710
877.034	23608
877.162	23718
877.29	23653
877.418	23737
877.546	23566
877.674	23566
877.802	23764
877.93	23623
878.058	23604
878.185	23596
878.313	23745
878.441	23737
878.568	23543
878.696	23627
878.824	23714
878.951	23729
879.079	23821
879.206	23939
879.333	23851
879.461	23661
879.588	23851
879.715	23851
879.842	23935
879.97	23741
880.097	23585
880.224	23436
880.351	23395
880.478	23471
880.605	23436
880.732	23493
880.859	23786
880.986	23554
881.112	23566
881.239	23353
881.366	23159
881.493	23231
881.619	23086
881.746	23003
881.872	23109
881.999	23010
882.125	22953
882.252	23067
882.378	22965
882.505	23185
882.631	22965
882.757	22858
882.883	22873
883.01	22679
883.136	22683
883.262	22599
883.388	22557
883.514	22828
883.64	22771
883.766	22634
883.892	22554
884.018	22508
884.143	22691
884.269	22725
884.395	22405
884.52	22291
884.646	22356
884.772	22253
884.897	22268
885.023	22356
885.148	22436
885.274	22519
885.399	22409
885.524	22280
885.65	22398
885.775	22344
885.9	22341
886.025	22390
886.15	22455
886.275	22348
886.4	22109
886.525	22337
886.65	22333
886.775	22272
886.9	22344
887.025	22516
887.149	22360
887.274	22150
887.399	22101
887.523	22162
887.648	22025
887.773	22116
887.897	22112
888.021	22215
888.146	22093
888.27	22109
888.395	22196
888.519	22093
888.643	22143
888.767	22196
888.891	21888
889.015	21987
889.139	21941
889.263	21968
889.387	21972
889.511	22246
889.635	22006
889.759	21812
889.883	21994
890.006	21953
890.13	21911
890.254	21880
890.377	21778
890.501	21739
890.624	21656
890.748	21644
890.871	21534
890.995	21469
891.118	21481
891.241	21466
891.364	21386
891.488	21538
891.611	21424
891.734	21405
891.857	21530
891.98	21447
892.103	21530
892.226	21351
892.349	21412
892.471	21222
892.594	21420
892.717	21367
892.839	21397
892.962	21382
893.085	21420
893.207	21306
893.33	21310
893.452	21279
893.575	21378
893.697	21382
893.819	21488
893.941	21519
894.064	21538
894.186	21230
894.308	21226
894.43	21416
894.552	21336
894.674	21439
894.796	21294
894.918	21344
895.04	21226
895.161	21294
895.283	21340
895.405	21207
895.526	21165
895.648	21294
895.769	21226
895.891	21374
896.012	21420
896.134	21393
896.255	21317
896.376	21310
896.498	21424
896.619	21447
896.74	21313
896.861	21310
896.982	21595
897.103	21747
897.224	21561
897.345	21538
897.466	21469
897.587	21545
897.708	21641
897.828	21580
897.949	21530
898.07	21260
898.19	21454
898.311	21530
898.431	21492
898.552	21466
898.672	21488
898.792	21439
898.913	21511
899.033	21393
899.153	21230
899.273	21173
899.393	21260
899.513	21363
899.633	21245
899.753	21252
899.873	21108
899.993	21241
900.113	21081
900.232	21203
900.352	21218
900.472	21077
900.591	20952
900.711	21013
900.83	20982
900.95	21081
901.069	21077
901.189	20819
901.308	20617
901.427	20617
901.546	20522
901.665	20602
901.784	20541
901.904	20469
902.023	20309
902.141	20202
902.26	20001
902.379	20134
902.498	20043
902.617	20012
902.735	20069
902.854	20081
902.973	19947
903.091	19772
903.21	19731
903.328	19635
903.446	19723
903.565	19419
903.683	19559
903.801	19430
903.919	19556
904.038	19350
904.156	19373
904.274	19403
904.392	19236
904.51	19324
904.627	19270
904.745	19259
904.863	19324
904.981	19141
905.098	19038
905.216	18924
905.334	18913
905.451	18962
905.569	18897
905.686	19012
905.803	18905
905.921	18738
906.038	18776
906.155	18783
906.272	18700
906.389	18665
906.506	18399
906.623	18589
906.74	18460
906.857	18399
906.974	18391
907.091	18555
907.208	18585
907.324	18426
907.441	18388
907.557	18216
907.674	18106
907.79	18076
907.907	18174
908.023	18220
908.139	18129
908.256	18102
908.372	18125
908.488	18030
908.604	17969
908.72	17885
908.836	17912
908.952	17802
909.068	17870
909.184	18007
909.3	17786
909.415	17874
909.531	17855
909.647	17589
909.762	17486
909.878	17623
909.993	17532
910.108	17448
910.224	17501
910.339	17630
910.454	17452
910.57	17455
910.685	17265
910.8	17566
910.915	17577
911.03	17368
911.145	17193
911.259	17246
911.374	17174
911.489	17018
911.604	17041
911.718	16805
911.833	16900
911.947	16850
912.062	16702
912.176	16930
912.291	16953
912.405	16839
912.519	17094
912.633	17132
912.748	16953
912.862	16862
912.976	16752
913.09	16592
913.204	16759
913.318	16656
913.431	16694
913.545	16744
913.659	16793
913.772	16603
913.886	16497
914	16489
914.113	16558
914.226	16535
914.34	16622
914.453	16337
914.566	16402
914.68	16348
914.793	16276
914.906	16120
915.019	16048
915.132	15975
915.245	16063
915.358	16101
915.47	15937
915.583	16086
915.696	16097
915.809	16135
915.921	16284
916.034	15884
916.146	15945
916.259	15823
916.371	16021
916.483	15983
916.595	15873
916.708	15869
916.82	15880
916.932	15770
917.044	15888
917.156	15884
917.268	15671
917.38	15717
917.491	15663
917.603	15709
917.715	15701
917.826	15755
917.938	15576
918.049	15492
918.161	15656
918.272	15747
918.384	15686
918.495	15641
918.606	15424
918.717	15363
918.828	15428
918.939	15397
919.05	15218
919.161	15370
919.272	15184
919.383	15214
919.494	15519
919.604	15584
919.715	15401
919.826	15344
919.936	15424
920.047	15458
920.157	15378
920.267	15492
920.378	15325
920.488	15321
920.598	15580
920.708	15652
920.818	15519
920.928	15561
921.038	15671
921.148	15580
921.258	15302
921.368	15222
921.477	15157
921.587	15043
921.697	15005
921.806	15146
921.916	14842
922.025	14765
922.134	14712
922.244	14708
922.353	14686
922.462	14518
922.571	14526
922.68	14343
922.789	14267
922.898	14381
923.007	14267
923.116	14381
923.224	14229
923.333	14328
923.442	14134
923.55	14126
923.659	14176
923.767	14168
923.876	14077
923.984	14050
924.092	14027
924.201	14081
924.309	13982
924.417	14058
924.525	14046
924.633	14043
924.741	14918
924.849	13818
924.956	13860
925.064	13731
925.172	13529
925.279	13658
925.387	13765
925.494	13712
925.602	13807
925.709	13799
925.816	13609
925.924	13769
926.031	13765
926.138	13647
926.245	13601
926.352	13510
926.459	13674
926.566	13590
926.673	13567
926.779	13449
926.886	13419
926.993	13289
927.099	13282
927.206	13198
927.312	13129
927.419	13301
927.525	13259
927.631	13247
927.737	13133
927.843	13076
927.95	12958
928.056	13095
928.162	13110
928.267	13034
928.373	13704
928.479	13149
928.585	12886
928.69	12958
928.796	12993
928.901	12863
929.007	12753
929.112	12932
929.218	12829
929.323	12859
929.428	12677
929.533	12981
929.638	12688
929.743	12726
929.848	12700
929.953	12692
930.058	12700
930.163	12502
930.267	12407
930.372	12582
930.477	12357
930.581	12585
930.685	12490
930.79	12281
930.894	12315
930.998	12350
931.103	12365
931.207	12110
931.311	12011
931.415	11904
931.519	11703
931.623	11653
