Data from test_V78500241_2530.txt Node
Date: Fri Mar 25 15:59:19 CST 2022
User: usil
Spectrometer: V785-0024
Trigger mode: 0
Integration Time (sec): 4.000000E-1
Scans to average: 1
Nonlinearity correction enabled: false
Boxcar width: 0
Storing dark spectrum: false
XAxis mode: Wavelengths
Number of Pixels in Spectrum: 1024
>>>>>Begin Spectral Data<<<<<
801.071	28824
801.214	28759
801.356	28440
801.499	28531
801.641	28291
801.783	28344
801.926	28310
802.068	28268
802.211	28196
802.353	28143
802.496	28112
802.638	27953
802.78	28040
802.923	28025
803.065	27888
803.208	27945
803.35	28010
803.492	28158
803.635	28268
803.777	28097
803.919	28253
804.061	28447
804.204	28382
804.346	28219
804.488	28135
804.63	28166
804.773	28109
804.915	28375
805.057	28265
805.199	28348
805.341	28474
805.483	28417
805.626	28272
805.768	28261
805.91	28348
806.052	28394
806.194	28325
806.336	28599
806.478	28455
806.62	28493
806.762	28550
806.904	28691
807.046	28984
807.188	28900
807.33	28927
807.472	28946
807.614	28797
807.756	28763
807.898	28660
808.04	28755
808.182	28687
808.324	28748
808.465	28782
808.607	28946
808.749	29086
808.891	29235
809.033	29189
809.174	29029
809.316	29181
809.458	29174
809.6	29060
809.741	29193
809.883	29261
810.025	29398
810.166	29402
810.308	29440
810.45	29368
810.591	29307
810.733	29231
810.875	29102
811.016	29060
811.158	28968
811.299	29185
811.441	29265
811.582	29235
811.724	29132
811.865	29105
812.007	29079
812.148	29014
812.29	29117
812.431	29315
812.573	29482
812.714	29512
812.855	29707
812.997	29551
813.138	29874
813.279	29699
813.421	29547
813.562	29619
813.703	29524
813.845	29421
813.986	29071
814.127	29029
814.268	28881
814.41	28801
814.551	28904
814.692	28866
814.833	28888
814.974	28778
815.115	28854
815.256	28702
815.397	28683
815.539	28729
815.68	28656
815.821	28478
815.962	28736
816.103	28645
816.244	28485
816.385	28386
816.526	28394
816.666	28268
816.807	28177
816.948	28173
817.089	28352
817.23	28173
817.371	28147
817.512	28048
817.653	28234
817.793	28040
817.934	28196
818.075	28226
818.216	28067
818.356	28143
818.497	28044
818.638	27888
818.778	27770
818.919	27778
819.06	27987
819.2	28021
819.341	28177
819.481	28226
819.622	28443
819.762	28546
819.903	28386
820.043	28432
820.184	28314
820.324	28337
820.465	28394
820.605	28166
820.746	28280
820.886	28029
821.026	28325
821.167	28223
821.307	28474
821.447	28158
821.588	28078
821.728	27949
821.868	27850
822.008	27682
822.149	27500
822.289	27549
822.429	27431
822.569	27336
822.709	27272
822.849	27161
822.99	27150
823.13	27154
823.27	27214
823.41	26864
823.55	27043
823.69	26910
823.83	27116
823.97	26853
824.11	26724
824.25	26754
824.389	26918
824.529	26834
824.669	26906
824.809	26823
824.949	26906
825.089	26845
825.228	26971
825.368	26590
825.508	26720
825.648	26670
825.787	26701
825.927	26663
826.067	26659
826.206	26667
826.346	26754
826.485	26617
826.625	26629
826.765	26796
826.904	26670
827.044	26480
827.183	26476
827.323	26267
827.462	26594
827.601	26495
827.741	26256
827.88	26400
828.02	26271
828.159	26465
828.298	26343
828.437	26415
828.577	26271
828.716	26358
828.855	26244
828.994	26187
829.134	26153
829.273	26050
829.412	26145
829.551	25978
829.69	26168
829.829	26065
829.968	26119
830.107	26069
830.246	26069
830.385	26001
830.524	25970
830.663	25833
830.802	25738
830.941	25597
831.08	25689
831.219	25830
831.357	25772
831.496	25966
831.635	25704
831.774	25578
831.913	25613
832.051	25419
832.19	25487
832.329	25457
832.467	25415
832.606	25346
832.744	25426
832.883	25441
833.022	25228
833.16	25289
833.299	25453
833.437	25388
833.576	25411
833.714	25320
833.852	25525
833.991	25327
834.129	25377
834.267	25483
834.406	25403
834.544	25384
834.682	25472
834.821	25335
834.959	25632
835.097	25365
835.235	25495
835.373	25335
835.511	25354
835.65	25263
835.788	25343
835.926	25133
836.064	25057
836.202	25183
836.34	25179
836.478	25392
836.615	25202
836.753	25221
836.891	25407
837.029	25339
837.167	25190
837.305	25148
837.443	25198
837.58	24973
837.718	25141
837.856	25076
837.993	25015
838.131	24943
838.269	25012
838.406	25027
838.544	24890
838.681	24616
838.819	24555
838.956	24532
839.094	24479
839.231	24604
839.369	24677
839.506	24878
839.643	24646
839.781	24540
839.918	24547
840.055	24426
840.193	24441
840.33	24376
840.467	24505
840.604	24544
840.742	24692
840.879	24403
841.016	24300
841.153	24361
841.29	24483
841.427	24486
841.564	24399
841.701	24475
841.838	24232
841.975	24372
842.112	24319
842.249	24384
842.385	24182
842.522	24399
842.659	24308
842.796	24155
842.933	24136
843.069	24060
843.206	24163
843.343	24213
843.479	24144
843.616	24266
843.752	24030
843.889	23984
844.025	24079
844.162	23878
844.298	24106
844.435	23973
844.571	23908
844.708	24072
844.844	24022
844.98	24079
845.117	24007
845.253	23878
845.389	23904
845.525	23878
845.661	23722
845.798	23589
845.934	23722
846.07	23684
846.206	23707
846.342	23779
846.478	23710
846.614	23406
846.75	23376
846.886	23425
847.022	23452
847.158	23356
847.294	23444
847.429	23482
847.565	23391
847.701	23767
847.837	23128
847.972	23083
848.108	23307
848.244	23417
848.379	22923
848.515	23003
848.65	23003
848.786	22984
848.921	23121
849.057	23102
849.192	23044
849.328	23056
849.463	22900
849.598	22915
849.734	22953
849.869	22911
850.004	22691
850.14	22782
850.275	22721
850.41	22664
850.545	22653
850.68	22573
850.815	22721
850.95	22748
851.085	22991
851.22	22725
851.355	22774
851.49	22767
851.625	22656
851.76	22805
851.895	22752
852.03	22713
852.165	22778
852.299	22774
852.434	22839
852.569	22736
852.703	22748
852.838	22873
852.973	22889
853.107	22774
853.242	22733
853.376	22584
853.511	22531
853.645	22432
853.78	22675
853.914	22683
854.048	22504
854.183	22565
854.317	22615
854.451	22793
854.585	22622
854.72	22561
854.854	22778
854.988	22512
855.122	22516
855.256	22459
855.39	22485
855.524	22691
855.658	22557
855.792	22672
855.926	22622
856.06	22710
856.194	22645
856.327	22470
856.461	22557
856.595	22516
856.729	22542
856.862	22596
856.996	22641
857.13	22622
857.263	22554
857.397	22687
857.53	22637
857.664	22717
857.797	22641
857.931	22698
858.064	22721
858.197	22759
858.331	22596
858.464	22531
858.597	22516
858.731	22519
858.864	22459
858.997	22550
859.13	22599
859.263	22561
859.396	22782
859.529	22622
859.662	22573
859.795	22592
859.928	22432
860.061	22774
860.194	22809
860.327	22656
860.46	22596
860.592	22618
860.725	22729
860.858	22744
860.99	22557
861.123	22497
861.256	22538
861.388	22523
861.521	23231
861.653	22493
861.786	22436
861.918	22265
862.05	22428
862.183	22542
862.315	22527
862.447	22504
862.58	22443
862.712	22249
862.844	22204
862.976	22379
863.108	22268
863.24	22615
863.372	22257
863.504	22204
863.636	22344
863.768	22234
863.9	22371
864.032	22124
864.164	22337
864.296	22337
864.428	22432
864.559	22382
864.691	22428
864.823	22295
864.954	22303
865.086	22291
865.217	22211
865.349	22166
865.48	22204
865.612	22246
865.743	22322
865.875	22154
866.006	22101
866.137	22234
866.269	22230
866.4	22109
866.531	22032
866.662	22090
866.793	22147
866.924	22063
867.055	22158
867.186	22181
867.317	21998
867.448	21907
867.579	22059
867.71	22048
867.841	21934
867.972	22002
868.103	22139
868.233	22124
868.364	21991
868.495	22303
868.625	22322
868.756	22390
868.886	22284
869.017	22303
869.147	22341
869.278	22394
869.408	22402
869.539	22219
869.669	22405
869.799	22348
869.929	22360
870.06	22413
870.19	22672
870.32	22637
870.45	22736
870.58	22660
870.71	22744
870.84	22733
870.97	22748
871.1	22733
871.23	22927
871.36	22934
871.489	22664
871.619	22938
871.749	22930
871.879	22942
872.008	22999
872.138	22850
872.267	22869
872.397	22759
872.526	22668
872.656	22759
872.785	22580
872.915	22923
873.044	23029
873.173	22949
873.303	23079
873.432	23014
873.561	23105
873.69	22850
873.819	23010
873.948	22995
874.077	22934
874.206	22923
874.335	23029
874.464	23083
874.593	23223
874.722	23136
874.851	23151
874.979	23212
875.108	23143
875.237	23014
875.365	23067
875.494	23242
875.623	23159
875.751	23094
875.88	23193
876.008	23239
876.136	23315
876.265	23589
876.393	23722
876.521	23573
876.65	23627
876.778	23592
876.906	23509
877.034	23482
877.162	23505
877.29	23516
877.418	23520
877.546	23528
877.674	23520
877.802	23478
877.93	23478
878.058	23448
878.185	23444
878.313	23353
878.441	23402
878.568	23379
878.696	23486
878.824	23402
878.951	23471
879.079	23714
879.206	23813
879.333	23840
879.461	23478
879.588	23520
879.715	23691
879.842	23726
879.97	23615
880.097	23372
880.224	23463
880.351	23364
880.478	23391
880.605	23174
880.732	23334
880.859	23383
880.986	23235
881.112	23353
881.239	23143
881.366	23208
881.493	23029
881.619	22900
881.746	22961
881.872	22866
881.999	22805
882.125	22816
882.252	22942
882.378	22755
882.505	22927
882.631	22877
882.757	22656
882.883	22660
883.01	22607
883.136	22542
883.262	22382
883.388	22466
883.514	22569
883.64	22561
883.766	22481
883.892	22337
884.018	22356
884.143	22443
884.269	22554
884.395	22196
884.52	22166
884.646	22356
884.772	21892
884.897	22002
885.023	22093
885.148	22116
885.274	22265
885.399	22333
885.524	22196
885.65	22192
885.775	22272
885.9	22169
886.025	22356
886.15	22291
886.275	22105
886.4	21964
886.525	22032
886.65	22059
886.775	22044
886.9	22325
887.025	22386
887.149	21979
887.274	21983
887.399	21994
887.523	21941
887.648	21819
887.773	21911
887.897	22051
888.021	22067
888.146	21800
888.27	22013
888.395	22063
888.519	21861
888.643	21873
888.767	22032
888.891	21804
889.015	21675
889.139	21831
889.263	21755
889.387	21823
889.511	21869
889.635	21770
889.759	21747
889.883	21724
890.006	21831
890.13	21991
890.254	21751
890.377	21538
890.501	21545
890.624	21405
890.748	21667
890.871	21298
890.995	21310
891.118	21237
891.241	21424
891.364	21294
891.488	21348
891.611	21165
891.734	21264
891.857	21294
891.98	21302
892.103	21237
892.226	21249
892.349	21203
892.471	20933
892.594	21207
892.717	21287
892.839	21192
892.962	21142
893.085	21344
893.207	21119
893.33	21169
893.452	21100
893.575	21081
893.697	21024
893.819	21291
893.941	21351
894.064	21218
894.186	21173
894.308	21066
894.43	21233
894.552	21374
894.674	21302
894.796	20990
894.918	21085
895.04	21001
895.161	21169
895.283	21218
895.405	21039
895.526	21294
895.648	21138
895.769	21188
895.891	21184
896.012	21298
896.134	21119
896.255	21108
896.376	21089
896.498	21157
896.619	21233
896.74	21081
896.861	21230
896.982	21408
897.103	21519
897.224	21351
897.345	21348
897.466	21252
897.587	21511
897.708	21549
897.828	21321
897.949	21298
898.07	21230
898.19	21249
898.311	21393
898.431	21298
898.552	21405
898.672	21401
898.792	21340
898.913	21310
899.033	21332
899.153	21150
899.273	21070
899.393	21081
899.513	21146
899.633	21138
899.753	21070
899.873	21112
899.993	21108
900.113	21032
900.232	21104
900.352	20895
900.472	20838
900.591	20781
900.711	20819
900.83	20765
900.95	20914
901.069	20880
901.189	20762
901.308	20434
901.427	20385
901.546	20415
901.665	20461
901.784	20484
901.904	20206
902.023	20199
902.141	19928
902.26	20020
902.379	20122
902.498	19932
902.617	19807
902.735	19955
902.854	19769
902.973	19677
903.091	19552
903.21	19563
903.328	19567
903.446	19480
903.565	19327
903.683	19304
903.801	19251
903.919	19263
904.038	19289
904.156	19053
904.274	19259
904.392	19152
904.51	19118
904.627	19129
904.745	19168
904.863	19091
904.981	18958
905.098	18901
905.216	18772
905.334	18856
905.451	18772
905.569	18741
905.686	18798
905.803	18757
905.921	18620
906.038	18604
906.155	18631
906.272	18422
906.389	18509
906.506	18441
906.623	18441
906.74	18243
906.857	18266
906.974	18197
907.091	18441
907.208	18471
907.324	18369
907.441	18167
907.557	18072
907.674	18049
907.79	17916
907.907	18049
908.023	18060
908.139	18011
908.256	18007
908.372	17824
908.488	17874
908.604	17760
908.72	17627
908.836	17741
908.952	17764
909.068	17779
909.184	17813
909.3	17630
909.415	17779
909.531	17783
909.647	17547
909.762	17532
909.878	17493
909.993	17387
910.108	17246
910.224	17379
910.339	17318
910.454	17315
910.57	17239
910.685	17143
910.8	17421
910.915	17372
911.03	17277
911.145	17052
911.259	17067
911.374	17056
911.489	16991
911.604	16797
911.718	16748
911.833	16713
911.947	16748
912.062	16637
912.176	16691
912.291	16748
912.405	16812
912.519	16930
912.633	16980
912.748	16793
912.862	16691
912.976	16615
913.09	16512
913.204	16592
913.318	16443
913.431	16668
913.545	16611
913.659	16721
913.772	16519
913.886	16379
914	16447
914.113	16485
914.226	16497
914.34	16440
914.453	16234
914.566	16417
914.68	16265
914.793	16154
914.906	16017
915.019	15846
915.132	15838
915.245	15930
915.358	15968
915.47	15876
915.583	15926
915.696	15915
915.809	16147
915.921	16032
916.034	15945
916.146	15846
916.259	15781
916.371	15972
916.483	15865
916.595	15728
916.708	15644
916.82	15797
916.932	15679
917.044	15717
917.156	15644
917.268	15545
917.38	15625
917.491	15553
917.603	15564
917.715	15618
917.826	15587
917.938	15534
918.049	15370
918.161	15462
918.272	15614
918.384	15557
918.495	15545
918.606	15313
918.717	15241
918.828	15340
918.939	15268
919.05	15230
919.161	15256
919.272	15100
919.383	15169
919.494	15310
919.604	15378
919.715	15233
919.826	15138
919.936	15192
920.047	15408
920.157	15245
920.267	15378
920.378	15294
920.488	15180
920.598	15298
920.708	15511
920.818	15283
920.928	15336
921.038	15504
921.148	15477
921.258	15207
921.368	15074
921.477	15020
921.587	14933
921.697	14849
921.806	15013
921.916	14762
922.025	14739
922.134	14629
922.244	14518
922.353	14648
922.462	14503
922.571	14556
922.68	14298
922.789	14183
922.898	14317
923.007	14187
923.116	14218
923.224	14229
923.333	14248
923.442	14088
923.55	14073
923.659	14043
923.767	14081
923.876	14016
923.984	14035
924.092	13940
924.201	13963
924.309	14012
924.417	13940
924.525	13921
924.633	13947
924.741	14667
924.849	13712
924.956	13769
925.064	13624
925.172	13632
925.279	13537
925.387	13674
925.494	13632
925.602	13731
925.709	13715
925.816	13381
925.924	13537
926.031	13655
926.138	13476
926.245	13499
926.352	13400
926.459	13552
926.566	13567
926.673	13464
926.779	13358
926.886	13335
926.993	13133
927.099	13126
927.206	13145
927.312	13091
927.419	13133
927.525	13107
927.631	13202
927.737	12954
927.843	12913
927.95	12871
928.056	12970
928.162	13008
928.267	12951
928.373	13563
928.479	12993
928.585	12814
928.69	12821
928.796	12973
928.901	12833
929.007	12642
929.112	12848
929.218	12753
929.323	12738
929.428	12684
929.533	12768
929.638	12620
929.743	12448
929.848	12654
929.953	12635
930.058	12498
930.163	12270
930.267	12346
930.372	12471
930.477	12327
930.581	12623
930.685	12384
930.79	12201
930.894	12205
930.998	12121
931.103	12433
931.207	11984
931.311	11893
931.415	11847
931.519	11638
931.623	11528
