Data from test_V78500241_825.txt Node
Date: Fri Mar 25 15:47:30 CST 2022
User: usil
Spectrometer: V785-0024
Trigger mode: 0
Integration Time (sec): 4.000000E-1
Scans to average: 1
Nonlinearity correction enabled: false
Boxcar width: 0
Storing dark spectrum: false
XAxis mode: Wavelengths
Number of Pixels in Spectrum: 1024
>>>>>Begin Spectral Data<<<<<
801.071	27625
801.214	27625
801.356	27321
801.499	27260
801.641	27085
801.783	27230
801.926	27249
802.068	27176
802.211	27047
802.353	26982
802.496	26880
802.638	26891
802.78	26785
802.923	26807
803.065	26655
803.208	26823
803.35	26777
803.492	26944
803.635	26975
803.777	26902
803.919	26944
804.061	27351
804.204	27024
804.346	26940
804.488	26914
804.63	26906
804.773	26902
804.915	27093
805.057	27100
805.199	27131
805.341	27096
805.483	27165
805.626	27123
805.768	27036
805.91	26960
806.052	27184
806.194	27077
806.336	27226
806.478	27119
806.62	27104
806.762	27260
806.904	27279
807.046	27625
807.188	27549
807.33	27545
807.472	27633
807.614	27599
807.756	27454
807.898	27462
808.04	27313
808.182	27427
808.324	27382
808.465	27348
808.607	27606
808.749	27717
808.891	27823
809.033	27911
809.174	27793
809.316	27705
809.458	27751
809.6	27835
809.741	27876
809.883	27865
810.025	28082
810.166	28082
810.308	27953
810.45	27991
810.591	27975
810.733	27762
810.875	27648
811.016	27625
811.158	27720
811.299	28013
811.441	27934
811.582	27823
811.724	27770
811.865	27701
812.007	27838
812.148	27937
812.29	27781
812.431	28063
812.573	28158
812.714	28135
812.855	28360
812.997	28516
813.138	28561
813.279	28394
813.421	28436
813.562	28196
813.703	28040
813.845	28074
813.986	27800
814.127	27641
814.268	27427
814.41	27427
814.551	27355
814.692	27519
814.833	27424
814.974	27348
815.115	27408
815.256	27393
815.397	27214
815.539	27268
815.68	27157
815.821	27135
815.962	27176
816.103	27142
816.244	27165
816.385	27100
816.526	26975
816.666	26853
816.807	26735
816.948	26788
817.089	26861
817.23	26777
817.371	26758
817.512	26693
817.653	26746
817.793	26651
817.934	26648
818.075	26659
818.216	26861
818.356	26765
818.497	26644
818.638	26492
818.778	26431
818.919	26408
819.06	26667
819.2	26617
819.341	26796
819.481	26788
819.622	26971
819.762	27013
819.903	27020
820.043	27013
820.184	26746
820.324	26853
820.465	26914
820.605	26861
820.746	26845
820.886	26655
821.026	26823
821.167	26773
821.307	26891
821.447	26697
821.588	26716
821.728	26583
821.868	26336
822.008	26317
822.149	26138
822.289	26286
822.429	25879
822.569	25917
822.709	25818
822.849	25799
822.99	25734
823.13	25639
823.27	25742
823.41	25609
823.55	25491
823.69	25616
823.83	25578
823.97	25506
824.11	25343
824.25	25259
824.389	25392
824.529	25449
824.669	25244
824.809	25400
824.949	25487
825.089	25495
825.228	25426
825.368	25362
825.508	25266
825.648	25384
825.787	25304
825.927	25373
826.067	25209
826.206	25293
826.346	25263
826.485	25198
826.625	25293
826.765	25403
826.904	25274
827.044	25069
827.183	25107
827.323	24935
827.462	24939
827.601	24894
827.741	24962
827.88	25061
828.02	24848
828.159	24958
828.298	24859
828.437	25027
828.577	24909
828.716	25019
828.855	24840
828.994	24642
829.134	24620
829.273	24631
829.412	24631
829.551	24494
829.69	24722
829.829	24612
829.968	24798
830.107	24684
830.246	24585
830.385	24612
830.524	24464
830.663	24604
830.802	24338
830.941	24102
831.08	24292
831.219	24296
831.357	24311
831.496	24418
831.635	24319
831.774	24110
831.913	24106
832.051	24076
832.19	24079
832.329	24136
832.467	23786
832.606	23897
832.744	23885
832.883	23824
833.022	23878
833.16	23984
833.299	23912
833.437	23897
833.576	24060
833.714	23984
833.852	23958
833.991	23954
834.129	24083
834.267	24083
834.406	24038
834.544	24030
834.682	23999
834.821	23977
834.959	24041
835.097	24018
835.235	23843
835.373	23969
835.511	23885
835.65	23859
835.788	23901
835.926	23722
836.064	23528
836.202	23684
836.34	23813
836.478	23916
836.615	23745
836.753	23874
836.891	23946
837.029	23714
837.167	23760
837.305	23665
837.443	23592
837.58	23661
837.718	23760
837.856	23638
837.993	23528
838.131	23562
838.269	23528
838.406	23600
838.544	23619
838.681	23322
838.819	23170
838.956	23136
839.094	23113
839.231	23220
839.369	23349
839.506	23478
839.643	23429
839.781	23113
839.918	22980
840.055	23006
840.193	23170
840.33	23060
840.467	23060
840.604	23136
840.742	23349
840.879	22968
841.016	22896
841.153	22938
841.29	23178
841.427	23033
841.564	23086
841.701	23022
841.838	22965
841.975	23018
842.112	22911
842.249	22706
842.385	22736
842.522	23003
842.659	22816
842.796	22729
842.933	22694
843.069	22820
843.206	22630
843.343	22774
843.479	22957
843.616	22786
843.752	22599
843.889	22580
844.025	22641
844.162	22546
844.298	22611
844.435	22580
844.571	22508
844.708	22618
844.844	22660
844.98	22615
845.117	22656
845.253	22421
845.389	22333
845.525	22519
845.661	22375
845.798	22246
845.934	22344
846.07	22238
846.206	22230
846.342	22386
846.478	22284
846.614	22204
846.75	21983
846.886	22010
847.022	22173
847.158	22078
847.294	22021
847.429	22055
847.565	22063
847.701	22318
847.837	21797
847.972	21701
848.108	21854
848.244	21766
848.379	21709
848.515	21641
848.65	21591
848.786	21724
848.921	21705
849.057	21660
849.192	21728
849.328	21656
849.463	21656
849.598	21515
849.734	21564
849.869	21538
850.004	21408
850.14	21435
850.275	21408
850.41	21367
850.545	21382
850.68	21321
850.815	21420
850.95	21378
851.085	21500
851.22	21511
851.355	21348
851.49	21351
851.625	21249
851.76	21374
851.895	21203
852.03	21336
852.165	21386
852.299	21523
852.434	21504
852.569	21378
852.703	21458
852.838	21370
852.973	21519
853.107	21500
853.242	21317
853.376	21355
853.511	21013
853.645	21249
853.78	21230
853.914	21306
854.048	21142
854.183	21195
854.317	21260
854.451	21283
854.585	21165
854.72	21199
854.854	21241
854.988	21188
855.122	21256
855.256	21108
855.39	21192
855.524	21127
855.658	21222
855.792	21195
855.926	21252
856.06	21211
856.194	21355
856.327	21283
856.461	21096
856.595	21169
856.729	21329
856.862	21348
856.996	21211
857.13	21173
857.263	21382
857.397	21363
857.53	21192
857.664	21214
857.797	21325
857.931	21313
858.064	21272
858.197	21348
858.331	21211
858.464	21203
858.597	21058
858.731	21127
858.864	21135
858.997	21272
859.13	21169
859.263	21313
859.396	21287
859.529	21146
859.662	21195
859.795	21207
859.928	21306
860.061	21348
860.194	21428
860.327	21222
860.46	21150
860.592	21344
860.725	21405
860.858	21332
860.99	21169
861.123	21085
861.256	21070
861.388	21207
861.521	21873
861.653	21081
861.786	21058
861.918	20975
862.05	21104
862.183	21161
862.315	21203
862.447	21272
862.58	21150
862.712	20910
862.844	20781
862.976	21009
863.108	20872
863.24	21397
863.372	20853
863.504	20902
863.636	21005
863.768	20910
863.9	21043
864.032	20842
864.164	20811
864.296	21020
864.428	20925
864.559	21005
864.691	20990
864.823	20941
864.954	20864
865.086	20921
865.217	20826
865.349	20845
865.48	20765
865.612	20887
865.743	21085
865.875	20830
866.006	20739
866.137	20811
866.269	20811
866.4	20815
866.531	20724
866.662	20750
866.793	20659
866.924	20743
867.055	20746
867.186	20636
867.317	20724
867.448	20670
867.579	20739
867.71	20727
867.841	20716
867.972	20731
868.103	20754
868.233	20727
868.364	20849
868.495	20929
868.625	21032
868.756	21066
868.886	20891
869.017	21150
869.147	21146
869.278	21043
869.408	20975
869.539	20937
869.669	21043
869.799	20979
869.929	21169
870.06	21005
870.19	21389
870.32	21439
870.45	21416
870.58	21359
870.71	21488
870.84	21564
870.97	21450
871.1	21332
871.23	21591
871.36	21663
871.489	21682
871.619	21572
871.749	21587
871.879	21713
872.008	21656
872.138	21663
872.267	21629
872.397	21447
872.526	21481
872.656	21412
872.785	21329
872.915	21534
873.044	21739
873.173	21667
873.303	21705
873.432	21641
873.561	21618
873.69	21656
873.819	21572
873.948	21789
874.077	21603
874.206	21595
874.335	21568
874.464	21648
874.593	21861
874.722	21785
874.851	21861
874.979	21793
875.108	21899
875.237	21884
875.365	21755
875.494	21747
875.623	21876
875.751	21736
875.88	21968
876.008	22074
876.136	22105
876.265	22185
876.393	22398
876.521	22268
876.65	22306
876.778	22105
876.906	22276
877.034	22154
877.162	22230
877.29	22150
877.418	22173
877.546	22116
877.674	22215
877.802	22211
877.93	22230
878.058	22158
878.185	21960
878.313	22246
878.441	22181
878.568	22078
878.696	22074
878.824	22253
878.951	22226
879.079	22310
879.206	22561
879.333	22246
879.461	22169
879.588	22219
879.715	22367
879.842	22500
879.97	22284
880.097	22051
880.224	21979
880.351	22048
880.478	22017
880.605	22017
880.732	21960
880.859	22352
880.986	21979
881.112	22048
881.239	21819
881.366	21743
881.493	21728
881.619	21652
881.746	21675
881.872	21572
881.999	21576
882.125	21481
882.252	21595
882.378	21557
882.505	21675
882.631	21454
882.757	21317
882.883	21420
883.01	21249
883.136	21310
883.262	21154
883.388	21055
883.514	21275
883.64	21321
883.766	21195
883.892	21100
884.018	21104
884.143	21211
884.269	21199
884.395	21157
884.52	20998
884.646	20937
884.772	20785
884.897	20880
885.023	20891
885.148	21024
885.274	21032
885.399	20971
885.524	21001
885.65	20918
885.775	20963
885.9	20883
886.025	21032
886.15	21081
886.275	20910
886.4	20880
886.525	20834
886.65	20910
886.775	20891
886.9	21043
887.025	21298
887.149	20811
887.274	20735
887.399	20762
887.523	20674
887.648	20644
887.773	20530
887.897	20727
888.021	20727
888.146	20651
888.27	20792
888.395	20853
888.519	20815
888.643	20785
888.767	20796
888.891	20594
889.015	20598
889.139	20431
889.263	20480
889.387	20564
889.511	20754
889.635	20568
889.759	20492
889.883	20499
890.006	20621
890.13	20560
890.254	20415
890.377	20457
890.501	20317
890.624	20221
890.748	20434
890.871	20122
890.995	20073
891.118	20050
891.241	20164
891.364	20001
891.488	20107
891.611	20157
891.734	20027
891.857	20157
891.98	20008
892.103	20065
892.226	20092
892.349	20024
892.471	19913
892.594	20020
892.717	19875
892.839	20020
892.962	19940
893.085	20191
893.207	19936
893.33	19913
893.452	19860
893.575	20008
893.697	19849
893.819	20130
893.941	20202
894.064	20176
894.186	19978
894.308	19986
894.43	20138
894.552	20202
894.674	20069
894.796	19856
894.918	20008
895.04	19917
895.161	20012
895.283	19989
895.405	20035
895.526	19959
895.648	19940
895.769	19947
895.891	19955
896.012	20096
896.134	20088
896.255	20024
896.376	19894
896.498	20012
896.619	20046
896.74	19993
896.861	20065
896.982	20259
897.103	20461
897.224	20343
897.345	20202
897.466	20187
897.587	20225
897.708	20370
897.828	20164
897.949	20103
898.07	19921
898.19	20218
898.311	20199
898.431	20077
898.552	20210
898.672	20374
898.792	20298
898.913	20267
899.033	20199
899.153	20062
899.273	19909
899.393	19970
899.513	19970
899.633	19875
899.753	19902
899.873	19864
899.993	20062
900.113	19868
900.232	19841
900.352	19890
900.472	19814
900.591	19620
900.711	19803
900.83	19799
900.95	19814
901.069	19784
901.189	19681
901.308	19483
901.427	19419
901.546	19324
901.665	19324
901.784	19419
901.904	19316
902.023	19012
902.141	18928
902.26	18878
902.379	18935
902.498	18859
902.617	18745
902.735	18871
902.854	18833
902.973	18833
903.091	18479
903.21	18479
903.328	18544
903.446	18437
903.565	18357
903.683	18304
903.801	18342
903.919	18346
904.038	18270
904.156	18102
904.274	18178
904.392	18110
904.51	18041
904.627	17980
904.745	18133
904.863	18091
904.981	17954
905.098	17764
905.216	17737
905.334	17828
905.451	17745
905.569	17779
905.686	17821
905.803	17710
905.921	17547
906.038	17581
906.155	17608
906.272	17391
906.389	17417
906.506	17379
906.623	17421
906.74	17315
906.857	17200
906.974	17197
907.091	17337
907.208	17440
907.324	17326
907.441	17273
907.557	17067
907.674	16972
907.79	16930
907.907	16957
908.023	17132
908.139	17067
908.256	17060
908.372	16805
908.488	16949
908.604	16774
908.72	16702
908.836	16710
908.952	16809
909.068	16736
909.184	16797
909.3	16569
909.415	16584
909.531	16755
909.647	16451
909.762	16466
909.878	16493
909.993	16485
910.108	16485
910.224	16382
910.339	16424
910.454	16261
910.57	16219
910.685	16253
910.8	16504
910.915	16481
911.03	16234
911.145	16128
911.259	16074
911.374	16101
911.489	16048
911.604	15930
911.718	15819
911.833	15759
911.947	15732
912.062	15637
912.176	15827
912.291	15747
912.405	15892
912.519	15949
912.633	15998
912.748	15808
912.862	15857
912.976	15591
913.09	15469
913.204	15580
913.318	15591
913.431	15663
913.545	15679
913.659	15713
913.772	15523
913.886	15378
914	15420
914.113	15526
914.226	15557
914.34	15355
914.453	15382
914.566	15412
914.68	15454
914.793	15298
914.906	15123
915.019	15032
915.132	15001
915.245	14933
915.358	14982
915.47	15028
915.583	15066
915.696	15097
915.809	15112
915.921	15093
916.034	14944
916.146	14887
916.259	14944
916.371	15093
916.483	14944
916.595	14823
916.708	14826
916.82	14724
916.932	14781
917.044	14758
917.156	14758
917.268	14697
917.38	14857
917.491	14636
917.603	14644
917.715	14781
917.826	14735
917.938	14613
918.049	14590
918.161	14602
918.272	14754
918.384	14667
918.495	14659
918.606	14461
918.717	14408
918.828	14465
918.939	14457
919.05	14377
919.161	14400
919.272	14233
919.383	14305
919.494	14461
919.604	14648
919.715	14488
919.826	14320
919.936	14419
920.047	14480
920.157	14358
920.267	14602
920.378	14377
920.488	14419
920.598	14602
920.708	14746
920.818	14545
920.928	14575
921.038	14579
921.148	14613
921.258	14351
921.368	14252
921.477	14142
921.587	14111
921.697	14050
921.806	14225
921.916	13917
922.025	13784
922.134	13780
922.244	13822
922.353	13868
922.462	13677
922.571	13639
922.68	13384
922.789	13464
922.898	13460
923.007	13324
923.116	13468
923.224	13460
923.333	13324
923.442	13263
923.55	13251
923.659	13232
923.767	13388
923.876	13183
923.984	13247
924.092	13206
924.201	13213
924.309	13209
924.417	13198
924.525	13133
924.633	13152
924.741	14031
924.849	12916
924.956	13076
925.064	12909
925.172	12856
925.279	12844
925.387	12897
925.494	12852
925.602	12954
925.709	12886
925.816	12802
925.924	12882
926.031	12817
926.138	12787
926.245	12859
926.352	12726
926.459	12772
926.566	12909
926.673	12840
926.779	12627
926.886	12627
926.993	12506
927.099	12403
927.206	12304
927.312	12350
927.419	12475
927.525	12448
927.631	12551
927.737	12403
927.843	12384
927.95	12129
928.056	12167
928.162	12224
928.267	12277
928.373	12882
928.479	12308
928.585	12011
928.69	12270
928.796	12216
928.901	12110
929.007	11999
929.112	12140
929.218	12064
929.323	11969
929.428	11969
929.533	12125
929.638	11817
929.743	11805
929.848	11961
929.953	11923
930.058	11840
930.163	11649
930.267	11798
930.372	11813
930.477	11604
930.581	11817
930.685	11649
930.79	11611
930.894	11524
930.998	11505
931.103	11634
931.207	11307
931.311	11242
931.415	11151
931.519	10843
931.623	10908
