Data from test_V78500241_2180.txt Node
Date: Fri Mar 25 15:56:54 CST 2022
User: usil
Spectrometer: V785-0024
Trigger mode: 0
Integration Time (sec): 4.000000E-1
Scans to average: 1
Nonlinearity correction enabled: false
Boxcar width: 0
Storing dark spectrum: false
XAxis mode: Wavelengths
Number of Pixels in Spectrum: 1024
>>>>>Begin Spectral Data<<<<<
801.071	28782
801.214	28923
801.356	28603
801.499	28455
801.641	28451
801.783	28413
801.926	28474
802.068	28504
802.211	28337
802.353	28295
802.496	28097
802.638	28177
802.78	28105
802.923	28093
803.065	27956
803.208	28128
803.35	28185
803.492	28204
803.635	28272
803.777	28249
803.919	28466
804.061	28637
804.204	28284
804.346	28390
804.488	28367
804.63	28405
804.773	28375
804.915	28409
805.057	28592
805.199	28375
805.341	28443
805.483	28424
805.626	28459
805.768	28413
805.91	28615
806.052	28634
806.194	28580
806.336	28706
806.478	28694
806.62	28470
806.762	28596
806.904	28866
807.046	29197
807.188	29090
807.33	29003
807.472	29109
807.614	28965
807.756	29056
807.898	28839
808.04	28763
808.182	28717
808.324	28778
808.465	29003
808.607	29044
808.749	29356
808.891	29315
809.033	29471
809.174	29246
809.316	29242
809.458	29326
809.6	29208
809.741	29330
809.883	29341
810.025	29467
810.166	29516
810.308	29672
810.45	29455
810.591	29520
810.733	29212
810.875	29273
811.016	29140
811.158	29140
811.299	29326
811.441	29315
811.582	29322
811.724	29261
811.865	29083
812.007	29143
812.148	29178
812.29	29322
812.431	29368
812.573	29649
812.714	29729
812.855	29668
812.997	29840
813.138	30133
813.279	29855
813.421	29710
813.562	29718
813.703	29627
813.845	29414
813.986	29261
814.127	29064
814.268	28881
814.41	29090
814.551	29056
814.692	29018
814.833	29117
814.974	28942
815.115	29014
815.256	28991
815.397	28873
815.539	28839
815.68	28767
815.821	28557
815.962	28820
816.103	28828
816.244	28710
816.385	28489
816.526	28649
816.666	28394
816.807	28363
816.948	28360
817.089	28417
817.23	28257
817.371	28519
817.512	28272
817.653	28162
817.793	28238
817.934	28272
818.075	28242
818.216	28238
818.356	28116
818.497	28048
818.638	27979
818.778	28044
818.919	28013
819.06	28101
819.2	28109
819.341	28162
819.481	28257
819.622	28447
819.762	28611
819.903	28561
820.043	28413
820.184	28500
820.324	28363
820.465	28493
820.605	28356
820.746	28249
820.886	28261
821.026	28356
821.167	28322
821.307	28341
821.447	28314
821.588	28158
821.728	28013
821.868	28032
822.008	27747
822.149	27770
822.289	27713
822.429	27504
822.569	27477
822.709	27359
822.849	27310
822.99	27268
823.13	27252
823.27	27157
823.41	27043
823.55	27020
823.69	27058
823.83	27096
823.97	27119
824.11	26845
824.25	26872
824.389	26842
824.529	27085
824.669	27001
824.809	26910
824.949	27055
825.089	26979
825.228	27047
825.368	26819
825.508	26705
825.648	26731
825.787	26796
825.927	26952
826.067	26773
826.206	26800
826.346	26868
826.485	26811
826.625	26872
826.765	27001
826.904	26845
827.044	26636
827.183	26438
827.323	26465
827.462	26693
827.601	26575
827.741	26590
827.88	26602
828.02	26362
828.159	26419
828.298	26484
828.437	26655
828.577	26393
828.716	26571
828.855	26370
828.994	26381
829.134	26237
829.273	26225
829.412	26229
829.551	26271
829.69	26214
829.829	26126
829.968	26309
830.107	26328
830.246	26309
830.385	26115
830.524	26119
830.663	26024
830.802	25909
830.941	25704
831.08	25799
831.219	25849
831.357	26020
831.496	26046
831.635	25780
831.774	25639
831.913	25715
832.051	25651
832.19	25514
832.329	25639
832.467	25411
832.606	25434
832.744	25460
832.883	25453
833.022	25297
833.16	25411
833.299	25601
833.437	25472
833.576	25700
833.714	25445
833.852	25674
833.991	25655
834.129	25605
834.267	25556
834.406	25552
834.544	25677
834.682	25445
834.821	25521
834.959	25624
835.097	25582
835.235	25658
835.373	25506
835.511	25453
835.65	25396
835.788	25369
835.926	25350
836.064	25179
836.202	25187
836.34	25320
836.478	25324
836.615	25384
836.753	25343
836.891	25464
837.029	25502
837.167	25282
837.305	25209
837.443	25316
837.58	25285
837.718	25335
837.856	25225
837.993	25152
838.131	25088
838.269	24958
838.406	25194
838.544	25012
838.681	24916
838.819	24970
838.956	24757
839.094	24570
839.231	24688
839.369	24878
839.506	25000
839.643	24901
839.781	24505
839.918	24547
840.055	24791
840.193	24532
840.33	24570
840.467	24494
840.604	24486
840.742	24829
840.879	24399
841.016	24597
841.153	24486
841.29	24574
841.427	24574
841.564	24547
841.701	24589
841.838	24525
841.975	24502
842.112	24384
842.249	24388
842.385	24372
842.522	24464
842.659	24357
842.796	24456
842.933	24346
843.069	24190
843.206	24209
843.343	24357
843.479	24262
843.616	24304
843.752	24159
843.889	24079
844.025	24319
844.162	23980
844.298	24205
844.435	24083
844.571	24155
844.708	24038
844.844	24232
844.98	24273
845.117	24197
845.253	24079
845.389	23912
845.525	24003
845.661	24030
845.798	23783
845.934	23855
846.07	23707
846.206	23737
846.342	23958
846.478	23817
846.614	23600
846.75	23493
846.886	23566
847.022	23642
847.158	23596
847.294	23505
847.429	23512
847.565	23551
847.701	23752
847.837	23364
847.972	23349
848.108	23372
848.244	23220
848.379	23239
848.515	23060
848.65	23159
848.786	23071
848.921	23162
849.057	23239
849.192	23102
849.328	23056
849.463	23098
849.598	23094
849.734	23136
849.869	22824
850.004	22816
850.14	22828
850.275	22713
850.41	22786
850.545	22847
850.68	22942
850.815	22889
850.95	22923
851.085	23109
851.22	22980
851.355	22919
851.49	22816
851.625	22987
851.76	22889
851.895	22805
852.03	22790
852.165	22805
852.299	22949
852.434	22949
852.569	22885
852.703	22843
852.838	22919
852.973	22900
853.107	22961
853.242	22710
853.376	22744
853.511	22519
853.645	22630
853.78	22805
853.914	22778
854.048	22713
854.183	22637
854.317	22672
854.451	22885
854.585	22691
854.72	22752
854.854	22736
854.988	22694
855.122	22733
855.256	22641
855.39	22744
855.524	22824
855.658	22820
855.792	22698
855.926	22584
856.06	22679
856.194	22797
856.327	22664
856.461	22588
856.595	22725
856.729	22698
856.862	22904
856.996	22725
857.13	22767
857.263	22877
857.397	22786
857.53	22672
857.664	22824
857.797	22596
857.931	22885
858.064	22702
858.197	22835
858.331	22672
858.464	22713
858.597	22573
858.731	22771
858.864	22626
858.997	22542
859.13	22672
859.263	22717
859.396	22679
859.529	22630
859.662	22668
859.795	22603
859.928	22622
860.061	22790
860.194	22923
860.327	22790
860.46	22634
860.592	22786
860.725	22854
860.858	22828
860.99	22713
861.123	22611
861.256	22656
861.388	22645
861.521	23330
861.653	22516
861.786	22611
861.918	22523
862.05	22424
862.183	22706
862.315	22694
862.447	22660
862.58	22573
862.712	22424
862.844	22333
862.976	22721
863.108	22580
863.24	22877
863.372	22405
863.504	22462
863.636	22394
863.768	22478
863.9	22341
864.032	22341
864.164	22485
864.296	22363
864.428	22546
864.559	22363
864.691	22538
864.823	22371
864.954	22375
865.086	22390
865.217	22291
865.349	22265
865.48	22211
865.612	22223
865.743	22409
865.875	22394
866.006	22249
866.137	22299
866.269	22303
866.4	22238
866.531	22120
866.662	22249
866.793	22177
866.924	22112
867.055	22242
867.186	22280
867.317	22162
867.448	22154
867.579	22204
867.71	22086
867.841	22154
867.972	22207
868.103	22234
868.233	22147
868.364	22234
868.495	22344
868.625	22527
868.756	22428
868.886	22367
869.017	22371
869.147	22470
869.278	22512
869.408	22504
869.539	22344
869.669	22462
869.799	22432
869.929	22630
870.06	22588
870.19	22729
870.32	22797
870.45	22748
870.58	22801
870.71	22824
870.84	23037
870.97	22759
871.1	22706
871.23	22995
871.36	23124
871.489	22869
871.619	23041
871.749	23052
871.879	23060
872.008	23090
872.138	23098
872.267	23041
872.397	23056
872.526	22801
872.656	22938
872.785	22847
872.915	23010
873.044	23136
873.173	23117
873.303	23151
873.432	23246
873.561	23162
873.69	23067
873.819	23037
873.948	23090
874.077	22968
874.206	23094
874.335	23140
874.464	23086
874.593	23227
874.722	23265
874.851	23151
874.979	23395
875.108	23345
875.237	23337
875.365	23235
875.494	23102
875.623	23345
875.751	23261
875.88	23383
876.008	23364
876.136	23444
876.265	23623
876.393	23687
876.521	23828
876.65	23585
876.778	23619
876.906	23661
877.034	23558
877.162	23680
877.29	23562
877.418	23577
877.546	23604
877.674	23592
877.802	23646
877.93	23649
878.058	23425
878.185	23417
878.313	23490
878.441	23684
878.568	23444
878.696	23516
878.824	23501
878.951	23634
879.079	23726
879.206	23824
879.333	23707
879.461	23649
879.588	23840
879.715	23737
879.842	23885
879.97	23653
880.097	23452
880.224	23391
880.351	23554
880.478	23436
880.605	23429
880.732	23421
880.859	23710
880.986	23448
881.112	23395
881.239	23102
881.366	23185
881.493	23018
881.619	23044
881.746	23025
881.872	22938
881.999	23018
882.125	22938
882.252	23056
882.378	22942
882.505	23075
882.631	22873
882.757	22637
882.883	22630
883.01	22691
883.136	22683
883.262	22493
883.388	22523
883.514	22626
883.64	22626
883.766	22592
883.892	22462
884.018	22474
884.143	22660
884.269	22546
884.395	22379
884.52	22200
884.646	22363
884.772	22147
884.897	22310
885.023	22318
885.148	22272
885.274	22523
885.399	22348
885.524	22230
885.65	22291
885.775	22322
885.9	22223
886.025	22306
886.15	22352
886.275	22303
886.4	22169
886.525	22363
886.65	22181
886.775	22196
886.9	22284
887.025	22512
887.149	22211
887.274	22112
887.399	22211
887.523	22101
887.648	21991
887.773	22044
887.897	22040
888.021	22040
888.146	21964
888.27	22086
888.395	22070
888.519	22109
888.643	22143
888.767	21949
888.891	21937
889.015	21880
889.139	21759
889.263	21869
889.387	21949
889.511	22112
889.635	21949
889.759	21770
889.883	21701
890.006	21785
890.13	21979
890.254	21812
890.377	21622
890.501	21603
890.624	21629
890.748	21629
890.871	21576
890.995	21416
891.118	21405
891.241	21351
891.364	21348
891.488	21538
891.611	21397
891.734	21405
891.857	21416
891.98	21408
892.103	21477
892.226	21412
892.349	21310
892.471	21260
892.594	21195
892.717	21313
892.839	21298
892.962	21165
893.085	21325
893.207	21275
893.33	21123
893.452	21138
893.575	21302
893.697	21325
893.819	21393
893.941	21492
894.064	21321
894.186	21192
894.308	21283
894.43	21405
894.552	21294
894.674	21298
894.796	21150
894.918	21184
895.04	21154
895.161	21249
895.283	21184
895.405	21150
895.526	21230
895.648	21089
895.769	21252
895.891	21412
896.012	21393
896.134	21131
896.255	21146
896.376	21264
896.498	21283
896.619	21302
896.74	21378
896.861	21389
896.982	21553
897.103	21572
897.224	21435
897.345	21534
897.466	21382
897.587	21500
897.708	21561
897.828	21462
897.949	21389
898.07	21192
898.19	21428
898.311	21447
898.431	21294
898.552	21382
898.672	21625
898.792	21492
898.913	21370
899.033	21321
899.153	21374
899.273	21165
899.393	21043
899.513	21157
899.633	21161
899.753	21188
899.873	21146
899.993	21108
900.113	21005
900.232	21146
900.352	21051
900.472	20899
900.591	20952
900.711	20906
900.83	20876
900.95	21001
901.069	20998
901.189	20758
901.308	20484
901.427	20404
901.546	20469
901.665	20564
901.784	20575
901.904	20355
902.023	20256
902.141	20115
902.26	20043
902.379	20050
902.498	19970
902.617	19993
902.735	19986
902.854	19898
902.973	19921
903.091	19670
903.21	19674
903.328	19597
903.446	19510
903.565	19441
903.683	19449
903.801	19331
903.919	19430
904.038	19377
904.156	19164
904.274	19194
904.392	19240
904.51	19171
904.627	19164
904.745	19304
904.863	19270
904.981	18916
905.098	18916
905.216	18856
905.334	18859
905.451	18848
905.569	18901
905.686	18821
905.803	18928
905.921	18692
906.038	18715
906.155	18631
906.272	18604
906.389	18578
906.506	18418
906.623	18445
906.74	18289
906.857	18357
906.974	18338
907.091	18452
907.208	18456
907.324	18433
907.441	18308
907.557	18038
907.674	18106
907.79	18026
907.907	18064
908.023	18167
908.139	18133
908.256	18038
908.372	17988
908.488	17847
908.604	17885
908.72	17874
908.836	17805
908.952	17847
909.068	17760
909.184	17874
909.3	17821
909.415	17821
909.531	17863
909.647	17558
909.762	17478
909.878	17425
909.993	17524
910.108	17501
910.224	17524
910.339	17417
910.454	17372
910.57	17223
910.685	17235
910.8	17539
910.915	17444
911.03	17318
911.145	17200
911.259	17178
911.374	17124
911.489	17014
911.604	16919
911.718	16900
911.833	16877
911.947	16729
912.062	16706
912.176	16858
912.291	16889
912.405	16850
912.519	16980
912.633	16980
912.748	16881
912.862	16752
912.976	16653
913.09	16565
913.204	16550
913.318	16615
913.431	16691
913.545	16733
913.659	16634
913.772	16573
913.886	16462
914	16329
914.113	16504
914.226	16599
914.34	16523
914.453	16295
914.566	16436
914.68	16306
914.793	16223
914.906	16105
915.019	16059
915.132	15953
915.245	15979
915.358	16044
915.47	15945
915.583	16010
915.696	16071
915.809	16097
915.921	16006
916.034	15831
916.146	15762
916.259	15854
916.371	16017
916.483	15953
916.595	15850
916.708	15800
916.82	15838
916.932	15736
917.044	15800
917.156	15759
917.268	15732
917.38	15625
917.491	15545
917.603	15728
917.715	15599
917.826	15694
917.938	15515
918.049	15378
918.161	15511
918.272	15766
918.384	15614
918.495	15553
918.606	15389
918.717	15363
918.828	15291
918.939	15313
919.05	15199
919.161	15294
919.272	15089
919.383	15264
919.494	15488
919.604	15549
919.715	15382
919.826	15127
919.936	15302
920.047	15302
920.157	15291
920.267	15488
920.378	15313
920.488	15237
920.598	15355
920.708	15530
920.818	15408
920.928	15363
921.038	15591
921.148	15462
921.258	15188
921.368	15123
921.477	15028
921.587	14956
921.697	14906
921.806	14994
921.916	14937
922.025	14754
922.134	14678
922.244	14568
922.353	14712
922.462	14575
922.571	14358
922.68	14404
922.789	14259
922.898	14240
923.007	14263
923.116	14259
923.224	14218
923.333	14180
923.442	14180
923.55	14088
923.659	14225
923.767	14233
923.876	14058
923.984	14149
924.092	13970
924.201	14043
924.309	14012
924.417	13951
924.525	13936
924.633	13993
924.741	14632
924.849	13723
924.956	13898
925.064	13685
925.172	13613
925.279	13704
925.387	13712
925.494	13616
925.602	13803
925.709	13738
925.816	13537
925.924	13662
926.031	13628
926.138	13586
926.245	13681
926.352	13491
926.459	13639
926.566	13575
926.673	13514
926.779	13384
926.886	13480
926.993	13263
927.099	13213
927.206	13145
927.312	13160
927.419	13225
927.525	13145
927.631	13122
927.737	13034
927.843	13034
927.95	12829
928.056	12993
928.162	13008
928.267	13084
928.373	13655
928.479	13122
928.585	12825
928.69	12970
928.796	13000
928.901	12848
929.007	12760
929.112	12913
929.218	12840
929.323	12840
929.428	12760
929.533	12791
929.638	12662
929.743	12707
929.848	12779
929.953	12627
930.058	12494
930.163	12467
930.267	12315
930.372	12597
930.477	12365
930.581	12536
930.685	12407
930.79	12315
930.894	12327
930.998	12251
931.103	12376
931.207	11988
931.311	11821
931.415	11874
931.519	11615
931.623	11558
