Data from test_V78500241_2481.txt Node
Date: Fri Mar 25 15:58:59 CST 2022
User: usil
Spectrometer: V785-0024
Trigger mode: 0
Integration Time (sec): 4.000000E-1
Scans to average: 1
Nonlinearity correction enabled: false
Boxcar width: 0
Storing dark spectrum: false
XAxis mode: Wavelengths
Number of Pixels in Spectrum: 1024
>>>>>Begin Spectral Data<<<<<
801.071	28150
801.214	28238
801.356	27937
801.499	27846
801.641	27861
801.783	27842
801.926	27975
802.068	27713
802.211	27759
802.353	27625
802.496	27523
802.638	27435
802.78	27351
802.923	27424
803.065	27287
803.208	27370
803.35	27401
803.492	27622
803.635	27804
803.777	27530
803.919	27618
804.061	27895
804.204	27804
804.346	27633
804.488	27591
804.63	27675
804.773	27606
804.915	27625
805.057	27778
805.199	27652
805.341	27762
805.483	27774
805.626	27762
805.768	27698
805.91	27823
806.052	27804
806.194	27675
806.336	27964
806.478	27865
806.62	27895
806.762	27934
806.904	28131
807.046	28337
807.188	28204
807.33	28238
807.472	28398
807.614	28299
807.756	28192
807.898	28090
808.04	28147
808.182	27918
808.324	28093
808.465	28143
808.607	28386
808.749	28371
808.891	28497
809.033	28656
809.174	28516
809.316	28329
809.458	28504
809.6	28459
809.741	28561
809.883	28546
810.025	28824
810.166	28812
810.308	28752
810.45	28729
810.591	28592
810.733	28672
810.875	28398
811.016	28238
811.158	28257
811.299	28664
811.441	28580
811.582	28500
811.724	28443
811.865	28440
812.007	28474
812.148	28379
812.29	28489
812.431	28656
812.573	28782
812.714	28786
812.855	28995
812.997	29197
813.138	29193
813.279	29162
813.421	28923
813.562	28850
813.703	28736
813.845	28721
813.986	28398
814.127	28131
814.268	28067
814.41	28101
814.551	28291
814.692	28116
814.833	28070
814.974	28158
815.115	28124
815.256	28025
815.397	28082
815.539	27956
815.68	27873
815.821	27926
815.962	28021
816.103	27914
816.244	27941
816.385	27641
816.526	27686
816.666	27637
816.807	27416
816.948	27553
817.089	27610
817.23	27412
817.371	27439
817.512	27378
817.653	27382
817.793	27370
817.934	27488
818.075	27412
818.216	27397
818.356	27401
818.497	27218
818.638	27161
818.778	27138
818.919	27241
819.06	27218
819.2	27264
819.341	27370
819.481	27412
819.622	27420
819.762	27694
819.903	27701
820.043	27553
820.184	27580
820.324	27492
820.465	27816
820.605	27568
820.746	27545
820.886	27294
821.026	27507
821.167	27447
821.307	27595
821.447	27454
821.588	27378
821.728	27237
821.868	27096
822.008	26921
822.149	26864
822.289	26807
822.429	26754
822.569	26537
822.709	26667
822.849	26419
822.99	26294
823.13	26374
823.27	26252
823.41	26305
823.55	26176
823.69	26244
823.83	26206
823.97	26195
824.11	25944
824.25	26008
824.389	25993
824.529	26168
824.669	25921
824.809	26206
824.949	26275
825.089	26012
825.228	26225
825.368	25776
825.508	25947
825.648	25811
825.787	25913
825.927	25955
826.067	25875
826.206	25906
826.346	26016
826.485	25860
826.625	25909
826.765	26005
826.904	26012
827.044	25791
827.183	25746
827.323	25731
827.462	25616
827.601	25670
827.741	25753
827.88	25674
828.02	25502
828.159	25502
828.298	25765
828.437	25620
828.577	25502
828.716	25666
828.855	25578
828.994	25171
829.134	25301
829.273	25381
829.412	25255
829.551	25285
829.69	25358
829.829	25373
829.968	25453
830.107	25430
830.246	25320
830.385	25251
830.524	25190
830.663	25133
830.802	25050
830.941	24932
831.08	24890
831.219	25015
831.357	24985
831.496	25099
831.635	25034
831.774	24951
831.913	24844
832.051	24669
832.19	24688
832.329	24757
832.467	24711
832.606	24525
832.744	24505
832.883	24665
833.022	24566
833.16	24642
833.299	24696
833.437	24589
833.576	24700
833.714	24673
833.852	24627
833.991	24604
834.129	24734
834.267	24677
834.406	24703
834.544	24639
834.682	24665
834.821	24574
834.959	24779
835.097	24608
835.235	24650
835.373	24681
835.511	24661
835.65	24483
835.788	24604
835.926	24391
836.064	24308
836.202	24190
836.34	24528
836.478	24681
836.615	24361
836.753	24532
836.891	24536
837.029	24540
837.167	24528
837.305	24448
837.443	24365
837.58	24262
837.718	24327
837.856	24369
837.993	24140
838.131	24365
838.269	24186
838.406	24311
838.544	24197
838.681	24060
838.819	23931
838.956	23767
839.094	23794
839.231	23855
839.369	24045
839.506	24163
839.643	24098
839.781	23798
839.918	23745
840.055	23710
840.193	23634
840.33	23634
840.467	23714
840.604	23733
840.742	24110
840.879	23589
841.016	23687
841.153	23459
841.29	23790
841.427	23729
841.564	23653
841.701	23665
841.838	23634
841.975	23592
842.112	23646
842.249	23634
842.385	23467
842.522	23684
842.659	23501
842.796	23467
842.933	23497
843.069	23391
843.206	23414
843.343	23421
843.479	23566
843.616	23356
843.752	23242
843.889	23299
844.025	23360
844.162	23231
844.298	23391
844.435	23227
844.571	23185
844.708	23208
844.844	23296
844.98	23398
845.117	23364
845.253	23105
845.389	23010
845.525	23048
845.661	23166
845.798	23044
845.934	22938
846.07	22881
846.206	22999
846.342	23143
846.478	23018
846.614	22847
846.75	22774
846.886	22538
847.022	22721
847.158	22748
847.294	22786
847.429	22717
847.565	22698
847.701	22820
847.837	22516
847.972	22519
848.108	22478
848.244	22531
848.379	22303
848.515	22257
848.65	22341
848.786	22325
848.921	22135
849.057	22386
849.192	22329
849.328	22382
849.463	22207
849.598	22166
849.734	22314
849.869	22067
850.004	22082
850.14	22169
850.275	22051
850.41	21876
850.545	21945
850.68	22017
850.815	22078
850.95	21960
851.085	22284
851.22	22188
851.355	22055
851.49	22010
851.625	21975
851.76	22006
851.895	22002
852.03	21937
852.165	22051
852.299	22032
852.434	22082
852.569	22185
852.703	22055
852.838	22200
852.973	22249
853.107	22150
853.242	22006
853.376	21903
853.511	21819
853.645	21903
853.78	21953
853.914	21934
854.048	21823
854.183	21911
854.317	21968
854.451	22063
854.585	21819
854.72	21854
854.854	21987
854.988	21762
855.122	21964
855.256	21785
855.39	21899
855.524	21907
855.658	21968
855.792	21781
855.926	21857
856.06	21797
856.194	21956
856.327	21838
856.461	21800
856.595	21850
856.729	21949
856.862	22150
856.996	21884
857.13	21865
857.263	21937
857.397	22124
857.53	21899
857.664	21903
857.797	21895
857.931	21865
858.064	21876
858.197	21823
858.331	21884
858.464	21861
858.597	21747
858.731	21873
858.864	21686
858.997	21842
859.13	21899
859.263	21869
859.396	21865
859.529	21854
859.662	21793
859.795	21808
859.928	21930
860.061	21987
860.194	22109
860.327	21873
860.46	21964
860.592	21960
860.725	21979
860.858	21949
860.99	21911
861.123	21903
861.256	21873
861.388	21918
861.521	22577
861.653	21713
861.786	21625
861.918	21705
862.05	21808
862.183	21865
862.315	21911
862.447	21800
862.58	21816
862.712	21698
862.844	21553
862.976	21644
863.108	21679
863.24	21873
863.372	21538
863.504	21530
863.636	21587
863.768	21568
863.9	21629
864.032	21675
864.164	21564
864.296	21679
864.428	21743
864.559	21542
864.691	21679
864.823	21610
864.954	21378
865.086	21507
865.217	21458
865.349	21507
865.48	21511
865.612	21591
865.743	21690
865.875	21420
866.006	21447
866.137	21466
866.269	21435
866.4	21310
866.531	21340
866.662	21424
866.793	21302
866.924	21344
867.055	21428
867.186	21283
867.317	21428
867.448	21348
867.579	21401
867.71	21306
867.841	21298
867.972	21462
868.103	21329
868.233	21412
868.364	21344
868.495	21386
868.625	21648
868.756	21610
868.886	21561
869.017	21599
869.147	21892
869.278	21831
869.408	21759
869.539	21652
869.669	21591
869.799	21675
869.929	21800
870.06	21808
870.19	21941
870.32	21991
870.45	22002
870.58	22032
870.71	22139
870.84	22109
870.97	22204
871.1	22086
871.23	22261
871.36	22219
871.489	22120
871.619	22109
871.749	22272
871.879	22135
872.008	22295
872.138	22207
872.267	22097
872.397	22135
872.526	22112
872.656	22059
872.785	22200
872.915	22314
873.044	22341
873.173	22329
873.303	22337
873.432	22295
873.561	22314
873.69	22314
873.819	22276
873.948	22306
874.077	22272
874.206	22299
874.335	22337
874.464	22394
874.593	22508
874.722	22413
874.851	22519
874.979	22504
875.108	22584
875.237	22402
875.365	22398
875.494	22322
875.623	22645
875.751	22466
875.88	22550
876.008	22512
876.136	22622
876.265	22885
876.393	22854
876.521	22820
876.65	22911
876.778	22896
876.906	22835
877.034	22801
877.162	22858
877.29	22675
877.418	22911
877.546	22885
877.674	22733
877.802	22755
877.93	22755
878.058	22729
878.185	22706
878.313	22831
878.441	22873
878.568	22713
878.696	22759
878.824	22850
878.951	22953
879.079	22984
879.206	23159
879.333	22987
879.461	22953
879.588	22927
879.715	22904
879.842	23056
879.97	23010
880.097	22611
880.224	22584
880.351	22679
880.478	22637
880.605	22679
880.732	22538
880.859	22869
880.986	22641
881.112	22672
881.239	22573
881.366	22360
881.493	22325
881.619	22299
881.746	22238
881.872	22325
881.999	22200
882.125	22040
882.252	22329
882.378	22166
882.505	22287
882.631	21968
882.757	21994
882.883	22063
883.01	21846
883.136	21831
883.262	21816
883.388	21667
883.514	21838
883.64	21945
883.766	21747
883.892	21580
884.018	21705
884.143	21892
884.269	21934
884.395	21595
884.52	21549
884.646	21515
884.772	21523
884.897	21389
885.023	21530
885.148	21595
885.274	21614
885.399	21717
885.524	21553
885.65	21545
885.775	21477
885.9	21667
886.025	21618
886.15	21720
886.275	21454
886.4	21435
886.525	21424
886.65	21431
886.775	21321
886.9	21606
887.025	21831
887.149	21523
887.274	21374
887.399	21268
887.523	21340
887.648	21321
887.773	21283
887.897	21355
888.021	21374
888.146	21298
888.27	21329
888.395	21458
888.519	21325
888.643	21507
888.767	21313
888.891	21245
889.015	21188
889.139	21264
889.263	21131
889.387	21203
889.511	21268
889.635	21165
889.759	20990
889.883	21127
890.006	21047
890.13	21374
890.254	21195
890.377	21081
890.501	20910
890.624	20788
890.748	20982
890.871	20807
890.995	20758
891.118	20777
891.241	20674
891.364	20689
891.488	20811
891.611	20708
891.734	20720
891.857	20701
891.98	20625
892.103	20727
892.226	20769
892.349	20632
892.471	20594
892.594	20526
892.717	20712
892.839	20716
892.962	20617
893.085	20670
893.207	20632
893.33	20617
893.452	20484
893.575	20541
893.697	20499
893.819	20670
893.941	20781
894.064	20735
894.186	20484
894.308	20511
894.43	20697
894.552	20632
894.674	20651
894.796	20507
894.918	20541
895.04	20575
895.161	20739
895.283	20587
895.405	20499
895.526	20727
895.648	20530
895.769	20503
895.891	20670
896.012	20769
896.134	20579
896.255	20701
896.376	20663
896.498	20552
896.619	20560
896.74	20598
896.861	20697
896.982	20891
897.103	21036
897.224	20876
897.345	20807
897.466	20735
897.587	20754
897.708	20887
897.828	20815
897.949	20769
898.07	20606
898.19	20743
898.311	20872
898.431	20731
898.552	20823
898.672	20842
898.792	20868
898.913	20861
899.033	20682
899.153	20682
899.273	20587
899.393	20412
899.513	20552
899.633	20530
899.753	20583
899.873	20473
899.993	20476
900.113	20499
900.232	20537
900.352	20370
900.472	20317
900.591	20172
900.711	20355
900.83	20404
900.95	20370
901.069	20343
901.189	20164
901.308	19936
901.427	19970
901.546	19906
901.665	19967
901.784	19845
901.904	19772
902.023	19666
902.141	19464
902.26	19537
902.379	19563
902.498	19556
902.617	19293
902.735	19514
902.854	19384
902.973	19354
903.091	19095
903.21	19088
903.328	19175
903.446	19012
903.565	18886
903.683	18966
903.801	18677
903.919	18798
904.038	18768
904.156	18684
904.274	18810
904.392	18642
904.51	18608
904.627	18555
904.745	18711
904.863	18776
904.981	18399
905.098	18334
905.216	18353
905.334	18437
905.451	18365
905.569	18174
905.686	18342
905.803	18289
905.921	18038
906.038	18213
906.155	18155
906.272	17923
906.389	17946
906.506	17882
906.623	17847
906.74	17885
906.857	17695
906.974	17726
907.091	17927
907.208	17859
907.324	17889
907.441	17703
907.557	17668
907.674	17535
907.79	17585
907.907	17520
908.023	17596
908.139	17573
908.256	17463
908.372	17395
908.488	17376
908.604	17231
908.72	17265
908.836	17299
908.952	17307
909.068	17273
909.184	17379
909.3	17261
909.415	17235
909.531	17258
909.647	17041
909.762	16885
909.878	16972
909.993	16873
910.108	16965
910.224	16889
910.339	16820
910.454	16752
910.57	16767
910.685	16618
910.8	16991
910.915	16900
911.03	16771
911.145	16554
911.259	16485
911.374	16451
911.489	16447
911.604	16424
911.718	16409
911.833	16413
911.947	16181
912.062	16169
912.176	16223
912.291	16272
912.405	16310
912.519	16371
912.633	16516
912.748	16360
912.862	16234
912.976	16040
913.09	16017
913.204	16071
913.318	16131
913.431	16131
913.545	16059
913.659	16128
913.772	16074
913.886	15941
914	15880
914.113	15930
914.226	16059
914.34	15918
914.453	15812
914.566	15873
914.68	15785
914.793	15781
914.906	15595
915.019	15557
915.132	15443
915.245	15469
915.358	15523
915.47	15450
915.583	15568
915.696	15530
915.809	15606
915.921	15523
916.034	15386
916.146	15359
916.259	15424
916.371	15564
916.483	15355
916.595	15294
916.708	15294
916.82	15370
916.932	15199
917.044	15291
917.156	15192
917.268	15020
917.38	15058
917.491	15169
917.603	15085
917.715	15154
917.826	15268
917.938	15085
918.049	14921
918.161	15039
918.272	15195
918.384	15127
918.495	15138
918.606	14899
918.717	14906
918.828	14899
918.939	14895
919.05	14796
919.161	14792
919.272	14731
919.383	14659
919.494	14929
919.604	15055
919.715	14914
919.826	14762
919.936	14883
920.047	14880
920.157	14910
920.267	15066
920.378	14895
920.488	14769
920.598	14986
920.708	15169
920.818	14998
920.928	15032
921.038	15100
921.148	15104
921.258	14743
921.368	14762
921.477	14511
921.587	14606
921.697	14393
921.806	14587
921.916	14476
922.025	14210
922.134	14214
922.244	14210
922.353	14317
922.462	14035
922.571	14096
922.68	13890
922.789	13826
922.898	13902
923.007	13849
923.116	13925
923.224	13780
923.333	13742
923.442	13742
923.55	13685
923.659	13795
923.767	13746
923.876	13658
923.984	13731
924.092	13556
924.201	13567
924.309	13571
924.417	13537
924.525	13464
924.633	13495
924.741	14278
924.849	13350
924.956	13487
925.064	13312
925.172	13145
925.279	13316
925.387	13251
925.494	13190
925.602	13236
925.709	13346
925.816	13152
925.924	13225
926.031	13202
926.138	13137
926.245	13156
926.352	13175
926.459	13274
926.566	13263
926.673	13103
926.779	13031
926.886	13008
926.993	12856
927.099	12779
927.206	12829
927.312	12658
927.419	12837
927.525	12821
927.631	12779
927.737	12620
927.843	12707
927.95	12513
928.056	12578
928.162	12730
928.267	12669
928.373	13320
928.479	12681
928.585	12471
928.69	12559
928.796	12662
928.901	12525
929.007	12369
929.112	12574
929.218	12410
929.323	12403
929.428	12277
929.533	12490
929.638	12213
929.743	12186
929.848	12372
929.953	12243
930.058	12194
930.163	11935
930.267	12110
930.372	12197
930.477	11996
930.581	12182
930.685	12083
930.79	11939
930.894	11908
930.998	11901
931.103	12019
931.207	11634
931.311	11490
931.415	11482
931.519	11273
931.623	11299
