Data from test_V78500241_3453.txt Node
Date: Fri Mar 25 16:05:43 CST 2022
User: usil
Spectrometer: V785-0024
Trigger mode: 0
Integration Time (sec): 4.000000E-1
Scans to average: 1
Nonlinearity correction enabled: false
Boxcar width: 0
Storing dark spectrum: false
XAxis mode: Wavelengths
Number of Pixels in Spectrum: 1024
>>>>>Begin Spectral Data<<<<<
801.071	28919
801.214	28900
801.356	28653
801.499	28519
801.641	28523
801.783	28455
801.926	28618
802.068	28577
802.211	28512
802.353	28367
802.496	28249
802.638	28272
802.78	28219
802.923	28177
803.065	28135
803.208	28268
803.35	28230
803.492	28447
803.635	28504
803.777	28219
803.919	28424
804.061	28820
804.204	28398
804.346	28550
804.488	28451
804.63	28447
804.773	28428
804.915	28573
805.057	28694
805.199	28538
805.341	28523
805.483	28660
805.626	28660
805.768	28615
805.91	28675
806.052	28634
806.194	28603
806.336	28942
806.478	28698
806.62	28527
806.762	28725
806.904	28980
807.046	29220
807.188	29067
807.33	29159
807.472	29216
807.614	28904
807.756	29109
807.898	28881
808.04	28896
808.182	28927
808.324	28953
808.465	28961
808.607	29193
808.749	29383
808.891	29212
809.033	29615
809.174	29619
809.316	29356
809.458	29349
809.6	29258
809.741	29486
809.883	29471
810.025	29619
810.166	29646
810.308	29828
810.45	29596
810.591	29490
810.733	29474
810.875	29326
811.016	29288
811.158	29311
811.299	29520
811.441	29531
811.582	29524
811.724	29307
811.865	29261
812.007	29322
812.148	29341
812.29	29330
812.431	29558
812.573	29589
812.714	29878
812.855	29862
812.997	29904
813.138	30003
813.279	29908
813.421	29874
813.562	29775
813.703	29771
813.845	29467
813.986	29261
814.127	29166
814.268	29189
814.41	29025
814.551	29067
814.692	29113
814.833	28987
814.974	28995
815.115	28957
815.256	28927
815.397	28904
815.539	28915
815.68	28816
815.821	28835
815.962	28919
816.103	28801
816.244	28888
816.385	28702
816.526	28664
816.666	28478
816.807	28215
816.948	28382
817.089	28455
817.23	28466
817.371	28401
817.512	28303
817.653	28459
817.793	28398
817.934	28398
818.075	28268
818.216	28390
818.356	28341
818.497	28322
818.638	28131
818.778	28124
818.919	28143
819.06	28341
819.2	28306
819.341	28360
819.481	28481
819.622	28497
819.762	28744
819.903	28611
820.043	28561
820.184	28527
820.324	28580
820.465	28561
820.605	28447
820.746	28634
820.886	28306
821.026	28485
821.167	28447
821.307	28508
821.447	28497
821.588	28265
821.728	28211
821.868	27979
822.008	27899
822.149	27914
822.289	27831
822.429	27469
822.569	27515
822.709	27618
822.849	27344
822.99	27466
823.13	27374
823.27	27393
823.41	27340
823.55	27112
823.69	27226
823.83	27039
823.97	27142
824.11	27058
824.25	27081
824.389	27043
824.529	27214
824.669	27146
824.809	27127
824.949	27100
825.089	27199
825.228	27135
825.368	26933
825.508	26921
825.648	26998
825.787	26792
825.927	26868
826.067	26880
826.206	26918
826.346	26944
826.485	26990
826.625	26864
826.765	27116
826.904	26944
827.044	26705
827.183	26670
827.323	26590
827.462	26625
827.601	26678
827.741	26632
827.88	26625
828.02	26549
828.159	26533
828.298	26735
828.437	26613
828.577	26651
828.716	26735
828.855	26393
828.994	26282
829.134	26438
829.273	26404
829.412	26320
829.551	26294
829.69	26336
829.829	26301
829.968	26355
830.107	26412
830.246	26233
830.385	26229
830.524	26199
830.663	26240
830.802	26043
830.941	25947
831.08	25887
831.219	25963
831.357	26035
831.496	26031
831.635	25951
831.774	25875
831.913	25852
832.051	25658
832.19	25655
832.329	25658
832.467	25651
832.606	25464
832.744	25613
832.883	25609
833.022	25472
833.16	25548
833.299	25731
833.437	25677
833.576	25704
833.714	25841
833.852	25708
833.991	25655
834.129	25757
834.267	25734
834.406	25662
834.544	25742
834.682	25719
834.821	25556
834.959	25833
835.097	25693
835.235	25708
835.373	25780
835.511	25586
835.65	25438
835.788	25441
835.926	25396
836.064	25312
836.202	25369
836.34	25491
836.478	25537
836.615	25540
836.753	25502
836.891	25582
837.029	25476
837.167	25438
837.305	25266
837.443	25320
837.58	25217
837.718	25301
837.856	25491
837.993	25384
838.131	25274
838.269	25266
838.406	25213
838.544	25114
838.681	24890
838.819	24947
838.956	24890
839.094	24764
839.231	24734
839.369	24985
839.506	25236
839.643	25107
839.781	24661
839.918	24783
840.055	24745
840.193	24692
840.33	24692
840.467	24696
840.604	24783
840.742	25065
840.879	24494
841.016	24563
841.153	24563
841.29	24753
841.427	24669
841.564	24760
841.701	24760
841.838	24574
841.975	24525
842.112	24616
842.249	24498
842.385	24505
842.522	24623
842.659	24574
842.796	24384
842.933	24426
843.069	24399
843.206	24376
843.343	24612
843.479	24285
843.616	24494
843.752	24254
843.889	24304
844.025	24376
844.162	24197
844.298	24277
844.435	24232
844.571	24190
844.708	24216
844.844	24357
844.98	24350
845.117	24296
845.253	24144
845.389	23950
845.525	24091
845.661	24038
845.798	23920
845.934	23965
846.07	23874
846.206	23992
846.342	23965
846.478	23817
846.614	23714
846.75	23718
846.886	23672
847.022	23653
847.158	23764
847.294	23752
847.429	23729
847.565	23611
847.701	23878
847.837	23395
847.972	23414
848.108	23528
848.244	23360
848.379	23292
848.515	23132
848.65	23273
848.786	23391
848.921	23212
849.057	23376
849.192	23341
849.328	23246
849.463	23193
849.598	23368
849.734	23094
849.869	23212
850.004	22957
850.14	23113
850.275	23048
850.41	22892
850.545	22816
850.68	22881
850.815	22972
850.95	22987
851.085	23140
851.22	23086
851.355	22904
851.49	23105
851.625	23029
851.76	22930
851.895	23128
852.03	22908
852.165	22942
852.299	23056
852.434	23090
852.569	23052
852.703	23044
852.838	22965
852.973	23025
853.107	23124
853.242	22869
853.376	22858
853.511	22645
853.645	22725
853.78	22809
853.914	22740
854.048	22831
854.183	22767
854.317	22908
854.451	22995
854.585	22778
854.72	22915
854.854	22908
854.988	22774
855.122	22797
855.256	22622
855.39	22919
855.524	22847
855.658	22904
855.792	22793
855.926	22843
856.06	22896
856.194	23022
856.327	22744
856.461	22877
856.595	22774
856.729	22748
856.862	22999
856.996	22812
857.13	22904
857.263	22885
857.397	22850
857.53	22797
857.664	22877
857.797	22850
857.931	23041
858.064	22850
858.197	22904
858.331	22831
858.464	22763
858.597	22588
858.731	22839
858.864	22767
858.997	22866
859.13	22812
859.263	22805
859.396	22934
859.529	22976
859.662	22710
859.795	22607
859.928	22877
860.061	23033
860.194	23064
860.327	22942
860.46	22850
860.592	22942
860.725	22980
860.858	22934
860.99	22717
861.123	22885
861.256	22793
861.388	22881
861.521	23406
861.653	22645
861.786	22455
861.918	22649
862.05	22573
862.183	22713
862.315	22797
862.447	22752
862.58	22820
862.712	22603
862.844	22519
862.976	22672
863.108	22649
863.24	22927
863.372	22436
863.504	22603
863.636	22466
863.768	22618
863.9	22607
864.032	22497
864.164	22470
864.296	22683
864.428	22656
864.559	22546
864.691	22653
864.823	22516
864.954	22443
865.086	22451
865.217	22394
865.349	22356
865.48	22276
865.612	22485
865.743	22508
865.875	22462
866.006	22303
866.137	22447
866.269	22413
866.4	22394
866.531	22310
866.662	22265
866.793	22382
866.924	22360
867.055	22352
867.186	22344
867.317	22261
867.448	22246
867.579	22249
867.71	22215
867.841	22356
867.972	22386
868.103	22276
868.233	22329
868.364	22280
868.495	22200
868.625	22538
868.756	22645
868.886	22512
869.017	22656
869.147	22668
869.278	22771
869.408	22474
869.539	22596
869.669	22725
869.799	22497
869.929	22717
870.06	22683
870.19	22793
870.32	22862
870.45	22812
870.58	22915
870.71	23090
870.84	22999
870.97	23064
871.1	22987
871.23	23079
871.36	23227
871.489	23071
871.619	23132
871.749	23277
871.879	23242
872.008	23121
872.138	23105
872.267	23056
872.397	23037
872.526	22885
872.656	23022
872.785	23052
872.915	23159
873.044	23368
873.173	23212
873.303	23284
873.432	23223
873.561	23284
873.69	23261
873.819	23197
873.948	23147
874.077	23261
874.206	23170
874.335	23132
874.464	23250
874.593	23368
874.722	23406
874.851	23509
874.979	23273
875.108	23402
875.237	23296
875.365	23280
875.494	23318
875.623	23512
875.751	23398
875.88	23505
876.008	23520
876.136	23531
876.265	23904
876.393	24064
876.521	23912
876.65	23912
876.778	23764
876.906	23699
877.034	23729
877.162	23798
877.29	23745
877.418	23680
877.546	23707
877.674	23726
877.802	23699
877.93	23646
878.058	23733
878.185	23516
878.313	23779
878.441	23703
878.568	23581
878.696	23642
878.824	23855
878.951	23805
879.079	23859
879.206	24015
879.333	23927
879.461	23752
879.588	23920
879.715	23939
879.842	23969
879.97	23802
880.097	23592
880.224	23604
880.351	23501
880.478	23509
880.605	23421
880.732	23551
880.859	23752
880.986	23554
881.112	23531
881.239	23376
881.366	23345
881.493	23212
881.619	23143
881.746	23109
881.872	23162
881.999	23041
882.125	23041
882.252	22995
882.378	23048
882.505	23216
882.631	22968
882.757	22752
882.883	22752
883.01	22710
883.136	22615
883.262	22740
883.388	22675
883.514	22774
883.64	22839
883.766	22672
883.892	22565
884.018	22561
884.143	22824
884.269	22797
884.395	22485
884.52	22375
884.646	22390
884.772	22375
884.897	22234
885.023	22409
885.148	22523
885.274	22531
885.399	22542
885.524	22402
885.65	22508
885.775	22402
885.9	22379
886.025	22443
886.15	22413
886.275	22375
886.4	22242
886.525	22379
886.65	22443
886.775	22348
886.9	22523
887.025	22538
887.149	22462
887.274	22204
887.399	22173
887.523	22242
887.648	21991
887.773	22131
887.897	22204
888.021	22238
888.146	22154
888.27	22344
888.395	22306
888.519	22234
888.643	22128
888.767	22192
888.891	22131
889.015	21876
889.139	22109
889.263	21968
889.387	22044
889.511	22238
889.635	21907
889.759	21949
889.883	21979
890.006	21979
890.13	22078
890.254	21831
890.377	21816
890.501	21698
890.624	21660
890.748	21827
890.871	21610
890.995	21534
891.118	21488
891.241	21580
891.364	21443
891.488	21572
891.611	21435
891.734	21462
891.857	21591
891.98	21515
892.103	21439
892.226	21462
892.349	21454
892.471	21203
892.594	21389
892.717	21424
892.839	21321
892.962	21405
893.085	21458
893.207	21359
893.33	21211
893.452	21260
893.575	21477
893.697	21325
893.819	21500
893.941	21644
894.064	21507
894.186	21294
894.308	21329
894.43	21439
894.552	21500
894.674	21447
894.796	21344
894.918	21367
895.04	21340
895.161	21313
895.283	21481
895.405	21260
895.526	21329
895.648	21435
895.769	21458
895.891	21386
896.012	21405
896.134	21332
896.255	21382
896.376	21199
896.498	21393
896.619	21523
896.74	21473
896.861	21412
896.982	21698
897.103	21701
897.224	21747
897.345	21542
897.466	21485
897.587	21492
897.708	21713
897.828	21580
897.949	21435
898.07	21424
898.19	21367
898.311	21599
898.431	21519
898.552	21553
898.672	21633
898.792	21572
898.913	21576
899.033	21386
899.153	21348
899.273	21203
899.393	21264
899.513	21222
899.633	21359
899.753	21329
899.873	21207
899.993	21294
900.113	21138
900.232	21355
900.352	21169
900.472	21085
900.591	20948
900.711	21070
900.83	21047
900.95	21157
901.069	21157
901.189	20724
901.308	20762
901.427	20716
901.546	20571
901.665	20746
901.784	20648
901.904	20511
902.023	20450
902.141	20233
902.26	20149
902.379	20130
902.498	20183
902.617	20164
902.735	20119
902.854	19978
902.973	20012
903.091	19757
903.21	19780
903.328	19875
903.446	19769
903.565	19567
903.683	19578
903.801	19445
903.919	19426
904.038	19415
904.156	19369
904.274	19396
904.392	19221
904.51	19320
904.627	19285
904.745	19293
904.863	19327
904.981	19122
905.098	18993
905.216	18913
905.334	18996
905.451	18962
905.569	18920
905.686	18954
905.803	18894
905.921	18677
906.038	18856
906.155	18620
906.272	18589
906.389	18772
906.506	18471
906.623	18608
906.74	18608
906.857	18414
906.974	18384
907.091	18525
907.208	18570
907.324	18574
907.441	18433
907.557	18239
907.674	18213
907.79	18129
907.907	18194
908.023	18235
908.139	18228
908.256	18224
908.372	18064
908.488	18095
908.604	17946
908.72	17916
908.836	17870
908.952	17908
909.068	17973
909.184	18140
909.3	17923
909.415	17988
909.531	17935
909.647	17642
909.762	17596
909.878	17615
909.993	17619
910.108	17577
910.224	17395
910.339	17532
910.454	17543
910.57	17501
910.685	17311
910.8	17592
910.915	17585
911.03	17368
911.145	17235
911.259	17181
911.374	17090
911.489	17143
911.604	17083
911.718	17006
911.833	16881
911.947	16801
912.062	16733
912.176	16896
912.291	16866
912.405	16889
912.519	17212
912.633	17170
912.748	16923
912.862	16858
912.976	16675
913.09	16596
913.204	16630
913.318	16717
913.431	16805
913.545	16831
913.659	16957
913.772	16637
913.886	16535
914	16519
914.113	16565
914.226	16675
914.34	16584
914.453	16451
914.566	16546
914.68	16421
914.793	16413
914.906	16147
915.019	16040
915.132	15941
915.245	16086
915.358	16116
915.47	16135
915.583	16036
915.696	16097
915.809	16230
915.921	16147
916.034	15949
916.146	15892
916.259	15926
916.371	16044
916.483	15975
916.595	15869
916.708	15975
916.82	15823
916.932	15812
917.044	15857
917.156	15850
917.268	15698
917.38	15709
917.491	15625
917.603	15755
917.715	15778
917.826	15823
917.938	15705
918.049	15458
918.161	15629
918.272	15785
918.384	15766
918.495	15603
918.606	15386
918.717	15389
918.828	15469
918.939	15504
919.05	15359
919.161	15272
919.272	15298
919.383	15256
919.494	15439
919.604	15580
919.715	15344
919.826	15313
919.936	15355
920.047	15389
920.157	15348
920.267	15557
920.378	15401
920.488	15325
920.598	15515
920.708	15747
920.818	15606
920.928	15557
921.038	15637
921.148	15553
921.258	15321
921.368	15214
921.477	15207
921.587	15077
921.697	14921
921.806	15104
921.916	14944
922.025	14708
922.134	14765
922.244	14724
922.353	14762
922.462	14610
922.571	14499
922.68	14473
922.789	14396
922.898	14469
923.007	14358
923.116	14343
923.224	14374
923.333	14286
923.442	14278
923.55	14176
923.659	14240
923.767	14347
923.876	14043
923.984	14176
924.092	14111
924.201	14126
924.309	14142
924.417	14027
924.525	14008
924.633	14027
924.741	14944
924.849	13822
924.956	13970
925.064	13845
925.172	13731
925.279	13795
925.387	13700
925.494	13693
925.602	13845
925.709	13662
925.816	13712
925.924	13776
926.031	13689
926.138	13643
926.245	13750
926.352	13613
926.459	13632
926.566	13734
926.673	13655
926.779	13430
926.886	13544
926.993	13354
927.099	13232
927.206	13247
927.312	13190
927.419	13228
927.525	13240
927.631	13274
927.737	13183
927.843	13168
927.95	13034
928.056	13099
928.162	13061
928.267	13091
928.373	13811
928.479	13126
928.585	12886
928.69	12973
928.796	13126
928.901	12928
929.007	12856
929.112	12894
929.218	12837
929.323	12890
929.428	12886
929.533	12905
929.638	12730
929.743	12760
929.848	12779
929.953	12814
930.058	12528
930.163	12441
930.267	12494
930.372	12635
930.477	12437
930.581	12555
930.685	12475
930.79	12281
930.894	12372
930.998	12292
931.103	12399
931.207	12057
931.311	11992
931.415	11863
931.519	11726
931.623	11672
