Data from test_V78500241_2853.txt Node
Date: Fri Mar 25 16:01:33 CST 2022
User: usil
Spectrometer: V785-0024
Trigger mode: 0
Integration Time (sec): 4.000000E-1
Scans to average: 1
Nonlinearity correction enabled: false
Boxcar width: 0
Storing dark spectrum: false
XAxis mode: Wavelengths
Number of Pixels in Spectrum: 1024
>>>>>Begin Spectral Data<<<<<
801.071	29094
801.214	28923
801.356	28767
801.499	28831
801.641	28710
801.783	28550
801.926	28675
802.068	28592
802.211	28500
802.353	28519
802.496	28375
802.638	28447
802.78	28363
802.923	28291
803.065	28272
803.208	28158
803.35	28246
803.492	28462
803.635	28557
803.777	28516
803.919	28516
804.061	28831
804.204	28679
804.346	28493
804.488	28413
804.63	28527
804.773	28459
804.915	28580
805.057	28790
805.199	28603
805.341	28615
805.483	28763
805.626	28763
805.768	28672
805.91	28713
806.052	28694
806.194	28626
806.336	28877
806.478	28733
806.62	28736
806.762	28854
806.904	29086
807.046	29223
807.188	29071
807.33	29147
807.472	29204
807.614	29189
807.756	29140
807.898	29060
808.04	29079
808.182	29018
808.324	29075
808.465	29109
808.607	29216
808.749	29414
808.891	29570
809.033	29554
809.174	29478
809.316	29463
809.458	29395
809.6	29520
809.741	29505
809.883	29558
810.025	29813
810.166	29680
810.308	29657
810.45	29668
810.591	29699
810.733	29562
810.875	29433
811.016	29417
811.158	29375
811.299	29608
811.441	29516
811.582	29653
811.724	29566
811.865	29375
812.007	29486
812.148	29486
812.29	29611
812.431	29661
812.573	29687
812.714	29912
812.855	30125
812.997	30106
813.138	30178
813.279	29969
813.421	29809
813.562	29897
813.703	29729
813.845	29627
813.986	29406
814.127	29242
814.268	29239
814.41	29212
814.551	29124
814.692	29242
814.833	29162
814.974	29216
815.115	29246
815.256	29208
815.397	29071
815.539	29204
815.68	29003
815.821	28911
815.962	29071
816.103	29075
816.244	28957
816.385	28755
816.526	28729
816.666	28618
816.807	28436
816.948	28557
817.089	28782
817.23	28561
817.371	28424
817.512	28504
817.653	28474
817.793	28367
817.934	28447
818.075	28622
818.216	28565
818.356	28303
818.497	28390
818.638	28306
818.778	28333
818.919	28295
819.06	28303
819.2	28394
819.341	28546
819.481	28500
819.622	28771
819.762	28733
819.903	28835
820.043	28713
820.184	28531
820.324	28656
820.465	28694
820.605	28683
820.746	28702
820.886	28413
821.026	28565
821.167	28523
821.307	28584
821.447	28531
821.588	28626
821.728	28287
821.868	28097
822.008	27956
822.149	27911
822.289	28036
822.429	27713
822.569	27690
822.709	27686
822.849	27504
822.99	27538
823.13	27469
823.27	27572
823.41	27332
823.55	27211
823.69	27317
823.83	27180
823.97	27211
824.11	27252
824.25	27070
824.389	27123
824.529	27100
824.669	27009
824.809	27264
824.949	27226
825.089	27195
825.228	27161
825.368	26853
825.508	26940
825.648	27112
825.787	26925
825.927	26986
826.067	26986
826.206	26899
826.346	27020
826.485	27218
826.625	26925
826.765	27138
826.904	26982
827.044	26785
827.183	26781
827.323	26678
827.462	26731
827.601	26940
827.741	26667
827.88	26750
828.02	26644
828.159	26644
828.298	26724
828.437	26838
828.577	26648
828.716	26724
828.855	26655
828.994	26366
829.134	26412
829.273	26431
829.412	26332
829.551	26423
829.69	26446
829.829	26450
829.968	26473
830.107	26434
830.246	26374
830.385	26396
830.524	26229
830.663	26221
830.802	26142
830.941	25925
831.08	25982
831.219	26058
831.357	26084
831.496	26195
831.635	26046
831.774	25978
831.913	25852
832.051	25753
832.19	25864
832.329	25936
832.467	25780
832.606	25643
832.744	25795
832.883	25685
833.022	25620
833.16	25693
833.299	25765
833.437	25693
833.576	25685
833.714	25864
833.852	25887
833.991	25963
834.129	25833
834.267	25799
834.406	25849
834.544	25780
834.682	25871
834.821	25875
834.959	25966
835.097	25845
835.235	25784
835.373	25818
835.511	25700
835.65	25597
835.788	25647
835.926	25407
836.064	25354
836.202	25495
836.34	25559
836.478	25578
836.615	25578
836.753	25689
836.891	25677
837.029	25742
837.167	25563
837.305	25559
837.443	25358
837.58	25411
837.718	25434
837.856	25453
837.993	25449
838.131	25320
838.269	25206
838.406	25350
838.544	25240
838.681	25080
838.819	25126
838.956	24920
839.094	24768
839.231	24966
839.369	25050
839.506	25297
839.643	25187
839.781	24848
839.918	24844
840.055	24821
840.193	24810
840.33	24791
840.467	24612
840.604	24791
840.742	25034
840.879	24658
841.016	24707
841.153	24555
841.29	24791
841.427	24730
841.564	24738
841.701	24741
841.838	24753
841.975	24635
842.112	24677
842.249	24578
842.385	24566
842.522	24810
842.659	24521
842.796	24479
842.933	24585
843.069	24494
843.206	24521
843.343	24525
843.479	24540
843.616	24414
843.752	24239
843.889	24258
844.025	24323
844.162	24308
844.298	24277
844.435	24247
844.571	24289
844.708	24213
844.844	24505
844.98	24486
845.117	24380
845.253	24323
845.389	24018
845.525	24216
845.661	24079
845.798	23920
845.934	24053
846.07	23996
846.206	24171
846.342	24140
846.478	23897
846.614	23843
846.75	23630
846.886	23665
847.022	23783
847.158	23767
847.294	23794
847.429	23828
847.565	23718
847.701	23942
847.837	23459
847.972	23486
848.108	23608
848.244	23589
848.379	23490
848.515	23296
848.65	23368
848.786	23368
848.921	23395
849.057	23406
849.192	23387
849.328	23356
849.463	23318
849.598	23315
849.734	23189
849.869	23147
850.004	23128
850.14	23064
850.275	23181
850.41	23056
850.545	23029
850.68	23067
850.815	23117
850.95	23079
851.085	23292
851.22	23288
851.355	23155
851.49	23102
851.625	22908
851.76	23029
851.895	23052
852.03	23090
852.165	22972
852.299	23166
852.434	23166
852.569	23212
852.703	23029
852.838	23185
852.973	23094
853.107	23128
853.242	22900
853.376	22987
853.511	22736
853.645	22885
853.78	23014
853.914	22965
854.048	22854
854.183	22843
854.317	22927
854.451	23003
854.585	22976
854.72	22885
854.854	23003
854.988	22748
855.122	22980
855.256	22706
855.39	22911
855.524	22949
855.658	22915
855.792	22949
855.926	22869
856.06	22976
856.194	23124
856.327	22972
856.461	22900
856.595	22919
856.729	22877
856.862	23018
856.996	22904
857.13	22927
857.263	23037
857.397	23006
857.53	22896
857.664	22972
857.797	23109
857.931	22987
858.064	22927
858.197	23113
858.331	22919
858.464	22885
858.597	22892
858.731	22816
858.864	22892
858.997	23048
859.13	22984
859.263	22900
859.396	22984
859.529	22919
859.662	22831
859.795	22927
859.928	22805
860.061	22991
860.194	23090
860.327	23079
860.46	22923
860.592	22961
860.725	22930
860.858	23006
860.99	22923
861.123	22835
861.256	22782
861.388	22809
861.521	23729
861.653	22778
861.786	22649
861.918	22641
862.05	22710
862.183	22801
862.315	22869
862.447	22831
862.58	22828
862.712	22554
862.844	22637
862.976	22866
863.108	22702
863.24	22953
863.372	22660
863.504	22603
863.636	22611
863.768	22691
863.9	22668
864.032	22656
864.164	22569
864.296	22550
864.428	22759
864.559	22577
864.691	22615
864.823	22683
864.954	22649
865.086	22584
865.217	22363
865.349	22405
865.48	22405
865.612	22478
865.743	22584
865.875	22436
866.006	22318
866.137	22462
866.269	22398
866.4	22481
866.531	22462
866.662	22363
866.793	22375
866.924	22440
867.055	22485
867.186	22394
867.317	22344
867.448	22363
867.579	22386
867.71	22333
867.841	22417
867.972	22344
868.103	22405
868.233	22394
868.364	22390
868.495	22489
868.625	22611
868.756	22740
868.886	22527
869.017	22637
869.147	22687
869.278	22831
869.408	22679
869.539	22710
869.669	22755
869.799	22713
869.929	22843
870.06	22706
870.19	22885
870.32	22911
870.45	23067
870.58	23003
870.71	23147
870.84	23143
870.97	23067
871.1	23006
871.23	23265
871.36	23185
871.489	23197
871.619	23261
871.749	23200
871.879	23265
872.008	23387
872.138	23376
872.267	23220
872.397	23128
872.526	23090
872.656	23044
872.785	23090
872.915	23223
873.044	23398
873.173	23242
873.303	23296
873.432	23330
873.561	23360
873.69	23334
873.819	23353
873.948	23349
874.077	23296
874.206	23223
874.335	23307
874.464	23406
874.593	23520
874.722	23417
874.851	23467
874.979	23318
875.108	23619
875.237	23512
875.365	23296
875.494	23509
875.623	23573
875.751	23459
875.88	23566
876.008	23516
876.136	23547
876.265	23805
876.393	24022
876.521	23927
876.65	23828
876.778	23828
876.906	23824
877.034	23790
877.162	23847
877.29	23779
877.418	23927
877.546	23779
877.674	23824
877.802	23786
877.93	23779
878.058	23779
878.185	23676
878.313	23824
878.441	23790
878.568	23649
878.696	23653
878.824	23855
878.951	23840
879.079	23878
879.206	24216
879.333	24053
879.461	23794
879.588	24087
879.715	24030
879.842	24060
879.97	23836
880.097	23619
880.224	23824
880.351	23634
880.478	23630
880.605	23661
880.732	23703
880.859	23836
880.986	23687
881.112	23589
881.239	23524
881.366	23398
881.493	23231
881.619	23212
881.746	23155
881.872	23178
881.999	23109
882.125	23166
882.252	23284
882.378	23098
882.505	23322
882.631	23170
882.757	22881
882.883	22991
883.01	22755
883.136	22809
883.262	22850
883.388	22702
883.514	22858
883.64	22915
883.766	22664
883.892	22637
884.018	22618
884.143	22816
884.269	22858
884.395	22565
884.52	22466
884.646	22451
884.772	22466
884.897	22341
885.023	22466
885.148	22493
885.274	22573
885.399	22497
885.524	22512
885.65	22432
885.775	22557
885.9	22344
886.025	22481
886.15	22615
886.275	22531
886.4	22344
886.525	22500
886.65	22386
886.775	22413
886.9	22531
887.025	22717
887.149	22424
887.274	22238
887.399	22261
887.523	22147
887.648	22166
887.773	22010
887.897	22310
888.021	22360
888.146	22139
888.27	22276
888.395	22314
888.519	22230
888.643	22196
888.767	22211
888.891	22067
889.015	21964
889.139	22124
889.263	22074
889.387	22181
889.511	22318
889.635	22143
889.759	21953
889.883	22017
890.006	22048
890.13	22261
890.254	22074
890.377	21975
890.501	21751
890.624	21808
890.748	21751
890.871	21595
890.995	21679
891.118	21526
891.241	21625
891.364	21580
891.488	21671
891.611	21583
891.734	21538
891.857	21504
891.98	21572
892.103	21652
892.226	21591
892.349	21538
892.471	21428
892.594	21450
892.717	21435
892.839	21367
892.962	21458
893.085	21538
893.207	21500
893.33	21264
893.452	21302
893.575	21386
893.697	21412
893.819	21587
893.941	21679
894.064	21530
894.186	21325
894.308	21298
894.43	21523
894.552	21526
894.674	21530
894.796	21386
894.918	21538
895.04	21370
895.161	21534
895.283	21671
895.405	21416
895.526	21405
895.648	21298
895.769	21507
895.891	21481
896.012	21466
896.134	21439
896.255	21496
896.376	21386
896.498	21374
896.619	21439
896.74	21428
896.861	21389
896.982	21667
897.103	21911
897.224	21618
897.345	21587
897.466	21637
897.587	21656
897.708	21724
897.828	21652
897.949	21530
898.07	21473
898.19	21553
898.311	21629
898.431	21526
898.552	21580
898.672	21732
898.792	21698
898.913	21572
899.033	21367
899.153	21412
899.273	21291
899.393	21260
899.513	21348
899.633	21393
899.753	21408
899.873	21237
899.993	21370
900.113	21233
900.232	21332
900.352	21252
900.472	21066
900.591	21062
900.711	21047
900.83	21081
900.95	21165
901.069	21161
901.189	20880
901.308	20792
901.427	20670
901.546	20697
901.665	20648
901.784	20693
901.904	20454
902.023	20461
902.141	20218
902.26	20199
902.379	20206
902.498	20157
902.617	20122
902.735	20248
902.854	20126
902.973	20111
903.091	19788
903.21	19875
903.328	19860
903.446	19811
903.565	19628
903.683	19704
903.801	19609
903.919	19651
904.038	19643
904.156	19415
904.274	19460
904.392	19419
904.51	19426
904.627	19369
904.745	19301
904.863	19415
904.981	19145
905.098	19126
905.216	19122
905.334	18981
905.451	19080
905.569	18962
905.686	19103
905.803	19015
905.921	18875
906.038	18932
906.155	18798
906.272	18730
906.389	18730
906.506	18608
906.623	18559
906.74	18513
906.857	18445
906.974	18509
907.091	18433
907.208	18620
907.324	18536
907.441	18445
907.557	18330
907.674	18258
907.79	18159
907.907	18228
908.023	18369
908.139	18155
908.256	18281
908.372	18041
908.488	18114
908.604	18083
908.72	17954
908.836	17965
908.952	17908
909.068	17980
909.184	18030
909.3	17916
909.415	18015
909.531	17855
909.647	17760
909.762	17764
909.878	17657
909.993	17726
910.108	17653
910.224	17577
910.339	17581
910.454	17474
910.57	17421
910.685	17330
910.8	17775
910.915	17634
911.03	17474
911.145	17353
911.259	17170
911.374	17311
911.489	17151
911.604	17132
911.718	16927
911.833	17102
911.947	16938
912.062	16850
912.176	17014
912.291	17045
912.405	16972
912.519	17220
912.633	17162
912.748	17010
912.862	16984
912.976	16862
913.09	16691
913.204	16740
913.318	16759
913.431	16923
913.545	16828
913.659	16946
913.772	16706
913.886	16603
914	16447
914.113	16660
914.226	16664
914.34	16592
914.453	16573
914.566	16577
914.68	16504
914.793	16455
914.906	16253
915.019	16093
915.132	16090
915.245	16150
915.358	16090
915.47	16192
915.583	16181
915.696	16249
915.809	16257
915.921	16230
916.034	16093
916.146	15987
916.259	15991
916.371	16082
916.483	16105
916.595	15945
916.708	16010
916.82	15903
916.932	15857
917.044	15873
917.156	15956
917.268	15720
917.38	15835
917.491	15625
917.603	15774
917.715	15736
917.826	15823
917.938	15629
918.049	15549
918.161	15690
918.272	15819
918.384	15797
918.495	15705
918.606	15469
918.717	15458
918.828	15603
918.939	15568
919.05	15412
919.161	15481
919.272	15287
919.383	15245
919.494	15534
919.604	15599
919.715	15595
919.826	15370
919.936	15359
920.047	15561
920.157	15393
920.267	15633
920.378	15469
920.488	15397
920.598	15614
920.708	15675
920.818	15511
920.928	15500
921.038	15610
921.148	15587
921.258	15294
921.368	15233
921.477	15222
921.587	15154
921.697	15043
921.806	15154
921.916	15013
922.025	14773
922.134	14773
922.244	14754
922.353	14769
922.462	14674
922.571	14632
922.68	14332
922.789	14484
922.898	14324
923.007	14377
923.116	14446
923.224	14366
923.333	14301
923.442	14229
923.55	14290
923.659	14233
923.767	14328
923.876	14153
923.984	14145
924.092	14210
924.201	14164
924.309	14161
924.417	14058
924.525	14020
924.633	14084
924.741	14979
924.849	13928
924.956	14024
925.064	13849
925.172	13769
925.279	13830
925.387	13750
925.494	13803
925.602	13932
925.709	13780
925.816	13719
925.924	13742
926.031	13849
926.138	13655
926.245	13769
926.352	13601
926.459	13776
926.566	13727
926.673	13723
926.779	13559
926.886	13407
926.993	13358
927.099	13343
927.206	13171
927.312	13354
927.419	13388
927.525	13274
927.631	13365
927.737	13133
927.843	13202
927.95	13000
928.056	13046
928.162	13080
928.267	13183
928.373	13852
928.479	13263
928.585	12928
928.69	13004
928.796	13156
928.901	12977
929.007	12886
929.112	12996
929.218	12863
929.323	12920
929.428	12791
929.533	12924
929.638	12719
929.743	12852
929.848	12829
929.953	12692
930.058	12585
930.163	12506
930.267	12467
930.372	12616
930.477	12521
930.581	12681
930.685	12509
930.79	12384
930.894	12448
930.998	12308
931.103	12483
931.207	12167
931.311	12049
931.415	11935
931.519	11741
931.623	11668
