Data from test_V78500241_678.txt Node
Date: Fri Mar 25 15:46:29 CST 2022
User: usil
Spectrometer: V785-0024
Trigger mode: 0
Integration Time (sec): 4.000000E-1
Scans to average: 1
Nonlinearity correction enabled: false
Boxcar width: 0
Storing dark spectrum: false
XAxis mode: Wavelengths
Number of Pixels in Spectrum: 1024
>>>>>Begin Spectral Data<<<<<
801.071	28044
801.214	27987
801.356	27667
801.499	27808
801.641	27606
801.783	27652
801.926	27698
802.068	27606
802.211	27549
802.353	27469
802.496	27264
802.638	27226
802.78	27424
802.923	27313
803.065	27260
803.208	27382
803.35	27272
803.492	27424
803.635	27519
803.777	27435
803.919	27481
804.061	27663
804.204	27587
804.346	27382
804.488	27340
804.63	27435
804.773	27416
804.915	27511
805.057	27610
805.199	27595
805.341	27747
805.483	27785
805.626	27667
805.768	27477
805.91	27622
806.052	27648
806.194	27583
806.336	27865
806.478	27648
806.62	27736
806.762	27720
806.904	27968
807.046	28120
807.188	27956
807.33	28120
807.472	28185
807.614	27991
807.756	28131
807.898	27991
808.04	27914
808.182	27846
808.324	27983
808.465	27937
808.607	28101
808.749	28306
808.891	28436
809.033	28462
809.174	28299
809.316	28333
809.458	28432
809.6	28261
809.741	28466
809.883	28413
810.025	28550
810.166	28466
810.308	28596
810.45	28557
810.591	28615
810.733	28413
810.875	28230
811.016	28131
811.158	28299
811.299	28481
811.441	28489
811.582	28474
811.724	28322
811.865	28261
812.007	28265
812.148	28306
812.29	28382
812.431	28447
812.573	28733
812.714	28797
812.855	28793
812.997	28991
813.138	28915
813.279	28908
813.421	28858
813.562	28896
813.703	28603
813.845	28599
813.986	28257
814.127	28284
814.268	28097
814.41	27979
814.551	27949
814.692	28196
814.833	27937
814.974	27922
815.115	27987
815.256	27774
815.397	27819
815.539	27914
815.68	27831
815.821	27762
815.962	27880
816.103	27869
816.244	27739
816.385	27797
816.526	27599
816.666	27549
816.807	27287
816.948	27496
817.089	27393
817.23	27340
817.371	27302
817.512	27287
817.653	27370
817.793	27203
817.934	27538
818.075	27389
818.216	27226
818.356	27294
818.497	27161
818.638	27051
818.778	27173
818.919	27207
819.06	27207
819.2	27218
819.341	27249
819.481	27184
819.622	27401
819.762	27507
819.903	27549
820.043	27450
820.184	27363
820.324	27473
820.465	27561
820.605	27515
820.746	27389
820.886	27222
821.026	27500
821.167	27370
821.307	27435
821.447	27310
821.588	27203
821.728	27096
821.868	27020
822.008	26857
822.149	26746
822.289	26655
822.429	26469
822.569	26473
822.709	26526
822.849	26229
822.99	26358
823.13	26339
823.27	26275
823.41	26210
823.55	25959
823.69	26210
823.83	26065
823.97	26035
824.11	25917
824.25	25906
824.389	25951
824.529	26054
824.669	26084
824.809	26134
824.949	26073
825.089	26027
825.228	26062
825.368	25909
825.508	25879
825.648	25917
825.787	25826
825.927	25822
826.067	25784
826.206	25894
826.346	25772
826.485	25864
826.625	25978
826.765	25890
826.904	25826
827.044	25624
827.183	25632
827.323	25635
827.462	25548
827.601	25525
827.741	25502
827.88	25609
828.02	25441
828.159	25548
828.298	25506
828.437	25605
828.577	25578
828.716	25662
828.855	25438
828.994	25297
829.134	25255
829.273	25168
829.412	25183
829.551	25095
829.69	25263
829.829	25270
829.968	25362
830.107	25217
830.246	25247
830.385	25251
830.524	25141
830.663	25072
830.802	25050
830.941	24844
831.08	24760
831.219	24916
831.357	24878
831.496	25069
831.635	24943
831.774	24829
831.913	24833
832.051	24722
832.19	24612
832.329	24684
832.467	24566
832.606	24471
832.744	24559
832.883	24346
833.022	24456
833.16	24429
833.299	24635
833.437	24555
833.576	24426
833.714	24688
833.852	24623
833.991	24547
834.129	24681
834.267	24654
834.406	24582
834.544	24639
834.682	24525
834.821	24498
834.959	24798
835.097	24426
835.235	24525
835.373	24650
835.511	24661
835.65	24429
835.788	24570
835.926	24251
836.064	24330
836.202	24254
836.34	24566
836.478	24445
836.615	24365
836.753	24426
836.891	24380
837.029	24464
837.167	24357
837.305	24304
837.443	24228
837.58	24315
837.718	24388
837.856	24254
837.993	24292
838.131	24304
838.269	24216
838.406	24087
838.544	24022
838.681	23855
838.819	23832
838.956	23729
839.094	23802
839.231	23783
839.369	23908
839.506	24121
839.643	23840
839.781	23684
839.918	23611
840.055	23745
840.193	23604
840.33	23684
840.467	23653
840.604	23703
840.742	23927
840.879	23452
841.016	23611
841.153	23630
841.29	23737
841.427	23516
841.564	23676
841.701	23714
841.838	23604
841.975	23478
842.112	23520
842.249	23585
842.385	23322
842.522	23611
842.659	23452
842.796	23345
842.933	23459
843.069	23356
843.206	23239
843.343	23421
843.479	23360
843.616	23383
843.752	23204
843.889	23227
844.025	23299
844.162	23128
844.298	23143
844.435	23121
844.571	23140
844.708	23299
844.844	23398
844.98	23254
845.117	23322
845.253	23098
845.389	22938
845.525	23113
845.661	22991
845.798	22953
845.934	22934
846.07	22812
846.206	22923
846.342	22999
846.478	22892
846.614	22755
846.75	22607
846.886	22630
847.022	22664
847.158	22637
847.294	22687
847.429	22664
847.565	22577
847.701	22824
847.837	22303
847.972	22238
848.108	22363
848.244	22535
848.379	22188
848.515	22124
848.65	22276
848.786	22272
848.921	22257
849.057	22375
849.192	22310
849.328	22284
849.463	22272
849.598	22207
849.734	22074
849.869	22013
850.004	21903
850.14	21979
850.275	21884
850.41	21937
850.545	21831
850.68	21899
850.815	22013
850.95	21895
851.085	22158
851.22	22074
851.355	22101
851.49	22090
851.625	21918
851.76	21892
851.895	21892
852.03	21857
852.165	21918
852.299	22097
852.434	22078
852.569	22044
852.703	21983
852.838	21922
852.973	22013
853.107	22048
853.242	21983
853.376	21838
853.511	21732
853.645	21823
853.78	21888
853.914	21762
854.048	21686
854.183	21622
854.317	21846
854.451	21846
854.585	21797
854.72	21713
854.854	21918
854.988	21819
855.122	21816
855.256	21663
855.39	21755
855.524	21743
855.658	21926
855.792	21876
855.926	21827
856.06	21869
856.194	21797
856.327	21762
856.461	21679
856.595	21652
856.729	21701
856.862	21953
856.996	21797
857.13	21823
857.263	21911
857.397	21861
857.53	21755
857.664	21884
857.797	21922
857.931	21888
858.064	21850
858.197	21907
858.331	21804
858.464	21679
858.597	21698
858.731	21804
858.864	21724
858.997	21713
859.13	21698
859.263	21781
859.396	21873
859.529	21781
859.662	21698
859.795	21713
859.928	21861
860.061	21831
860.194	21994
860.327	21804
860.46	21713
860.592	21930
860.725	21926
860.858	21884
860.99	21888
861.123	21667
861.256	21656
861.388	21743
861.521	22367
861.653	21743
861.786	21618
861.918	21526
862.05	21747
862.183	21846
862.315	21652
862.447	21682
862.58	21629
862.712	21618
862.844	21458
862.976	21545
863.108	21629
863.24	21892
863.372	21397
863.504	21564
863.636	21538
863.768	21587
863.9	21370
864.032	21412
864.164	21412
864.296	21576
864.428	21629
864.559	21591
864.691	21523
864.823	21549
864.954	21534
865.086	21466
865.217	21435
865.349	21291
865.48	21428
865.612	21325
865.743	21595
865.875	21401
866.006	21313
866.137	21397
866.269	21454
866.4	21313
866.531	21313
866.662	21302
866.793	21363
866.924	21317
867.055	21355
867.186	21283
867.317	21272
867.448	21230
867.579	21382
867.71	21245
867.841	21275
867.972	21363
868.103	21310
868.233	21275
868.364	21226
868.495	21378
868.625	21538
868.756	21622
868.886	21428
869.017	21576
869.147	21603
869.278	21641
869.408	21591
869.539	21466
869.669	21618
869.799	21587
869.929	21660
870.06	21591
870.19	21869
870.32	21800
870.45	21945
870.58	21972
870.71	22169
870.84	22074
870.97	21964
871.1	22070
871.23	22097
871.36	22261
871.489	21930
871.619	22090
871.749	22150
871.879	22196
872.008	22371
872.138	22173
872.267	22074
872.397	22070
872.526	22055
872.656	22006
872.785	22112
872.915	22192
873.044	22162
873.173	22173
873.303	22147
873.432	22261
873.561	22238
873.69	22181
873.819	22124
873.948	22238
874.077	22086
874.206	22150
874.335	22310
874.464	22314
874.593	22440
874.722	22451
874.851	22500
874.979	22390
875.108	22504
875.237	22371
875.365	22341
875.494	22421
875.623	22447
875.751	22363
875.88	22405
876.008	22527
876.136	22478
876.265	22721
876.393	22972
876.521	22889
876.65	22854
876.778	22915
876.906	22763
877.034	22599
877.162	22793
877.29	22778
877.418	22664
877.546	22736
877.674	22653
877.802	22820
877.93	22790
878.058	22637
878.185	22630
878.313	22740
878.441	22752
878.568	22531
878.696	22706
878.824	22744
878.951	22919
879.079	22946
879.206	23033
879.333	22953
879.461	22744
879.588	22862
879.715	22896
879.842	22892
879.97	22873
880.097	22634
880.224	22615
880.351	22546
880.478	22664
880.605	22538
880.732	22493
880.859	22774
880.986	22516
881.112	22649
881.239	22478
881.366	22421
881.493	22097
881.619	22067
881.746	22268
881.872	22363
881.999	22120
882.125	21979
882.252	22078
882.378	22109
882.505	22177
882.631	22013
882.757	21915
882.883	21945
883.01	21892
883.136	21717
883.262	21709
883.388	21538
883.514	21854
883.64	21876
883.766	21720
883.892	21625
884.018	21583
884.143	21766
884.269	21899
884.395	21511
884.52	21447
884.646	21496
884.772	21389
884.897	21408
885.023	21355
885.148	21530
885.274	21519
885.399	21561
885.524	21458
885.65	21439
885.775	21447
885.9	21523
886.025	21580
886.15	21549
886.275	21450
886.4	21374
886.525	21389
886.65	21336
886.775	21321
886.9	21553
887.025	21637
887.149	21443
887.274	21199
887.399	21165
887.523	21146
887.648	21249
887.773	21222
887.897	21275
888.021	21401
888.146	21176
888.27	21291
888.395	21287
888.519	21233
888.643	21260
888.767	21310
888.891	21123
889.015	21058
889.139	21154
889.263	20998
889.387	21150
889.511	21226
889.635	21077
889.759	20975
889.883	21077
890.006	21043
890.13	21241
890.254	20982
890.377	20979
890.501	20864
890.624	20758
890.748	20682
890.871	20621
890.995	20564
891.118	20549
891.241	20507
891.364	20590
891.488	20625
891.611	20583
891.734	20670
891.857	20598
891.98	20598
892.103	20587
892.226	20636
892.349	20537
892.471	20294
892.594	20530
892.717	20526
892.839	20537
892.962	20514
893.085	20579
893.207	20438
893.33	20427
893.452	20332
893.575	20564
893.697	20499
893.819	20438
893.941	20705
894.064	20590
894.186	20492
894.308	20256
894.43	20423
894.552	20682
894.674	20564
894.796	20328
894.918	20423
895.04	20374
895.161	20537
895.283	20568
895.405	20415
895.526	20450
895.648	20404
895.769	20396
895.891	20518
896.012	20530
896.134	20522
896.255	20438
896.376	20282
896.498	20465
896.619	20484
896.74	20514
896.861	20575
896.982	20826
897.103	20857
897.224	20739
897.345	20648
897.466	20724
897.587	20598
897.708	20830
897.828	20819
897.949	20590
898.07	20473
898.19	20549
898.311	20739
898.431	20693
898.552	20705
898.672	20724
898.792	20838
898.913	20651
899.033	20579
899.153	20587
899.273	20362
899.393	20438
899.513	20503
899.633	20514
899.753	20408
899.873	20355
899.993	20480
900.113	20377
900.232	20431
900.352	20408
900.472	20320
900.591	20161
900.711	20176
900.83	20187
900.95	20294
901.069	20362
901.189	20058
901.308	19849
901.427	19719
901.546	19902
901.665	19772
901.784	19803
901.904	19677
902.023	19510
902.141	19377
902.26	19274
902.379	19369
902.498	19312
902.617	19228
902.735	19274
902.854	19263
902.973	19118
903.091	18913
903.21	19091
903.328	18993
903.446	18894
903.565	18806
903.683	18867
903.801	18627
903.919	18817
904.038	18642
904.156	18525
904.274	18585
904.392	18452
904.51	18540
904.627	18540
904.745	18410
904.863	18540
904.981	18304
905.098	18213
905.216	18167
905.334	18239
905.451	18258
905.569	18098
905.686	18152
905.803	18064
905.921	17908
906.038	17984
906.155	17996
906.272	17916
906.389	17901
906.506	17733
906.623	17741
906.74	17764
906.857	17554
906.974	17577
907.091	17802
907.208	17889
907.324	17684
907.441	17570
907.557	17501
907.674	17444
907.79	17379
907.907	17349
908.023	17455
908.139	17570
908.256	17307
908.372	17303
908.488	17345
908.604	17197
908.72	17109
908.836	17162
908.952	17075
909.068	17140
909.184	17223
909.3	17147
909.415	17071
909.531	17178
909.647	16877
909.762	16862
909.878	16828
909.993	16858
910.108	16824
910.224	16896
910.339	16843
910.454	16793
910.57	16565
910.685	16603
910.8	16889
910.915	16828
911.03	16645
911.145	16447
911.259	16318
911.374	16379
911.489	16337
911.604	16379
911.718	16280
911.833	16192
911.947	16169
912.062	16082
912.176	16166
912.291	16120
912.405	16265
912.519	16371
912.633	16341
912.748	16173
912.862	16219
912.976	16010
913.09	15945
913.204	15960
913.318	15861
913.431	16078
913.545	16013
913.659	16097
913.772	15861
913.886	15819
914	15804
914.113	15888
914.226	15945
914.34	15793
914.453	15637
914.566	15884
914.68	15663
914.793	15614
914.906	15492
915.019	15317
915.132	15336
915.245	15397
915.358	15389
915.47	15374
915.583	15389
915.696	15412
915.809	15473
915.921	15450
916.034	15397
916.146	15374
916.259	15321
916.371	15363
916.483	15207
916.595	15112
916.708	15298
916.82	15207
916.932	15310
917.044	15157
917.156	15108
917.268	15013
917.38	15093
917.491	15043
917.603	14998
917.715	15081
917.826	15081
917.938	14929
918.049	14868
918.161	14979
918.272	15138
918.384	15047
918.495	14891
918.606	14800
918.717	14727
918.828	14826
918.939	14800
919.05	14667
919.161	14800
919.272	14568
919.383	14648
919.494	14853
919.604	14979
919.715	14712
919.826	14720
919.936	14735
920.047	14902
920.157	14838
920.267	14929
920.378	14777
920.488	14724
920.598	14941
920.708	15074
920.818	14807
920.928	14906
921.038	15009
921.148	14994
921.258	14663
921.368	14636
921.477	14457
921.587	14434
921.697	14351
921.806	14503
921.916	14370
922.025	14164
922.134	14142
922.244	14142
922.353	14107
922.462	14096
922.571	14016
922.68	13807
922.789	13826
922.898	13715
923.007	13662
923.116	13822
923.224	13746
923.333	13708
923.442	13594
923.55	13582
923.659	13628
923.767	13499
923.876	13518
923.984	13571
924.092	13487
924.201	13552
924.309	13460
924.417	13609
924.525	13460
924.633	13472
924.741	14320
924.849	13141
924.956	13350
925.064	13217
925.172	13072
925.279	13171
925.387	13206
925.494	13152
925.602	13263
925.709	13118
925.816	13122
925.924	13023
926.031	13168
926.138	13126
926.245	13141
926.352	13034
926.459	13069
926.566	13126
926.673	12973
926.779	12981
926.886	12966
926.993	12791
927.099	12783
927.206	12696
927.312	12597
927.419	12688
927.525	12730
927.631	12783
927.737	12559
927.843	12540
927.95	12494
928.056	12445
928.162	12585
928.267	12559
928.373	13187
928.479	12559
928.585	12388
928.69	12528
928.796	12467
928.901	12380
929.007	12323
929.112	12319
929.218	12414
929.323	12300
929.428	12247
929.533	12361
929.638	12235
929.743	12228
929.848	12251
929.953	12224
930.058	12072
930.163	11958
930.267	11912
930.372	11996
930.477	12019
930.581	12140
930.685	11965
930.79	11859
930.894	11851
930.998	11783
931.103	11912
931.207	11539
931.311	11532
931.415	11417
931.519	11269
931.623	11250
