Data from test_V78500241_2647.txt Node
Date: Fri Mar 25 16:00:08 CST 2022
User: usil
Spectrometer: V785-0024
Trigger mode: 0
Integration Time (sec): 4.000000E-1
Scans to average: 1
Nonlinearity correction enabled: false
Boxcar width: 0
Storing dark spectrum: false
XAxis mode: Wavelengths
Number of Pixels in Spectrum: 1024
>>>>>Begin Spectral Data<<<<<
801.071	28139
801.214	28196
801.356	28063
801.499	27911
801.641	27831
801.783	27854
801.926	27819
802.068	27755
802.211	27663
802.353	27728
802.496	27595
802.638	27405
802.78	27454
802.923	27389
803.065	27386
803.208	27355
803.35	27507
803.492	27534
803.635	27713
803.777	27538
803.919	27591
804.061	27907
804.204	27774
804.346	27625
804.488	27572
804.63	27652
804.773	27519
804.915	27800
805.057	27827
805.199	27720
805.341	27599
805.483	27816
805.626	27880
805.768	27682
805.91	27831
806.052	27789
806.194	27804
806.336	27892
806.478	27766
806.62	27937
806.762	27972
806.904	28055
807.046	28314
807.188	28166
807.33	28131
807.472	28242
807.614	28272
807.756	28101
807.898	28131
808.04	27991
808.182	28029
808.324	28101
808.465	28120
808.607	28299
808.749	28466
808.891	28672
809.033	28683
809.174	28531
809.316	28500
809.458	28538
809.6	28459
809.741	28710
809.883	28588
810.025	28630
810.166	28736
810.308	28694
810.45	28683
810.591	28679
810.733	28573
810.875	28440
811.016	28379
811.158	28447
811.299	28645
811.441	28626
811.582	28512
811.724	28459
811.865	28436
812.007	28478
812.148	28561
812.29	28607
812.431	28580
812.573	28816
812.714	28869
812.855	28965
812.997	29018
813.138	29155
813.279	29197
813.421	28991
813.562	28869
813.703	28862
813.845	28656
813.986	28432
814.127	28238
814.268	28253
814.41	28280
814.551	28246
814.692	28242
814.833	28200
814.974	28082
815.115	28192
815.256	27994
815.397	28116
815.539	27945
815.68	28013
815.821	27869
815.962	28029
816.103	27876
816.244	27895
816.385	27781
816.526	27701
816.666	27580
816.807	27466
816.948	27576
817.089	27526
817.23	27485
817.371	27386
817.512	27397
817.653	27549
817.793	27488
817.934	27397
818.075	27515
818.216	27435
818.356	27424
818.497	27447
818.638	27131
818.778	27268
818.919	27268
819.06	27313
819.2	27393
819.341	27511
819.481	27447
819.622	27660
819.762	27751
819.903	27759
820.043	27701
820.184	27717
820.324	27530
820.465	27644
820.605	27599
820.746	27679
820.886	27454
821.026	27454
821.167	27523
821.307	27671
821.447	27496
821.588	27393
821.728	27431
821.868	27138
822.008	26899
822.149	26952
822.289	27020
822.429	26788
822.569	26583
822.709	26629
822.849	26522
822.99	26404
823.13	26469
823.27	26499
823.41	26286
823.55	26191
823.69	26374
823.83	26336
823.97	26286
824.11	26180
824.25	26126
824.389	26142
824.529	26256
824.669	26100
824.809	26176
824.949	26103
825.089	26187
825.228	26161
825.368	26008
825.508	26008
825.648	25982
825.787	26039
825.927	25963
826.067	25917
826.206	25944
826.346	26202
826.485	26103
826.625	25845
826.765	26100
826.904	26138
827.044	25750
827.183	25731
827.323	25681
827.462	25837
827.601	25788
827.741	25613
827.88	25662
828.02	25643
828.159	25563
828.298	25742
828.437	25864
828.577	25537
828.716	25814
828.855	25460
828.994	25384
829.134	25384
829.273	25381
829.412	25316
829.551	25301
829.69	25335
829.829	25422
829.968	25464
830.107	25544
830.246	25403
830.385	25346
830.524	25320
830.663	25164
830.802	25122
830.941	25027
831.08	25050
831.219	24977
831.357	25107
831.496	25171
831.635	24977
831.774	25023
831.913	24776
832.051	24814
832.19	24730
832.329	24787
832.467	24616
832.606	24703
832.744	24688
832.883	24544
833.022	24540
833.16	24650
833.299	24798
833.437	24707
833.576	24726
833.714	24741
833.852	24871
833.991	24650
834.129	24829
834.267	24700
834.406	24726
834.544	24798
834.682	24787
834.821	24700
834.959	24905
835.097	24707
835.235	24878
835.373	24684
835.511	24703
835.65	24563
835.788	24604
835.926	24555
836.064	24369
836.202	24414
836.34	24578
836.478	24692
836.615	24365
836.753	24509
836.891	24623
837.029	24563
837.167	24483
837.305	24437
837.443	24536
837.58	24308
837.718	24338
837.856	24365
837.993	24308
838.131	24311
838.269	24258
838.406	24289
838.544	24148
838.681	24003
838.819	23958
838.956	23882
839.094	23897
839.231	23882
839.369	24087
839.506	24243
839.643	24178
839.781	23809
839.918	23851
840.055	23741
840.193	23798
840.33	23718
840.467	23695
840.604	23821
840.742	24007
840.879	23608
841.016	23821
841.153	23592
841.29	23760
841.427	23771
841.564	23779
841.701	23733
841.838	23794
841.975	23604
842.112	23718
842.249	23490
842.385	23478
842.522	23832
842.659	23589
842.796	23600
842.933	23543
843.069	23539
843.206	23429
843.343	23623
843.479	23547
843.616	23585
843.752	23356
843.889	23372
844.025	23356
844.162	23246
844.298	23463
844.435	23311
844.571	23261
844.708	23349
844.844	23429
844.98	23573
845.117	23398
845.253	23212
845.389	23159
845.525	23155
845.661	23159
845.798	23086
845.934	23220
846.07	23003
846.206	23067
846.342	23117
846.478	23037
846.614	22691
846.75	22645
846.886	22805
847.022	22919
847.158	22904
847.294	22847
847.429	22763
847.565	22748
847.701	23079
847.837	22531
847.972	22462
848.108	22584
848.244	22557
848.379	22409
848.515	22356
848.65	22352
848.786	22382
848.921	22344
849.057	22447
849.192	22421
849.328	22318
849.463	22325
849.598	22219
849.734	22280
849.869	22280
850.004	22032
850.14	22112
850.275	22204
850.41	22082
850.545	22097
850.68	22116
850.815	22166
850.95	22105
851.085	22238
851.22	22253
851.355	22230
851.49	22067
851.625	22109
851.76	22074
851.895	22051
852.03	22006
852.165	22059
852.299	22067
852.434	22109
852.569	22101
852.703	22112
852.838	22253
852.973	22211
853.107	22166
853.242	22029
853.376	21983
853.511	21907
853.645	21804
853.78	22013
853.914	21956
854.048	21918
854.183	21926
854.317	21854
854.451	22048
854.585	21972
854.72	21937
854.854	22063
854.988	21953
855.122	21983
855.256	21823
855.39	21895
855.524	22013
855.658	21968
855.792	21994
855.926	21918
856.06	21979
856.194	21991
856.327	21873
856.461	21846
856.595	21888
856.729	21876
856.862	22025
856.996	21983
857.13	21987
857.263	22051
857.397	21968
857.53	21998
857.664	21953
857.797	21922
857.931	22059
858.064	22021
858.197	22093
858.331	21907
858.464	21865
858.597	21873
858.731	21899
858.864	21903
858.997	21937
859.13	21857
859.263	21918
859.396	22021
859.529	21968
859.662	21895
859.795	21926
859.928	21972
860.061	22101
860.194	22173
860.327	21941
860.46	21960
860.592	22040
860.725	22025
860.858	22048
860.99	21998
861.123	21827
861.256	21873
861.388	21937
861.521	22759
861.653	21827
861.786	21652
861.918	21865
862.05	21762
862.183	21861
862.315	21930
862.447	21945
862.58	21804
862.712	21671
862.844	21587
862.976	21774
863.108	21732
863.24	22002
863.372	21591
863.504	21572
863.636	21686
863.768	21679
863.9	21694
864.032	21587
864.164	21572
864.296	21675
864.428	21694
864.559	21667
864.691	21690
864.823	21743
864.954	21694
865.086	21523
865.217	21572
865.349	21614
865.48	21469
865.612	21572
865.743	21709
865.875	21523
866.006	21515
866.137	21549
866.269	21507
866.4	21523
866.531	21485
866.662	21488
866.793	21401
866.924	21618
867.055	21511
867.186	21534
867.317	21393
867.448	21367
867.579	21473
867.71	21370
867.841	21439
867.972	21519
868.103	21431
868.233	21526
868.364	21382
868.495	21694
868.625	21641
868.756	21945
868.886	21633
869.017	21679
869.147	21732
869.278	21876
869.408	21766
869.539	21671
869.669	21804
869.799	21739
869.929	21838
870.06	21747
870.19	21960
870.32	22090
870.45	21987
870.58	22154
870.71	22173
870.84	22166
870.97	22131
871.1	21998
871.23	22257
871.36	22402
871.489	22284
871.619	22230
871.749	22318
871.879	22360
872.008	22489
872.138	22398
872.267	22249
872.397	22192
872.526	22082
872.656	22162
872.785	22059
872.915	22219
873.044	22405
873.173	22512
873.303	22436
873.432	22390
873.561	22402
873.69	22379
873.819	22421
873.948	22352
874.077	22314
874.206	22344
874.335	22367
874.464	22470
874.593	22527
874.722	22402
874.851	22603
874.979	22550
875.108	22702
875.237	22447
875.365	22424
875.494	22493
875.623	22698
875.751	22580
875.88	22546
876.008	22672
876.136	22771
876.265	22991
876.393	23159
876.521	23067
876.65	23003
876.778	22911
876.906	22904
877.034	22858
877.162	23037
877.29	22816
877.418	22904
877.546	22812
877.674	22869
877.802	22866
877.93	22877
878.058	22793
878.185	22721
878.313	22881
878.441	22866
878.568	22653
878.696	22896
878.824	22866
878.951	22987
879.079	23025
879.206	23109
879.333	23132
879.461	22942
879.588	22984
879.715	23102
879.842	23143
879.97	22965
880.097	22809
880.224	22725
880.351	22694
880.478	22740
880.605	22755
880.732	22687
880.859	22987
880.986	22717
881.112	22759
881.239	22577
881.366	22421
881.493	22341
881.619	22386
881.746	22333
881.872	22363
881.999	22223
882.125	22143
882.252	22314
882.378	22246
882.505	22352
882.631	22131
882.757	21823
882.883	22032
883.01	21987
883.136	21972
883.262	21804
883.388	21789
883.514	22078
883.64	22006
883.766	21831
883.892	21770
884.018	21823
884.143	21979
884.269	21934
884.395	21709
884.52	21583
884.646	21724
884.772	21515
884.897	21401
885.023	21625
885.148	21728
885.274	21705
885.399	21739
885.524	21538
885.65	21511
885.775	21663
885.9	21469
886.025	21751
886.15	21644
886.275	21443
886.4	21454
886.525	21553
886.65	21580
886.775	21538
886.9	21682
887.025	21755
887.149	21614
887.274	21424
887.399	21332
887.523	21378
887.648	21348
887.773	21268
887.897	21412
888.021	21359
888.146	21321
888.27	21447
888.395	21405
888.519	21447
888.643	21412
888.767	21507
888.891	21287
889.015	21260
889.139	21207
889.263	21161
889.387	21230
889.511	21424
889.635	21146
889.759	21173
889.883	21070
890.006	21096
890.13	21279
890.254	21157
890.377	20910
890.501	21085
890.624	20899
890.748	21043
890.871	20804
890.995	20754
891.118	20686
891.241	20693
891.364	20693
891.488	20853
891.611	20788
891.734	20807
891.857	20769
891.98	20777
892.103	20674
892.226	20716
892.349	20598
892.471	20499
892.594	20743
892.717	20632
892.839	20632
892.962	20621
893.085	20724
893.207	20609
893.33	20503
893.452	20454
893.575	20720
893.697	20621
893.819	20849
893.941	20781
894.064	20712
894.186	20488
894.308	20541
894.43	20644
894.552	20773
894.674	20746
894.796	20446
894.918	20602
895.04	20560
895.161	20746
895.283	20579
895.405	20598
895.526	20648
895.648	20701
895.769	20621
895.891	20549
896.012	20720
896.134	20640
896.255	20701
896.376	20648
896.498	20659
896.619	20632
896.74	20537
896.861	20640
896.982	20872
897.103	21085
897.224	20952
897.345	20785
897.466	20762
897.587	20788
897.708	20819
897.828	20929
897.949	20876
898.07	20686
898.19	20708
898.311	20857
898.431	20769
898.552	20872
898.672	21009
898.792	20823
898.913	20800
899.033	20697
899.153	20625
899.273	20545
899.393	20549
899.513	20625
899.633	20549
899.753	20564
899.873	20476
899.993	20571
900.113	20522
900.232	20381
900.352	20488
900.472	20362
900.591	20320
900.711	20343
900.83	20298
900.95	20480
901.069	20389
901.189	20199
901.308	20096
901.427	19932
901.546	19936
901.665	20058
901.784	19906
901.904	19814
902.023	19655
902.141	19422
902.26	19419
902.379	19434
902.498	19594
902.617	19403
902.735	19480
902.854	19396
902.973	19350
903.091	19095
903.21	19050
903.328	19088
903.446	19042
903.565	18920
903.683	18916
903.801	18764
903.919	18833
904.038	18871
904.156	18616
904.274	18768
904.392	18528
904.51	18658
904.627	18696
904.745	18684
904.863	18757
904.981	18513
905.098	18330
905.216	18448
905.334	18372
905.451	18243
905.569	18338
905.686	18365
905.803	18216
905.921	18133
906.038	18140
906.155	18167
906.272	17893
906.389	18053
906.506	17847
906.623	17950
906.74	17946
906.857	17737
906.974	17718
907.091	17889
907.208	18019
907.324	17802
907.441	17680
907.557	17627
907.674	17619
907.79	17440
907.907	17554
908.023	17463
908.139	17566
908.256	17391
908.372	17372
908.488	17425
908.604	17341
908.72	17318
908.836	17299
908.952	17330
909.068	17299
909.184	17299
909.3	17372
909.415	17269
909.531	17239
909.647	17010
909.762	16968
909.878	16919
909.993	16892
910.108	16961
910.224	16923
910.339	16915
910.454	16881
910.57	16869
910.685	16607
910.8	16972
910.915	16873
911.03	16839
911.145	16607
911.259	16577
911.374	16615
911.489	16542
911.604	16367
911.718	16306
911.833	16493
911.947	16284
912.062	16272
912.176	16360
912.291	16276
912.405	16333
912.519	16550
912.633	16451
912.748	16341
912.862	16287
912.976	16105
913.09	16048
913.204	16162
913.318	16074
913.431	16188
913.545	16219
913.659	16181
913.772	16059
913.886	15926
914	15865
914.113	16067
914.226	16017
914.34	15937
914.453	15797
914.566	15907
914.68	15838
914.793	15747
914.906	15622
915.019	15511
915.132	15515
915.245	15507
915.358	15519
915.47	15412
915.583	15473
915.696	15492
915.809	15591
915.921	15686
916.034	15504
916.146	15378
916.259	15405
916.371	15424
916.483	15393
916.595	15363
916.708	15287
916.82	15249
916.932	15310
917.044	15237
917.156	15272
917.268	15066
917.38	15161
917.491	15123
917.603	15081
917.715	15097
917.826	15237
917.938	15066
918.049	14971
918.161	14979
918.272	15108
918.384	15169
918.495	15043
918.606	14807
918.717	14895
918.828	14902
918.939	14902
919.05	14826
919.161	14807
919.272	14670
919.383	14682
919.494	14937
919.604	15055
919.715	14914
919.826	14765
919.936	14804
920.047	14921
920.157	14804
920.267	14967
920.378	14921
920.488	14887
920.598	15058
920.708	15180
920.818	15062
920.928	14963
921.038	15233
921.148	15070
921.258	14788
921.368	14746
921.477	14564
921.587	14518
921.697	14495
921.806	14758
921.916	14389
922.025	14480
922.134	14290
922.244	14130
922.353	14362
922.462	14134
922.571	14054
922.68	13917
922.789	13947
922.898	13928
923.007	13879
923.116	13909
923.224	13795
923.333	13909
923.442	13780
923.55	13795
923.659	13712
923.767	13750
923.876	13670
923.984	13811
924.092	13563
924.201	13616
924.309	13639
924.417	13605
924.525	13559
924.633	13552
924.741	14457
924.849	13304
924.956	13468
925.064	13362
925.172	13209
925.279	13259
925.387	13304
925.494	13270
925.602	13400
925.709	13350
925.816	13228
925.924	13236
926.031	13282
926.138	13225
926.245	13247
926.352	13183
926.459	13251
926.566	13419
926.673	13187
926.779	13046
926.886	13069
926.993	12928
927.099	12905
927.206	12814
927.312	12795
927.419	12985
927.525	12829
927.631	12848
927.737	12707
927.843	12703
927.95	12631
928.056	12635
928.162	12623
928.267	12700
928.373	13190
928.479	12795
928.585	12547
928.69	12612
928.796	12673
928.901	12513
929.007	12357
929.112	12391
929.218	12456
929.323	12380
929.428	12342
929.533	12574
929.638	12323
929.743	12372
929.848	12445
929.953	12289
930.058	12247
930.163	11988
930.267	12144
930.372	12186
930.477	12079
930.581	12224
930.685	12106
930.79	11935
930.894	12045
930.998	11954
931.103	12060
931.207	11707
931.311	11608
931.415	11505
931.519	11265
931.623	11349
