Data from test_V78500241_1406.txt Node
Date: Fri Mar 25 15:51:32 CST 2022
User: usil
Spectrometer: V785-0024
Trigger mode: 0
Integration Time (sec): 4.000000E-1
Scans to average: 1
Nonlinearity correction enabled: false
Boxcar width: 0
Storing dark spectrum: false
XAxis mode: Wavelengths
Number of Pixels in Spectrum: 1024
>>>>>Begin Spectral Data<<<<<
801.071	27854
801.214	27998
801.356	27686
801.499	27648
801.641	27447
801.783	27481
801.926	27599
802.068	27568
802.211	27424
802.353	27427
802.496	27135
802.638	27310
802.78	27085
802.923	27131
803.065	26994
803.208	27009
803.35	27119
803.492	27256
803.635	27386
803.777	27264
803.919	27477
804.061	27827
804.204	27466
804.346	27344
804.488	27226
804.63	27336
804.773	27226
804.915	27443
805.057	27542
805.199	27367
805.341	27492
805.483	27439
805.626	27564
805.768	27477
805.91	27542
806.052	27606
806.194	27469
806.336	27637
806.478	27500
806.62	27587
806.762	27595
806.904	27831
807.046	28032
807.188	27876
807.33	27949
807.472	28074
807.614	27869
807.756	27838
807.898	27895
808.04	27759
808.182	27698
808.324	27842
808.465	27766
808.607	28036
808.749	28097
808.891	28303
809.033	28333
809.174	28211
809.316	28200
809.458	28116
809.6	28128
809.741	28257
809.883	28394
810.025	28447
810.166	28390
810.308	28607
810.45	28375
810.591	28322
810.733	28158
810.875	28226
811.016	27956
811.158	27953
811.299	28185
811.441	28291
811.582	28341
811.724	28188
811.865	28173
812.007	28109
812.148	28078
812.29	28177
812.431	28405
812.573	28531
812.714	28493
812.855	28615
812.997	28767
813.138	28919
813.279	28702
813.421	28717
813.562	28599
813.703	28451
813.845	28424
813.986	28109
814.127	27857
814.268	27869
814.41	27937
814.551	27751
814.692	27964
814.833	27816
814.974	27808
815.115	27831
815.256	27781
815.397	27865
815.539	27770
815.68	27671
815.821	27774
815.962	27686
816.103	27656
816.244	27519
816.385	27466
816.526	27378
816.666	27260
816.807	27192
816.948	27085
817.089	27180
817.23	27104
817.371	27142
817.512	27207
817.653	27233
817.793	27001
817.934	27104
818.075	27085
818.216	27085
818.356	27096
818.497	27036
818.638	26944
818.778	26895
818.919	26899
819.06	27062
819.2	26887
819.341	27100
819.481	27096
819.622	27260
819.762	27447
819.903	27348
820.043	27222
820.184	27291
820.324	27192
820.465	27405
820.605	27249
820.746	27169
820.886	27169
821.026	27336
821.167	27127
821.307	27302
821.447	27112
821.588	27028
821.728	27036
821.868	26667
822.008	26568
822.149	26583
822.289	26625
822.429	26305
822.569	26336
822.709	26210
822.849	26122
822.99	26027
823.13	26176
823.27	26058
823.41	25989
823.55	25750
823.69	25932
823.83	25940
823.97	25986
824.11	25784
824.25	25799
824.389	25712
824.529	25788
824.669	25715
824.809	25830
824.949	25837
825.089	25811
825.228	25662
825.368	25567
825.508	25624
825.648	25575
825.787	25696
825.927	25677
826.067	25620
826.206	25544
826.346	25685
826.485	25731
826.625	25685
826.765	25723
826.904	25460
827.044	25403
827.183	25327
827.323	25282
827.462	25453
827.601	25327
827.741	25133
827.88	25441
828.02	25088
828.159	25278
828.298	25274
828.437	25407
828.577	25244
828.716	25392
828.855	25354
828.994	24992
829.134	25190
829.273	25008
829.412	25015
829.551	25023
829.69	25019
829.829	25103
829.968	24996
830.107	25171
830.246	24901
830.385	24905
830.524	24894
830.663	24882
830.802	24620
830.941	24753
831.08	24665
831.219	24589
831.357	24631
831.496	24764
831.635	24525
831.774	24536
831.913	24570
832.051	24391
832.19	24414
832.329	24338
832.467	24342
832.606	24235
832.744	24182
832.883	24308
833.022	24205
833.16	24391
833.299	24239
833.437	24201
833.576	24517
833.714	24384
833.852	24422
833.991	24369
834.129	24475
834.267	24350
834.406	24350
834.544	24315
834.682	24319
834.821	24262
834.959	24513
835.097	24311
835.235	24426
835.373	24205
835.511	24292
835.65	24091
835.788	24163
835.926	24015
836.064	23931
836.202	24018
836.34	24190
836.478	24342
836.615	24258
836.753	24190
836.891	24205
837.029	24262
837.167	24140
837.305	24098
837.443	24049
837.58	23977
837.718	24038
837.856	23992
837.993	23935
838.131	23927
838.269	23996
838.406	23889
838.544	23748
838.681	23531
838.819	23600
838.956	23474
839.094	23596
839.231	23581
839.369	23680
839.506	23950
839.643	23642
839.781	23512
839.918	23303
840.055	23452
840.193	23322
840.33	23402
840.467	23493
840.604	23436
840.742	23699
840.879	23349
841.016	23383
841.153	23452
841.29	23524
841.427	23474
841.564	23528
841.701	23455
841.838	23414
841.975	23280
842.112	23368
842.249	23227
842.385	23151
842.522	23383
842.659	23098
842.796	23094
842.933	23178
843.069	23178
843.206	22995
843.343	23162
843.479	23208
843.616	23178
843.752	22938
843.889	22927
844.025	23075
844.162	22877
844.298	22949
844.435	23006
844.571	22889
844.708	22980
844.844	23117
844.98	22927
845.117	23041
845.253	22812
845.389	22820
845.525	22877
845.661	22839
845.798	22622
845.934	22675
846.07	22527
846.206	22721
846.342	22717
846.478	22637
846.614	22478
846.75	22341
846.886	22379
847.022	22409
847.158	22352
847.294	22322
847.429	22466
847.565	22379
847.701	22626
847.837	22120
847.972	22025
848.108	22177
848.244	22284
848.379	22021
848.515	21960
848.65	21842
848.786	21930
848.921	21926
849.057	22017
849.192	22002
849.328	22048
849.463	22048
849.598	21865
849.734	21926
849.869	21816
850.004	21713
850.14	21747
850.275	21789
850.41	21591
850.545	21633
850.68	21743
850.815	21888
850.95	21709
851.085	21895
851.22	21903
851.355	21694
851.49	21781
851.625	21755
851.76	21633
851.895	21599
852.03	21682
852.165	21804
852.299	21774
852.434	21831
852.569	21827
852.703	21766
852.838	21892
852.973	21819
853.107	21797
853.242	21618
853.376	21610
853.511	21435
853.645	21504
853.78	21561
853.914	21595
854.048	21564
854.183	21534
854.317	21564
854.451	21747
854.585	21576
854.72	21553
854.854	21610
854.988	21420
855.122	21564
855.256	21439
855.39	21481
855.524	21637
855.658	21641
855.792	21572
855.926	21576
856.06	21641
856.194	21641
856.327	21523
856.461	21561
856.595	21458
856.729	21477
856.862	21709
856.996	21576
857.13	21542
857.263	21656
857.397	21633
857.53	21545
857.664	21587
857.797	21633
857.931	21671
858.064	21553
858.197	21675
858.331	21564
858.464	21591
858.597	21462
858.731	21538
858.864	21530
858.997	21652
859.13	21507
859.263	21644
859.396	21637
859.529	21682
859.662	21564
859.795	21443
859.928	21553
860.061	21690
860.194	21831
860.327	21603
860.46	21462
860.592	21656
860.725	21808
860.858	21808
860.99	21549
861.123	21507
861.256	21591
861.388	21648
861.521	22226
861.653	21553
861.786	21302
861.918	21302
862.05	21393
862.183	21462
862.315	21477
862.447	21633
862.58	21576
862.712	21291
862.844	21135
862.976	21302
863.108	21348
863.24	21842
863.372	21302
863.504	21161
863.636	21252
863.768	21237
863.9	21431
864.032	21306
864.164	21260
864.296	21374
864.428	21154
864.559	21378
864.691	21374
864.823	21332
864.954	21367
865.086	21226
865.217	21146
865.349	21207
865.48	21119
865.612	21218
865.743	21329
865.875	21123
866.006	21024
866.137	21169
866.269	21173
866.4	21112
866.531	21112
866.662	21184
866.793	21062
866.924	21089
867.055	21096
867.186	21180
867.317	21036
867.448	21093
867.579	21138
867.71	21005
867.841	21096
867.972	21112
868.103	21131
868.233	21142
868.364	21009
868.495	21211
868.625	21317
868.756	21408
868.886	21272
869.017	21435
869.147	21412
869.278	21431
869.408	21336
869.539	21367
869.669	21401
869.799	21401
869.929	21443
870.06	21488
870.19	21633
870.32	21599
870.45	21610
870.58	21618
870.71	21899
870.84	21816
870.97	21720
871.1	21759
871.23	21991
871.36	22006
871.489	21793
871.619	21918
871.749	21903
871.879	21857
872.008	22143
872.138	22093
872.267	21835
872.397	21743
872.526	21743
872.656	21842
872.785	21800
872.915	22036
873.044	22006
873.173	22074
873.303	21975
873.432	22097
873.561	22082
873.69	22013
873.819	21975
873.948	21956
874.077	21949
874.206	22032
874.335	22029
874.464	22082
874.593	22276
874.722	22143
874.851	22211
874.979	22246
875.108	22299
875.237	22074
875.365	22143
875.494	22276
875.623	22352
875.751	22150
875.88	22188
876.008	22405
876.136	22432
876.265	22618
876.393	22641
876.521	22618
876.65	22573
876.778	22641
876.906	22561
877.034	22474
877.162	22565
877.29	22542
877.418	22561
877.546	22630
877.674	22725
877.802	22557
877.93	22447
878.058	22557
878.185	22394
878.313	22607
878.441	22478
878.568	22375
878.696	22577
878.824	22653
878.951	22641
879.079	22774
879.206	22858
879.333	22759
879.461	22557
879.588	22755
879.715	22782
879.842	22889
879.97	22622
880.097	22497
880.224	22367
880.351	22447
880.478	22356
880.605	22379
880.732	22295
880.859	22584
880.986	22421
881.112	22394
881.239	22196
881.366	22032
881.493	21956
881.619	22002
881.746	21949
881.872	22036
881.999	21956
882.125	21926
882.252	22173
882.378	21949
882.505	22059
882.631	21778
882.757	21736
882.883	21774
883.01	21739
883.136	21595
883.262	21557
883.388	21443
883.514	21538
883.64	21660
883.766	21515
883.892	21523
884.018	21439
884.143	21595
884.269	21701
884.395	21420
884.52	21268
884.646	21336
884.772	21165
884.897	21199
885.023	21317
885.148	21302
885.274	21485
885.399	21298
885.524	21336
885.65	21222
885.775	21287
885.9	21279
886.025	21458
886.15	21367
886.275	21340
886.4	21233
886.525	21104
886.65	21127
886.775	21268
886.9	21450
887.025	21488
887.149	21329
887.274	21028
887.399	21066
887.523	21051
887.648	21104
887.773	20986
887.897	21222
888.021	21070
888.146	20994
888.27	21127
888.395	21058
888.519	21108
888.643	21058
888.767	21135
888.891	20937
889.015	20811
889.139	20880
889.263	20800
889.387	20998
889.511	21066
889.635	20914
889.759	20891
889.883	20845
890.006	20804
890.13	20937
890.254	20773
890.377	20758
890.501	20598
890.624	20640
890.748	20640
890.871	20552
890.995	20419
891.118	20309
891.241	20427
891.364	20438
891.488	20526
891.611	20545
891.734	20473
891.857	20511
891.98	20488
892.103	20370
892.226	20461
892.349	20385
892.471	20142
892.594	20374
892.717	20324
892.839	20278
892.962	20313
893.085	20476
893.207	20294
893.33	20282
893.452	20183
893.575	20301
893.697	20298
893.819	20454
893.941	20480
894.064	20461
894.186	20290
894.308	20237
894.43	20454
894.552	20465
894.674	20446
894.796	20138
894.918	20202
895.04	20263
895.161	20457
895.283	20366
895.405	20294
895.526	20362
895.648	20294
895.769	20298
895.891	20240
896.012	20332
896.134	20278
896.255	20438
896.376	20153
896.498	20396
896.619	20404
896.74	20317
896.861	20294
896.982	20590
897.103	20792
897.224	20583
897.345	20644
897.466	20473
897.587	20522
897.708	20640
897.828	20514
897.949	20530
898.07	20286
898.19	20446
898.311	20724
898.431	20549
898.552	20457
898.672	20594
898.792	20530
898.913	20571
899.033	20450
899.153	20317
899.273	20199
899.393	20294
899.513	20237
899.633	20229
899.753	20282
899.873	20206
899.993	20324
900.113	20244
900.232	20336
900.352	20092
900.472	20161
900.591	20024
900.711	19879
900.83	19856
900.95	20134
901.069	20145
901.189	20077
901.308	19788
901.427	19632
901.546	19594
901.665	19582
901.784	19647
901.904	19441
902.023	19487
902.141	19244
902.26	19152
902.379	19232
902.498	19175
902.617	19171
902.735	19183
902.854	19046
902.973	19065
903.091	18833
903.21	18852
903.328	18791
903.446	18745
903.565	18703
903.683	18582
903.801	18544
903.919	18608
904.038	18525
904.156	18433
904.274	18547
904.392	18437
904.51	18323
904.627	18414
904.745	18471
904.863	18452
904.981	18311
905.098	18098
905.216	18019
905.334	18060
905.451	18087
905.569	18007
905.686	18140
905.803	17996
905.921	17760
906.038	17908
906.155	17859
906.272	17741
906.389	17756
906.506	17672
906.623	17604
906.74	17684
906.857	17493
906.974	17581
907.091	17653
907.208	17703
907.324	17592
907.441	17478
907.557	17376
907.674	17330
907.79	17235
907.907	17356
908.023	17387
908.139	17395
908.256	17273
908.372	17212
908.488	17185
908.604	17109
908.72	17117
908.836	16980
908.952	17018
909.068	17022
909.184	17311
909.3	17083
909.415	17033
909.531	17037
909.647	16767
909.762	16725
909.878	16752
909.993	16713
910.108	16744
910.224	16634
910.339	16710
910.454	16634
910.57	16592
910.685	16584
910.8	16592
910.915	16736
911.03	16508
911.145	16489
911.259	16226
911.374	16371
911.489	16215
911.604	16234
911.718	16143
911.833	16097
911.947	16010
912.062	16002
912.176	16093
912.291	16112
912.405	16067
912.519	16249
912.633	16299
912.748	16158
912.862	16063
912.976	15953
913.09	15766
913.204	15793
913.318	15930
913.431	16021
913.545	15953
913.659	16055
913.772	15888
913.886	15774
914	15576
914.113	15720
914.226	15743
914.34	15797
914.453	15610
914.566	15728
914.68	15652
914.793	15545
914.906	15367
915.019	15283
915.132	15233
915.245	15408
915.358	15431
915.47	15279
915.583	15268
915.696	15306
915.809	15374
915.921	15511
916.034	15294
916.146	15157
916.259	15351
916.371	15355
916.483	15146
916.595	15188
916.708	15203
916.82	15070
916.932	15135
917.044	14998
917.156	15020
917.268	15001
917.38	14956
917.491	14895
917.603	14872
917.715	14994
917.826	15112
917.938	14956
918.049	14724
918.161	14944
918.272	15058
918.384	15036
918.495	14925
918.606	14705
918.717	14655
918.828	14708
918.939	14674
919.05	14568
919.161	14686
919.272	14450
919.383	14522
919.494	14705
919.604	14845
919.715	14701
919.826	14621
919.936	14640
920.047	14655
920.157	14686
920.267	14902
920.378	14636
920.488	14590
920.598	14773
920.708	14960
920.818	14746
920.928	14830
921.038	14864
921.148	14937
921.258	14632
921.368	14511
921.477	14362
921.587	14313
921.697	14199
921.806	14313
921.916	14248
922.025	14157
922.134	14001
922.244	14012
922.353	14123
922.462	13913
922.571	13868
922.68	13715
922.789	13719
922.898	13693
923.007	13624
923.116	13651
923.224	13624
923.333	13693
923.442	13548
923.55	13510
923.659	13491
923.767	13533
923.876	13438
923.984	13601
924.092	13438
924.201	13445
924.309	13400
924.417	13449
924.525	13453
924.633	13384
924.741	14088
924.849	13046
924.956	13293
925.064	13110
925.172	13084
925.279	13103
925.387	13061
925.494	13095
925.602	13126
925.709	13072
925.816	12947
925.924	13095
926.031	13091
926.138	12989
926.245	13023
926.352	12981
926.459	13122
926.566	13168
926.673	12966
926.779	12825
926.886	12890
926.993	12692
927.099	12665
927.206	12578
927.312	12604
927.419	12665
927.525	12646
927.631	12692
927.737	12608
927.843	12604
927.95	12361
928.056	12540
928.162	12391
928.267	12540
928.373	13141
928.479	12555
928.585	12273
928.69	12403
928.796	12445
928.901	12315
929.007	12190
929.112	12365
929.218	12361
929.323	12270
929.428	12205
929.533	12399
929.638	12106
929.743	12106
929.848	12209
929.953	12083
930.058	12034
930.163	11828
930.267	11882
930.372	11965
930.477	11843
930.581	11973
930.685	11851
930.79	11707
930.894	11790
930.998	11805
931.103	11828
931.207	11554
931.311	11482
931.415	11318
931.519	11178
931.623	11075
