Data from test_V78500241_2992.txt Node
Date: Fri Mar 25 16:02:31 CST 2022
User: usil
Spectrometer: V785-0024
Trigger mode: 0
Integration Time (sec): 4.000000E-1
Scans to average: 1
Nonlinearity correction enabled: false
Boxcar width: 0
Storing dark spectrum: false
XAxis mode: Wavelengths
Number of Pixels in Spectrum: 1024
>>>>>Begin Spectral Data<<<<<
801.071	28721
801.214	28672
801.356	28432
801.499	28352
801.641	28443
801.783	28329
801.926	28466
802.068	28375
802.211	28234
802.353	28303
802.496	28162
802.638	28105
802.78	28078
802.923	27934
803.065	27907
803.208	27987
803.35	28059
803.492	27907
803.635	28246
803.777	28139
803.919	28200
804.061	28687
804.204	28394
804.346	28306
804.488	28196
804.63	28299
804.773	28246
804.915	28401
805.057	28459
805.199	28401
805.341	28265
805.483	28291
805.626	28432
805.768	28322
805.91	28379
806.052	28523
806.194	28516
806.336	28672
806.478	28497
806.62	28417
806.762	28622
806.904	28691
807.046	29071
807.188	28892
807.33	28850
807.472	28995
807.614	28786
807.756	29014
807.898	28729
808.04	28550
808.182	28679
808.324	28698
808.465	28744
808.607	29006
808.749	29140
808.891	29052
809.033	29353
809.174	29178
809.316	29029
809.458	29090
809.6	29022
809.741	29235
809.883	29174
810.025	29417
810.166	29391
810.308	29444
810.45	29227
810.591	29269
810.733	29143
810.875	29041
811.016	29132
811.158	29067
811.299	29318
811.441	29322
811.582	29052
811.724	29147
811.865	29143
812.007	29204
812.148	29109
812.29	29235
812.431	29482
812.573	29524
812.714	29493
812.855	29752
812.997	29703
813.138	29916
813.279	29828
813.421	29672
813.562	29634
813.703	29474
813.845	29410
813.986	29242
814.127	28908
814.268	28972
814.41	28805
814.551	28809
814.692	28839
814.833	28771
814.974	28927
815.115	28888
815.256	28733
815.397	28820
815.539	28812
815.68	28774
815.821	28611
815.962	28504
816.103	28736
816.244	28489
816.385	28596
816.526	28424
816.666	28234
816.807	28204
816.948	28249
817.089	28242
817.23	28188
817.371	28169
817.512	28166
817.653	28246
817.793	28128
817.934	28067
818.075	28185
818.216	28154
818.356	28280
818.497	28120
818.638	27994
818.778	27991
818.919	27918
819.06	28078
819.2	28059
819.341	28154
819.481	28124
819.622	28272
819.762	28603
819.903	28356
820.043	28459
820.184	28333
820.324	28226
820.465	28352
820.605	28356
820.746	28306
820.886	28192
821.026	28105
821.167	28139
821.307	28295
821.447	28215
821.588	28101
821.728	28010
821.868	27827
822.008	27625
822.149	27679
822.289	27656
822.429	27401
822.569	27275
822.709	27386
822.849	27138
822.99	27211
823.13	27058
823.27	27127
823.41	27066
823.55	26815
823.69	27020
823.83	26967
823.97	26815
824.11	26708
824.25	26838
824.389	26804
824.529	26929
824.669	26830
824.809	26899
824.949	26861
825.089	27039
825.228	26895
825.368	26670
825.508	26636
825.648	26800
825.787	26564
825.927	26842
826.067	26549
826.206	26648
826.346	26731
826.485	26788
826.625	26663
826.765	26864
826.904	26648
827.044	26556
827.183	26362
827.323	26362
827.462	26537
827.601	26469
827.741	26511
827.88	26438
828.02	26336
828.159	26343
828.298	26457
828.437	26590
828.577	26434
828.716	26514
828.855	26423
828.994	26027
829.134	26081
829.273	26206
829.412	26119
829.551	26069
829.69	26043
829.829	26229
829.968	26153
830.107	26088
830.246	26145
830.385	26062
830.524	26035
830.663	25902
830.802	25780
830.941	25506
831.08	25632
831.219	25780
831.357	25841
831.496	25871
831.635	25715
831.774	25453
831.913	25624
832.051	25453
832.19	25487
832.329	25563
832.467	25453
832.606	25346
832.744	25316
832.883	25483
833.022	25316
833.16	25464
833.299	25495
833.437	25529
833.576	25487
833.714	25411
833.852	25518
833.991	25422
834.129	25502
834.267	25434
834.406	25563
834.544	25518
834.682	25476
834.821	25373
834.959	25628
835.097	25339
835.235	25358
835.373	25331
835.511	25434
835.65	25190
835.788	25304
835.926	25194
836.064	25065
836.202	25221
836.34	25377
836.478	25301
836.615	25202
836.753	25152
836.891	25312
837.029	25247
837.167	25190
837.305	25247
837.443	25133
837.58	25126
837.718	25190
837.856	25103
837.993	25034
838.131	24985
838.269	25015
838.406	25057
838.544	24905
838.681	24753
838.819	24757
838.956	24635
839.094	24585
839.231	24574
839.369	24757
839.506	25012
839.643	24875
839.781	24578
839.918	24536
840.055	24525
840.193	24483
840.33	24460
840.467	24486
840.604	24574
840.742	24639
840.879	24342
841.016	24403
841.153	24445
841.29	24578
841.427	24399
841.564	24464
841.701	24441
841.838	24361
841.975	24372
842.112	24323
842.249	24418
842.385	24243
842.522	24395
842.659	24319
842.796	24224
842.933	24182
843.069	24125
843.206	24148
843.343	24174
843.479	24186
843.616	24319
843.752	23889
843.889	23996
844.025	24110
844.162	23939
844.298	24133
844.435	23958
844.571	24038
844.708	23889
844.844	24243
844.98	24182
845.117	24216
845.253	23916
845.389	23824
845.525	23805
845.661	23885
845.798	23851
845.934	23695
846.07	23779
846.206	23764
846.342	23866
846.478	23771
846.614	23623
846.75	23440
846.886	23459
847.022	23577
847.158	23436
847.294	23455
847.429	23463
847.565	23505
847.701	23737
847.837	23204
847.972	23200
848.108	23166
848.244	23273
848.379	23048
848.515	23067
848.65	23064
848.786	23075
848.921	23018
849.057	23083
849.192	23284
849.328	23025
849.463	23022
849.598	23044
849.734	22877
849.869	22801
850.004	22752
850.14	22919
850.275	22869
850.41	22584
850.545	22725
850.68	22809
850.815	22843
850.95	22774
851.085	22896
851.22	22934
851.355	22828
851.49	22797
851.625	22767
851.76	22664
851.895	22710
852.03	22752
852.165	22839
852.299	22877
852.434	22873
852.569	22831
852.703	22702
852.838	22896
852.973	23010
853.107	22847
853.242	22759
853.376	22660
853.511	22717
853.645	22660
853.78	22660
853.914	22656
854.048	22584
854.183	22615
854.317	22592
854.451	22858
854.585	22706
854.72	22592
854.854	22698
854.988	22630
855.122	22713
855.256	22550
855.39	22664
855.524	22736
855.658	22603
855.792	22554
855.926	22504
856.06	22645
856.194	22702
856.327	22637
856.461	22626
856.595	22596
856.729	22691
856.862	22675
856.996	22527
857.13	22584
857.263	22698
857.397	22717
857.53	22542
857.664	22725
857.797	22691
857.931	22797
858.064	22634
858.197	22778
858.331	22569
858.464	22557
858.597	22561
858.731	22580
858.864	22615
858.997	22653
859.13	22637
859.263	22649
859.396	22729
859.529	22462
859.662	22603
859.795	22630
859.928	22672
860.061	22702
860.194	22812
860.327	22637
860.46	22782
860.592	22687
860.725	22782
860.858	22656
860.99	22672
861.123	22569
861.256	22615
861.388	22618
861.521	23410
861.653	22451
861.786	22451
861.918	22500
862.05	22588
862.183	22542
862.315	22584
862.447	22596
862.58	22557
862.712	22402
862.844	22333
862.976	22424
863.108	22405
863.24	22900
863.372	22310
863.504	22516
863.636	22367
863.768	22386
863.9	22379
864.032	22158
864.164	22291
864.296	22409
864.428	22394
864.559	22405
864.691	22405
864.823	22318
864.954	22344
865.086	22280
865.217	22219
865.349	22131
865.48	22268
865.612	22181
865.743	22390
865.875	22196
866.006	22219
866.137	22204
866.269	22105
866.4	22196
866.531	22124
866.662	22162
866.793	22192
866.924	22139
867.055	22303
867.186	22219
867.317	22169
867.448	22101
867.579	22040
867.71	22006
867.841	22082
867.972	22105
868.103	22109
868.233	22238
868.364	22051
868.495	22207
868.625	22306
868.756	22447
868.886	22268
869.017	22356
869.147	22485
869.278	22474
869.408	22382
869.539	22284
869.669	22432
869.799	22478
869.929	22542
870.06	22516
870.19	22599
870.32	22691
870.45	22733
870.58	22755
870.71	22987
870.84	22984
870.97	22771
871.1	22771
871.23	22953
871.36	22980
871.489	22957
871.619	22957
871.749	22976
871.879	22976
872.008	23048
872.138	23029
872.267	22949
872.397	22904
872.526	22858
872.656	22824
872.785	22835
872.915	23022
873.044	23010
873.173	23010
873.303	23136
873.432	23102
873.561	23151
873.69	23022
873.819	22972
873.948	23136
874.077	22976
874.206	22946
874.335	22961
874.464	23105
874.593	23280
874.722	23159
874.851	23345
874.979	23337
875.108	23280
875.237	23102
875.365	23151
875.494	23140
875.623	23280
875.751	23220
875.88	23208
876.008	23261
876.136	23364
876.265	23596
876.393	23794
876.521	23775
876.65	23767
876.778	23627
876.906	23539
877.034	23570
877.162	23444
877.29	23509
877.418	23497
877.546	23581
877.674	23558
877.802	23585
877.93	23512
878.058	23444
878.185	23417
878.313	23474
878.441	23516
878.568	23360
878.696	23528
878.824	23570
878.951	23691
879.079	23779
879.206	23760
879.333	23630
879.461	23638
879.588	23722
879.715	23714
879.842	23832
879.97	23573
880.097	23330
880.224	23318
880.351	23277
880.478	23558
880.605	23482
880.732	23307
880.859	23554
880.986	23356
881.112	23376
881.239	23258
881.366	23132
881.493	22984
881.619	22991
881.746	23071
881.872	22953
881.999	22949
882.125	22847
882.252	22946
882.378	22839
882.505	23014
882.631	22778
882.757	22664
882.883	22736
883.01	22679
883.136	22634
883.262	22531
883.388	22409
883.514	22592
883.64	22561
883.766	22436
883.892	22333
884.018	22363
884.143	22443
884.269	22542
884.395	22382
884.52	22253
884.646	22287
884.772	22067
884.897	22120
885.023	22238
885.148	22447
885.274	22409
885.399	22382
885.524	22253
885.65	22268
885.775	22318
885.9	22177
886.025	22173
886.15	22253
886.275	22234
886.4	22215
886.525	22124
886.65	22150
886.775	22154
886.9	22306
887.025	22459
887.149	22246
887.274	22063
887.399	22055
887.523	21983
887.648	21934
887.773	21937
887.897	22006
888.021	22143
888.146	21918
888.27	22139
888.395	22040
888.519	22032
888.643	22082
888.767	21899
888.891	21846
889.015	21755
889.139	21774
889.263	21781
889.387	21861
889.511	21998
889.635	21915
889.759	21751
889.883	21766
890.006	21873
890.13	21869
890.254	21774
890.377	21694
890.501	21587
890.624	21542
890.748	21443
890.871	21462
890.995	21412
891.118	21336
891.241	21382
891.364	21291
891.488	21428
891.611	21428
891.734	21321
891.857	21401
891.98	21237
892.103	21310
892.226	21325
892.349	21340
892.471	21135
892.594	21268
892.717	21275
892.839	21313
892.962	21298
893.085	21389
893.207	21203
893.33	21146
893.452	21119
893.575	21245
893.697	21081
893.819	21431
893.941	21515
894.064	21416
894.186	21028
894.308	21222
894.43	21321
894.552	21344
894.674	21355
894.796	21184
894.918	21142
895.04	21081
895.161	21302
895.283	21237
895.405	21055
895.526	21146
895.648	21180
895.769	21176
895.891	21180
896.012	21176
896.134	21203
896.255	21249
896.376	21195
896.498	21237
896.619	21157
896.74	21138
896.861	21207
896.982	21412
897.103	21679
897.224	21477
897.345	21431
897.466	21348
897.587	21393
897.708	21580
897.828	21359
897.949	21359
898.07	21310
898.19	21378
898.311	21458
898.431	21272
898.552	21443
898.672	21496
898.792	21424
898.913	21454
899.033	21226
899.153	21135
899.273	21062
899.393	21161
899.513	21119
899.633	21131
899.753	21207
899.873	21055
899.993	21123
900.113	21009
900.232	21104
900.352	21119
900.472	20986
900.591	20838
900.711	20914
900.83	20826
900.95	20963
901.069	21032
901.189	20796
901.308	20632
901.427	20473
901.546	20606
901.665	20492
901.784	20545
901.904	20317
902.023	20248
902.141	20100
902.26	19887
902.379	19955
902.498	19830
902.617	19879
902.735	19951
902.854	19932
902.973	19902
903.091	19662
903.21	19658
903.328	19567
903.446	19491
903.565	19407
903.683	19518
903.801	19255
903.919	19278
904.038	19358
904.156	19141
904.274	19259
904.392	19266
904.51	19038
904.627	19278
904.745	19126
904.863	19190
904.981	18928
905.098	18757
905.216	18875
905.334	18798
905.451	18977
905.569	18825
905.686	18871
905.803	18844
905.921	18627
906.038	18795
906.155	18688
906.272	18601
906.389	18517
906.506	18346
906.623	18407
906.74	18254
906.857	18224
906.974	18342
907.091	18429
907.208	18513
907.324	18350
907.441	18380
907.557	18030
907.674	18110
907.79	18007
907.907	18007
908.023	18129
908.139	18057
908.256	17897
908.372	17855
908.488	17999
908.604	17885
908.72	17775
908.836	17942
908.952	17687
909.068	17786
909.184	17939
909.3	17722
909.415	17866
909.531	17805
909.647	17490
909.762	17562
909.878	17414
909.993	17478
910.108	17406
910.224	17436
910.339	17326
910.454	17345
910.57	17277
910.685	17162
910.8	17402
910.915	17452
911.03	17261
911.145	17102
911.259	17102
911.374	17128
911.489	16995
911.604	16911
911.718	16801
911.833	16752
911.947	16736
912.062	16615
912.176	16801
912.291	16767
912.405	16812
912.519	16889
912.633	16972
912.748	16778
912.862	16713
912.976	16634
913.09	16512
913.204	16615
913.318	16649
913.431	16755
913.545	16649
913.659	16660
913.772	16656
913.886	16402
914	16386
914.113	16409
914.226	16459
914.34	16516
914.453	16200
914.566	16405
914.68	16268
914.793	16261
914.906	16006
915.019	15930
915.132	15884
915.245	15998
915.358	15994
915.47	15968
915.583	15934
915.696	16013
915.809	16044
915.921	16097
916.034	15926
916.146	15979
916.259	15907
916.371	16002
916.483	15915
916.595	15861
916.708	15747
916.82	15797
916.932	15720
917.044	15720
917.156	15698
917.268	15629
917.38	15542
917.491	15568
917.603	15545
917.715	15603
917.826	15675
917.938	15599
918.049	15545
918.161	15587
918.272	15675
918.384	15709
918.495	15477
918.606	15359
918.717	15256
918.828	15397
918.939	15393
919.05	15264
919.161	15294
919.272	15104
919.383	15233
919.494	15325
919.604	15545
919.715	15382
919.826	15241
919.936	15310
920.047	15302
920.157	15283
920.267	15363
920.378	15389
920.488	15245
920.598	15515
920.708	15599
920.818	15389
920.928	15450
921.038	15610
921.148	15496
921.258	15199
921.368	15043
921.477	15066
921.587	15024
921.697	14826
921.806	15093
921.916	14868
922.025	14750
922.134	14705
922.244	14613
922.353	14678
922.462	14674
922.571	14503
922.68	14259
922.789	14221
922.898	14358
923.007	14248
923.116	14313
923.224	14286
923.333	14161
923.442	14176
923.55	14180
923.659	14088
923.767	14172
923.876	13989
923.984	14138
924.092	13955
924.201	14020
924.309	13970
924.417	14069
924.525	13978
924.633	13967
924.741	14667
924.849	13772
924.956	13780
925.064	13712
925.172	13544
925.279	13689
925.387	13681
925.494	13658
925.602	13814
925.709	13693
925.816	13537
925.924	13506
926.031	13556
926.138	13597
926.245	13647
926.352	13510
926.459	13632
926.566	13620
926.673	13449
926.779	13346
926.886	13346
926.993	13251
927.099	13149
927.206	13076
927.312	13053
927.419	13221
927.525	13114
927.631	13228
927.737	13160
927.843	12958
927.95	13000
928.056	12882
928.162	13042
928.267	12966
928.373	13651
928.479	13069
928.585	12859
928.69	12962
928.796	13061
928.901	12852
929.007	12681
929.112	12871
929.218	12848
929.323	12779
929.428	12741
929.533	12928
929.638	12578
929.743	12665
929.848	12696
929.953	12620
930.058	12486
930.163	12365
930.267	12418
930.372	12547
930.477	12266
930.581	12566
930.685	12407
930.79	12266
930.894	12243
930.998	12281
931.103	12388
931.207	12007
931.311	11999
931.415	11828
931.519	11703
931.623	11634
