Data from test_V78500241_699.txt Node
Date: Fri Mar 25 15:46:38 CST 2022
User: usil
Spectrometer: V785-0024
Trigger mode: 0
Integration Time (sec): 4.000000E-1
Scans to average: 1
Nonlinearity correction enabled: false
Boxcar width: 0
Storing dark spectrum: false
XAxis mode: Wavelengths
Number of Pixels in Spectrum: 1024
>>>>>Begin Spectral Data<<<<<
801.071	27408
801.214	27378
801.356	27256
801.499	27074
801.641	26914
801.783	26956
801.926	27135
802.068	27062
802.211	26891
802.353	26834
802.496	26693
802.638	26613
802.78	26667
802.923	26587
803.065	26621
803.208	26674
803.35	26678
803.492	26727
803.635	26788
803.777	26705
803.919	26686
804.061	27150
804.204	26819
804.346	26705
804.488	26724
804.63	26739
804.773	26693
804.915	26826
805.057	26864
805.199	26758
805.341	26754
805.483	26933
805.626	26804
805.768	26815
805.91	26918
806.052	26929
806.194	26861
806.336	27047
806.478	27009
806.62	26811
806.762	27009
806.904	27252
807.046	27473
807.188	27306
807.33	27306
807.472	27359
807.614	27081
807.756	27283
807.898	27252
808.04	26975
808.182	27081
808.324	27199
808.465	27009
808.607	27408
808.749	27599
808.891	27633
809.033	27781
809.174	27644
809.316	27610
809.458	27424
809.6	27606
809.741	27694
809.883	27713
810.025	27728
810.166	27827
810.308	27846
810.45	27770
810.591	27728
810.733	27458
810.875	27435
811.016	27405
811.158	27405
811.299	27728
811.441	27770
811.582	27835
811.724	27580
811.865	27481
812.007	27447
812.148	27481
812.29	27386
812.431	27686
812.573	27816
812.714	27987
812.855	28036
812.997	28223
813.138	28310
813.279	28120
813.421	28044
813.562	28090
813.703	27937
813.845	27717
813.986	27435
814.127	27386
814.268	27195
814.41	27154
814.551	27188
814.692	27386
814.833	27093
814.974	27211
815.115	27154
815.256	27066
815.397	26994
815.539	26925
815.68	26994
815.821	26956
815.962	26910
816.103	27169
816.244	26940
816.385	26811
816.526	26762
816.666	26537
816.807	26590
816.948	26724
817.089	26667
817.23	26556
817.371	26568
817.512	26484
817.653	26362
817.793	26480
817.934	26492
818.075	26389
818.216	26476
818.356	26351
818.497	26366
818.638	26256
818.778	26317
818.919	26202
819.06	26286
819.2	26252
819.341	26393
819.481	26480
819.622	26568
819.762	26792
819.903	26617
820.043	26648
820.184	26682
820.324	26484
820.465	26545
820.605	26640
820.746	26617
820.886	26381
821.026	26560
821.167	26473
821.307	26571
821.447	26457
821.588	26225
821.728	26313
821.868	26084
822.008	25940
822.149	25936
822.289	25879
822.429	25696
822.569	25544
822.709	25597
822.849	25487
822.99	25514
823.13	25449
823.27	25434
823.41	25365
823.55	25061
823.69	25396
823.83	25213
823.97	25194
824.11	25038
824.25	25065
824.389	25084
824.529	25202
824.669	25133
824.809	25194
824.949	25133
825.089	25114
825.228	25027
825.368	24958
825.508	24882
825.648	24985
825.787	25034
825.927	25008
826.067	24909
826.206	24928
826.346	24973
826.485	24878
826.625	25008
826.765	25065
826.904	24916
827.044	24741
827.183	24635
827.323	24612
827.462	24646
827.601	24753
827.741	24582
827.88	24635
828.02	24426
828.159	24764
828.298	24692
828.437	24795
828.577	24608
828.716	24753
828.855	24532
828.994	24372
829.134	24300
829.273	24441
829.412	24102
829.551	24441
829.69	24338
829.829	24410
829.968	24467
830.107	24418
830.246	24369
830.385	24281
830.524	24273
830.663	24273
830.802	24216
830.941	23946
831.08	23939
831.219	24079
831.357	23969
831.496	24186
831.635	24007
831.774	23855
831.913	23840
832.051	23745
832.19	23665
832.329	23866
832.467	23600
832.606	23630
832.744	23623
832.883	23589
833.022	23756
833.16	23585
833.299	23665
833.437	23573
833.576	23687
833.714	23592
833.852	23786
833.991	23649
834.129	23752
834.267	23756
834.406	23627
834.544	23824
834.682	23634
834.821	23630
834.959	23695
835.097	23478
835.235	23847
835.373	23745
835.511	23733
835.65	23516
835.788	23512
835.926	23493
836.064	23334
836.202	23414
836.34	23512
836.478	23600
836.615	23604
836.753	23455
836.891	23687
837.029	23463
837.167	23436
837.305	23505
837.443	23318
837.58	23372
837.718	23341
837.856	23299
837.993	23280
838.131	23235
838.269	23261
838.406	23273
838.544	23090
838.681	22991
838.819	22991
838.956	22809
839.094	22877
839.231	22812
839.369	23029
839.506	23334
839.643	23147
839.781	22752
839.918	22660
840.055	22729
840.193	22698
840.33	22809
840.467	22915
840.604	22759
840.742	23014
840.879	22645
841.016	22706
841.153	22816
841.29	22858
841.427	22607
841.564	22824
841.701	22816
841.838	22694
841.975	22557
842.112	22721
842.249	22527
842.385	22550
842.522	22672
842.659	22519
842.796	22611
842.933	22428
843.069	22428
843.206	22500
843.343	22497
843.479	22512
843.616	22516
843.752	22291
843.889	22272
844.025	22462
844.162	22192
844.298	22363
844.435	22333
844.571	22299
844.708	22363
844.844	22348
844.98	22466
845.117	22390
845.253	22234
845.389	22207
845.525	22097
845.661	22086
845.798	21998
845.934	22040
846.07	21895
846.206	22032
846.342	22211
846.478	22006
846.614	21808
846.75	21747
846.886	21724
847.022	21926
847.158	21797
847.294	21652
847.429	21690
847.565	21717
847.701	22006
847.837	21496
847.972	21431
848.108	21576
848.244	21412
848.379	21477
848.515	21310
848.65	21287
848.786	21370
848.921	21378
849.057	21443
849.192	21549
849.328	21374
849.463	21298
849.598	21393
849.734	21275
849.869	21211
850.004	21135
850.14	21176
850.275	21241
850.41	21039
850.545	21039
850.68	21070
850.815	21154
850.95	21138
851.085	21268
851.22	21207
851.355	21135
851.49	21005
851.625	21055
851.76	21077
851.895	20971
852.03	20929
852.165	21024
852.299	21074
852.434	21085
852.569	21100
852.703	21154
852.838	21161
852.973	21127
853.107	21214
853.242	20998
853.376	21058
853.511	20762
853.645	20838
853.78	21036
853.914	20967
854.048	20845
854.183	20762
854.317	20872
854.451	21180
854.585	20914
854.72	20849
854.854	21032
854.988	20868
855.122	20948
855.256	20758
855.39	20944
855.524	20975
855.658	21028
855.792	20868
855.926	20842
856.06	21005
856.194	20933
856.327	20857
856.461	20948
856.595	20849
856.729	20994
856.862	21001
856.996	20944
857.13	20982
857.263	21013
857.397	20998
857.53	20895
857.664	20937
857.797	20937
857.931	21013
858.064	20998
858.197	21108
858.331	20895
858.464	20876
858.597	20849
858.731	20956
858.864	20895
858.997	20826
859.13	20853
859.263	20933
859.396	20967
859.529	20845
859.662	20902
859.795	20868
859.928	20941
860.061	21108
860.194	21180
860.327	20834
860.46	21032
860.592	21051
860.725	21058
860.858	21074
860.99	20944
861.123	20986
861.256	20933
861.388	21013
861.521	21557
861.653	20883
861.786	20693
861.918	20731
862.05	20872
862.183	20777
862.315	20830
862.447	20899
862.58	20842
862.712	20575
862.844	20568
862.976	20750
863.108	20678
863.24	21058
863.372	20602
863.504	20686
863.636	20594
863.768	20826
863.9	20644
864.032	20537
864.164	20560
864.296	20712
864.428	20796
864.559	20659
864.691	20617
864.823	20629
864.954	20636
865.086	20503
865.217	20571
865.349	20415
865.48	20636
865.612	20571
865.743	20705
865.875	20568
866.006	20457
866.137	20587
866.269	20533
866.4	20564
866.531	20511
866.662	20488
866.793	20488
866.924	20412
867.055	20511
867.186	20469
867.317	20518
867.448	20351
867.579	20438
867.71	20412
867.841	20454
867.972	20446
868.103	20408
868.233	20476
868.364	20484
868.495	20514
868.625	20674
868.756	20845
868.886	20697
869.017	20788
869.147	20868
869.278	20769
869.408	20731
869.539	20811
869.669	20933
869.799	20796
869.929	20830
870.06	20853
870.19	21089
870.32	20982
870.45	21203
870.58	21142
870.71	21256
870.84	21142
870.97	21169
871.1	21249
871.23	21268
871.36	21283
871.489	21176
871.619	21291
871.749	21306
871.879	21268
872.008	21443
872.138	21317
872.267	21264
872.397	21154
872.526	21150
872.656	21214
872.785	21161
872.915	21351
873.044	21374
873.173	21435
873.303	21351
873.432	21431
873.561	21511
873.69	21302
873.819	21310
873.948	21336
874.077	21348
874.206	21302
874.335	21348
874.464	21416
874.593	21599
874.722	21477
874.851	21698
874.979	21595
875.108	21534
875.237	21610
875.365	21534
875.494	21583
875.623	21599
875.751	21534
875.88	21637
876.008	21641
876.136	21705
876.265	21956
876.393	22067
876.521	22025
876.65	21960
876.778	21876
876.906	21937
877.034	21785
877.162	21892
877.29	21808
877.418	21903
877.546	22002
877.674	21918
877.802	21892
877.93	21953
878.058	21895
878.185	21698
878.313	21778
878.441	21899
878.568	21641
878.696	21743
878.824	21964
878.951	22002
879.079	22120
879.206	22181
879.333	22097
879.461	22032
879.588	22048
879.715	22067
879.842	22238
879.97	21975
880.097	21816
880.224	21694
880.351	21793
880.478	21816
880.605	21675
880.732	21819
880.859	21918
880.986	21819
881.112	21842
881.239	21701
881.366	21530
881.493	21443
881.619	21344
881.746	21382
881.872	21412
881.999	21389
882.125	21302
882.252	21351
882.378	21325
882.505	21420
882.631	21165
882.757	21001
882.883	21176
883.01	21043
883.136	21077
883.262	20857
883.388	20880
883.514	21093
883.64	21036
883.766	20975
883.892	20823
884.018	20872
884.143	21009
884.269	21116
884.395	20682
884.52	20682
884.646	20644
884.772	20609
884.897	20446
885.023	20682
885.148	20773
885.274	20762
885.399	20682
885.524	20625
885.65	20640
885.775	20651
885.9	20632
886.025	20781
886.15	20689
886.275	20682
886.4	20503
886.525	20727
886.65	20621
886.775	20560
886.9	20743
887.025	20819
887.149	20716
887.274	20594
887.399	20434
887.523	20389
887.648	20271
887.773	20320
887.897	20568
888.021	20621
888.146	20442
888.27	20533
888.395	20579
888.519	20507
888.643	20507
888.767	20469
888.891	20309
889.015	20301
889.139	20290
889.263	20237
889.387	20385
889.511	20568
889.635	20389
889.759	20339
889.883	20343
890.006	20237
890.13	20298
890.254	20202
890.377	20077
890.501	20020
890.624	19967
890.748	20039
890.871	19906
890.995	19776
891.118	19750
891.241	19849
891.364	19807
891.488	19989
891.611	19689
891.734	19913
891.857	19837
891.98	19833
892.103	19887
892.226	19738
892.349	19727
892.471	19674
892.594	19772
892.717	19807
892.839	19776
892.962	19734
893.085	19704
893.207	19727
893.33	19597
893.452	19742
893.575	19742
893.697	19757
893.819	19989
893.941	19932
894.064	19906
894.186	19632
894.308	19620
894.43	19757
894.552	19871
894.674	19852
894.796	19693
894.918	19791
895.04	19643
895.161	19734
895.283	19864
895.405	19723
895.526	19704
895.648	19670
895.769	19776
895.891	19837
896.012	19841
896.134	19822
896.255	19689
896.376	19700
896.498	19761
896.619	19856
896.74	19765
896.861	19883
896.982	20092
897.103	20324
897.224	19982
897.345	19993
897.466	19887
897.587	20005
897.708	20062
897.828	20035
897.949	19986
898.07	19936
898.19	19921
898.311	20024
898.431	19921
898.552	20069
898.672	20122
898.792	19989
898.913	20046
899.033	19852
899.153	19776
899.273	19723
899.393	19772
899.513	19814
899.633	19807
899.753	19822
899.873	19788
899.993	19727
900.113	19674
900.232	19788
900.352	19628
900.472	19449
900.591	19362
900.711	19586
900.83	19502
900.95	19628
901.069	19715
901.189	19411
901.308	19107
901.427	19175
901.546	19072
901.665	19156
901.784	19190
901.904	18970
902.023	18821
902.141	18658
902.26	18658
902.379	18715
902.498	18627
902.617	18570
902.735	18650
902.854	18582
902.973	18563
903.091	18330
903.21	18281
903.328	18232
903.446	18243
903.565	18197
903.683	18129
903.801	17992
903.919	18087
904.038	18007
904.156	17859
904.274	17973
904.392	17882
904.51	17882
904.627	17870
904.745	17817
904.863	17847
904.981	17570
905.098	17444
905.216	17634
905.334	17604
905.451	17634
905.569	17566
905.686	17505
905.803	17619
905.921	17387
906.038	17368
906.155	17379
906.272	17303
906.389	17299
906.506	17045
906.623	17151
906.74	17159
906.857	17010
906.974	16995
907.091	17155
907.208	17185
907.324	17109
907.441	16965
907.557	16892
907.674	16782
907.79	16679
907.907	16790
908.023	16797
908.139	16778
908.256	16752
908.372	16660
908.488	16892
908.604	16592
908.72	16550
908.836	16561
908.952	16440
909.068	16546
909.184	16729
909.3	16527
909.415	16637
909.531	16493
909.647	16265
909.762	16204
909.878	16093
909.993	16234
910.108	16185
910.224	16223
910.339	16230
910.454	16188
910.57	16017
910.685	16006
910.8	16337
910.915	16211
911.03	15998
911.145	15781
911.259	15895
911.374	15838
911.489	15865
911.604	15739
911.718	15625
911.833	15511
911.947	15462
912.062	15466
912.176	15656
912.291	15622
912.405	15675
912.519	15797
912.633	15915
912.748	15587
912.862	15584
912.976	15431
913.09	15325
913.204	15447
913.318	15370
913.431	15447
913.545	15420
913.659	15511
913.772	15389
913.886	15252
914	15157
914.113	15226
914.226	15359
914.34	15245
914.453	15104
914.566	15207
914.68	15104
914.793	15024
914.906	14910
915.019	14815
915.132	14823
915.245	14811
915.358	14891
915.47	14830
915.583	14804
915.696	14880
915.809	14918
915.921	14933
916.034	14727
916.146	14693
916.259	14746
916.371	14731
916.483	14868
916.595	14610
916.708	14587
916.82	14625
916.932	14629
917.044	14629
917.156	14541
917.268	14541
917.38	14552
917.491	14461
917.603	14564
917.715	14530
917.826	14511
917.938	14298
918.049	14374
918.161	14457
918.272	14507
918.384	14514
918.495	14434
918.606	14377
918.717	14301
918.828	14328
918.939	14267
919.05	14176
919.161	14168
919.272	14062
919.383	14092
919.494	14164
919.604	14461
919.715	14263
919.826	14157
919.936	14225
920.047	14237
920.157	14225
920.267	14362
920.378	14218
920.488	14221
920.598	14431
920.708	14571
920.818	14434
920.928	14317
921.038	14556
921.148	14492
921.258	14278
921.368	14161
921.477	13959
921.587	14054
921.697	13906
921.806	13955
921.916	13871
922.025	13761
922.134	13647
922.244	13655
922.353	13647
922.462	13411
922.571	13449
922.68	13244
922.789	13232
922.898	13293
923.007	13122
923.116	13320
923.224	13301
923.333	13225
923.442	13099
923.55	13042
923.659	13145
923.767	13202
923.876	13038
923.984	13114
924.092	12973
924.201	12977
924.309	12939
924.417	13008
924.525	12977
924.633	13042
924.741	13799
924.849	12722
924.956	12928
925.064	12764
925.172	12642
925.279	12669
925.387	12730
925.494	12703
925.602	12806
925.709	12662
925.816	12631
925.924	12688
926.031	12623
926.138	12711
926.245	12722
926.352	12506
926.459	12684
926.566	12700
926.673	12585
926.779	12452
926.886	12483
926.993	12304
927.099	12350
927.206	12266
927.312	12251
927.419	12254
927.525	12292
927.631	12254
927.737	12163
927.843	12140
927.95	12007
928.056	12102
928.162	12087
928.267	12038
928.373	12814
928.479	12087
928.585	11893
928.69	11984
928.796	12022
928.901	11931
929.007	11840
929.112	11980
929.218	11965
929.323	11851
929.428	11824
929.533	12041
929.638	11843
929.743	11870
929.848	11851
929.953	11779
930.058	11676
930.163	11501
930.267	11543
930.372	11729
930.477	11524
930.581	11794
930.685	11490
930.79	11493
930.894	11356
930.998	11497
931.103	11512
931.207	11147
931.311	11094
931.415	11052
931.519	10873
931.623	10850
