Data from test_V78500241_2035.txt Node
Date: Fri Mar 25 15:55:53 CST 2022
User: usil
Spectrometer: V785-0024
Trigger mode: 0
Integration Time (sec): 4.000000E-1
Scans to average: 1
Nonlinearity correction enabled: false
Boxcar width: 0
Storing dark spectrum: false
XAxis mode: Wavelengths
Number of Pixels in Spectrum: 1024
>>>>>Begin Spectral Data<<<<<
801.071	28858
801.214	28672
801.356	28527
801.499	28493
801.641	28363
801.783	28462
801.926	28401
802.068	28436
802.211	28405
802.353	28291
802.496	28188
802.638	28116
802.78	28082
802.923	28139
803.065	27987
803.208	28044
803.35	28150
803.492	28329
803.635	28360
803.777	28188
803.919	28348
804.061	28653
804.204	28447
804.346	28287
804.488	28280
804.63	28360
804.773	28196
804.915	28367
805.057	28493
805.199	28382
805.341	28401
805.483	28630
805.626	28451
805.768	28508
805.91	28504
806.052	28382
806.194	28531
806.336	28641
806.478	28546
806.62	28615
806.762	28706
806.904	28801
807.046	28942
807.188	29003
807.33	28995
807.472	29136
807.614	28980
807.756	28965
807.898	28801
808.04	28786
808.182	28858
808.324	28885
808.465	28908
808.607	29006
808.749	29337
808.891	29147
809.033	29406
809.174	29326
809.316	29216
809.458	29220
809.6	29208
809.741	29269
809.883	29337
810.025	29414
810.166	29589
810.308	29406
810.45	29402
810.591	29459
810.733	29220
810.875	29261
811.016	29227
811.158	29204
811.299	29349
811.441	29345
811.582	29315
811.724	29440
811.865	29200
812.007	29162
812.148	29227
812.29	29280
812.431	29459
812.573	29653
812.714	29661
812.855	29802
812.997	29889
813.138	30049
813.279	29824
813.421	29623
813.562	29832
813.703	29589
813.845	29375
813.986	29254
814.127	29086
814.268	28843
814.41	28957
814.551	28991
814.692	29044
814.833	28839
814.974	28965
815.115	28987
815.256	28961
815.397	28839
815.539	28858
815.68	28702
815.821	28755
815.962	28694
816.103	28778
816.244	28698
816.385	28607
816.526	28641
816.666	28356
816.807	28318
816.948	28303
817.089	28386
817.23	28291
817.371	28261
817.512	28246
817.653	28196
817.793	28238
817.934	28455
818.075	28204
818.216	28291
818.356	28166
818.497	28158
818.638	27895
818.778	28032
818.919	28036
819.06	28044
819.2	28090
819.341	28185
819.481	28299
819.622	28405
819.762	28618
819.903	28573
820.043	28531
820.184	28440
820.324	28401
820.465	28470
820.605	28523
820.746	28413
820.886	28268
821.026	28341
821.167	28409
821.307	28413
821.447	28291
821.588	28196
821.728	28070
821.868	27926
822.008	27778
822.149	27819
822.289	27644
822.429	27622
822.569	27416
822.709	27412
822.849	27176
822.99	27374
823.13	27146
823.27	27230
823.41	27028
823.55	27009
823.69	27108
823.83	27100
823.97	27043
824.11	26990
824.25	26925
824.389	26838
824.529	27032
824.669	26853
824.809	27032
824.949	26990
825.089	27131
825.228	26998
825.368	26727
825.508	26773
825.648	26811
825.787	26765
825.927	26876
826.067	26834
826.206	26644
826.346	26765
826.485	26861
826.625	26868
826.765	26834
826.904	26800
827.044	26640
827.183	26511
827.323	26469
827.462	26499
827.601	26495
827.741	26465
827.88	26503
828.02	26370
828.159	26431
828.298	26549
828.437	26526
828.577	26537
828.716	26598
828.855	26355
828.994	26202
829.134	26180
829.273	26347
829.412	26233
829.551	26096
829.69	26065
829.829	26138
829.968	26225
830.107	26149
830.246	26237
830.385	26122
830.524	26062
830.663	26020
830.802	25917
830.941	25849
831.08	25795
831.219	25879
831.357	25769
831.496	25970
831.635	25875
831.774	25795
831.913	25681
832.051	25658
832.19	25575
832.329	25575
832.467	25502
832.606	25495
832.744	25373
832.883	25578
833.022	25445
833.16	25487
833.299	25499
833.437	25487
833.576	25613
833.714	25624
833.852	25605
833.991	25655
834.129	25662
834.267	25784
834.406	25362
834.544	25620
834.682	25616
834.821	25533
834.959	25700
835.097	25533
835.235	25556
835.373	25476
835.511	25518
835.65	25327
835.788	25362
835.926	25263
836.064	25236
836.202	25247
836.34	25316
836.478	25403
836.615	25358
836.753	25426
836.891	25331
837.029	25320
837.167	25346
837.305	25236
837.443	25190
837.58	25278
837.718	25198
837.856	25247
837.993	25168
838.131	25187
838.269	25122
838.406	25107
838.544	25042
838.681	24810
838.819	24772
838.956	24730
839.094	24547
839.231	24776
839.369	24772
839.506	25031
839.643	24928
839.781	24650
839.918	24547
840.055	24711
840.193	24601
840.33	24544
840.467	24471
840.604	24528
840.742	24909
840.879	24399
841.016	24551
841.153	24445
841.29	24589
841.427	24593
841.564	24467
841.701	24578
841.838	24464
841.975	24555
842.112	24456
842.249	24395
842.385	24456
842.522	24437
842.659	24380
842.796	24285
842.933	24285
843.069	24171
843.206	24228
843.343	24232
843.479	24228
843.616	24258
843.752	24117
843.889	24015
844.025	24163
844.162	24083
844.298	24178
844.435	24060
844.571	24121
844.708	24144
844.844	24292
844.98	24213
845.117	24190
845.253	23973
845.389	23866
845.525	23813
845.661	23847
845.798	23836
845.934	23889
846.07	23809
846.206	23859
846.342	23912
846.478	23600
846.614	23539
846.75	23474
846.886	23433
847.022	23455
847.158	23444
847.294	23516
847.429	23570
847.565	23490
847.701	23710
847.837	23261
847.972	23284
848.108	23334
848.244	23322
848.379	23220
848.515	23094
848.65	23174
848.786	23174
848.921	23178
849.057	23334
849.192	23162
849.328	23261
849.463	23261
849.598	23098
849.734	22927
849.869	22930
850.004	22831
850.14	22908
850.275	22908
850.41	22752
850.545	22881
850.68	22889
850.815	22839
850.95	22771
851.085	22976
851.22	22965
851.355	22847
851.49	22873
851.625	22953
851.76	22812
851.895	22812
852.03	22774
852.165	22767
852.299	22881
852.434	22987
852.569	22858
852.703	22831
852.838	22824
852.973	23025
853.107	22927
853.242	22873
853.376	22763
853.511	22504
853.645	22615
853.78	22706
853.914	22721
854.048	22653
854.183	22706
854.317	22713
854.451	22812
854.585	22653
854.72	22626
854.854	22786
854.988	22550
855.122	22596
855.256	22580
855.39	22744
855.524	22771
855.658	22862
855.792	22615
855.926	22622
856.06	22744
856.194	22839
856.327	22603
856.461	22588
856.595	22782
856.729	22706
856.862	22816
856.996	22706
857.13	22809
857.263	22824
857.397	22942
857.53	22691
857.664	22554
857.797	22687
857.931	22835
858.064	22793
858.197	22755
858.331	22721
858.464	22656
858.597	22611
858.731	22759
858.864	22618
858.997	22607
859.13	22664
859.263	22649
859.396	22786
859.529	22660
859.662	22584
859.795	22580
859.928	22736
860.061	22809
860.194	22972
860.327	22729
860.46	22607
860.592	22877
860.725	22915
860.858	22889
860.99	22694
861.123	22470
861.256	22649
861.388	22744
861.521	23307
861.653	22542
861.786	22538
861.918	22516
862.05	22577
862.183	22599
862.315	22519
862.447	22778
862.58	22478
862.712	22348
862.844	22344
862.976	22538
863.108	22394
863.24	22759
863.372	22436
863.504	22390
863.636	22382
863.768	22417
863.9	22417
864.032	22360
864.164	22310
864.296	22371
864.428	22493
864.559	22413
864.691	22500
864.823	22356
864.954	22413
865.086	22341
865.217	22238
865.349	22086
865.48	22272
865.612	22390
865.743	22459
865.875	22325
866.006	22223
866.137	22188
866.269	22287
866.4	22242
866.531	22196
866.662	22093
866.793	22120
866.924	22173
867.055	22310
867.186	22215
867.317	22128
867.448	22074
867.579	22032
867.71	22139
867.841	22074
867.972	22131
868.103	22154
868.233	22310
868.364	22162
868.495	22295
868.625	22527
868.756	22527
868.886	22375
869.017	22371
869.147	22512
869.278	22550
869.408	22459
869.539	22428
869.669	22645
869.799	22485
869.929	22561
870.06	22622
870.19	22725
870.32	22653
870.45	22683
870.58	22889
870.71	22999
870.84	23037
870.97	22866
871.1	22869
871.23	22858
871.36	22946
871.489	22938
871.619	23060
871.749	23086
871.879	23052
872.008	23204
872.138	22976
872.267	23003
872.397	22858
872.526	22911
872.656	22927
872.785	22816
872.915	23056
873.044	23121
873.173	23041
873.303	23037
873.432	23124
873.561	23151
873.69	23098
873.819	23178
873.948	23075
874.077	23102
874.206	23041
874.335	23025
874.464	23174
874.593	23280
874.722	23109
874.851	23261
874.979	23307
875.108	23360
875.237	23155
875.365	23208
875.494	23223
875.623	23311
875.751	23261
875.88	23261
876.008	23258
876.136	23467
876.265	23649
876.393	23764
876.521	23718
876.65	23722
876.778	23649
876.906	23520
877.034	23623
877.162	23554
877.29	23634
877.418	23562
877.546	23642
877.674	23531
877.802	23486
877.93	23676
878.058	23490
878.185	23493
878.313	23531
878.441	23467
878.568	23353
878.696	23547
878.824	23672
878.951	23703
879.079	23741
879.206	23923
879.333	23798
879.461	23661
879.588	23627
879.715	23863
879.842	23893
879.97	23752
880.097	23459
880.224	23463
880.351	23448
880.478	23455
880.605	23417
880.732	23265
880.859	23543
880.986	23395
881.112	23554
881.239	23162
881.366	23064
881.493	22957
881.619	23014
881.746	23075
881.872	22923
881.999	22854
882.125	22953
882.252	22908
882.378	22915
882.505	23056
882.631	22828
882.757	22725
882.883	22797
883.01	22683
883.136	22546
883.262	22474
883.388	22421
883.514	22637
883.64	22630
883.766	22535
883.892	22337
884.018	22447
884.143	22538
884.269	22611
884.395	22394
884.52	22188
884.646	22295
884.772	22272
884.897	22257
885.023	22280
885.148	22402
885.274	22432
885.399	22382
885.524	22215
885.65	22306
885.775	22299
885.9	22329
886.025	22371
886.15	22379
886.275	22314
886.4	22211
886.525	22166
886.65	22280
886.775	22192
886.9	22325
887.025	22432
887.149	22169
887.274	22013
887.399	22025
887.523	22013
887.648	21907
887.773	21964
887.897	22025
888.021	22048
888.146	22029
888.27	22067
888.395	22051
888.519	22082
888.643	22032
888.767	22078
888.891	21918
889.015	21835
889.139	21903
889.263	21747
889.387	21953
889.511	22044
889.635	22048
889.759	21846
889.883	21705
890.006	21778
890.13	21789
890.254	21713
890.377	21774
890.501	21572
890.624	21526
890.748	21564
890.871	21466
890.995	21374
891.118	21310
891.241	21313
891.364	21351
891.488	21454
891.611	21428
891.734	21310
891.857	21275
891.98	21401
892.103	21431
892.226	21313
892.349	21275
892.471	21150
892.594	21260
892.717	21298
892.839	21195
892.962	21378
893.085	21199
893.207	21233
893.33	21142
893.452	21203
893.575	21340
893.697	21169
893.819	21435
893.941	21416
894.064	21310
894.186	21317
894.308	21135
894.43	21294
894.552	21454
894.674	21184
894.796	21142
894.918	21233
895.04	21188
895.161	21302
895.283	21386
895.405	21165
895.526	21222
895.648	21211
895.769	21306
895.891	21340
896.012	21298
896.134	21188
896.255	21302
896.376	21146
896.498	21264
896.619	21237
896.74	21211
896.861	21218
896.982	21530
897.103	21709
897.224	21534
897.345	21519
897.466	21332
897.587	21397
897.708	21534
897.828	21469
897.949	21393
898.07	21306
898.19	21241
898.311	21443
898.431	21294
898.552	21355
898.672	21526
898.792	21439
898.913	21389
899.033	21287
899.153	21195
899.273	21237
899.393	21062
899.513	21161
899.633	21222
899.753	21100
899.873	21165
899.993	21252
900.113	21070
900.232	21093
900.352	21043
900.472	21081
900.591	20944
900.711	20948
900.83	20891
900.95	20944
901.069	21009
901.189	20834
901.308	20674
901.427	20465
901.546	20514
901.665	20571
901.784	20518
901.904	20362
902.023	20248
902.141	19986
902.26	20001
902.379	20081
902.498	19890
902.617	19955
902.735	19986
902.854	19982
902.973	19970
903.091	19696
903.21	19586
903.328	19575
903.446	19556
903.565	19373
903.683	19449
903.801	19350
903.919	19335
904.038	19282
904.156	19251
904.274	19373
904.392	19141
904.51	19274
904.627	19080
904.745	19228
904.863	19228
904.981	18954
905.098	18989
905.216	18821
905.334	18932
905.451	18909
905.569	18837
905.686	18947
905.803	18741
905.921	18623
906.038	18768
906.155	18658
906.272	18681
906.389	18502
906.506	18296
906.623	18395
906.74	18391
906.857	18216
906.974	18338
907.091	18407
907.208	18380
907.324	18441
907.441	18308
907.557	18194
907.674	18015
907.79	18079
907.907	18041
908.023	18155
908.139	18110
908.256	17999
908.372	17958
908.488	17996
908.604	17904
908.72	17851
908.836	17684
908.952	17764
909.068	17961
909.184	17965
909.3	17752
909.415	17855
909.531	17786
909.647	17547
909.762	17467
909.878	17482
909.993	17619
910.108	17467
910.224	17383
910.339	17376
910.454	17364
910.57	17376
910.685	17166
910.8	17493
910.915	17433
911.03	17239
911.145	17113
911.259	17079
911.374	17151
911.489	16968
911.604	16976
911.718	16869
911.833	16835
911.947	16763
912.062	16710
912.176	16812
912.291	16854
912.405	16835
912.519	16946
912.633	16995
912.748	16847
912.862	16797
912.976	16698
913.09	16531
913.204	16656
913.318	16698
913.431	16664
913.545	16675
913.659	16710
913.772	16679
913.886	16424
914	16512
914.113	16493
914.226	16489
914.34	16421
914.453	16310
914.566	16367
914.68	16287
914.793	16280
914.906	16067
915.019	16032
915.132	15903
915.245	16002
915.358	16067
915.47	15998
915.583	15956
915.696	15991
915.809	16124
915.921	16044
916.034	15842
916.146	15941
916.259	15922
916.371	15960
916.483	15922
916.595	15720
916.708	15774
916.82	15880
916.932	15804
917.044	15819
917.156	15724
917.268	15622
917.38	15591
917.491	15557
917.603	15553
917.715	15587
917.826	15701
917.938	15545
918.049	15416
918.161	15492
918.272	15633
918.384	15629
918.495	15591
918.606	15466
918.717	15374
918.828	15435
918.939	15443
919.05	15211
919.161	15256
919.272	15135
919.383	15161
919.494	15412
919.604	15530
919.715	15222
919.826	15180
919.936	15306
920.047	15370
920.157	15272
920.267	15542
920.378	15317
920.488	15313
920.598	15428
920.708	15591
920.818	15412
920.928	15500
921.038	15595
921.148	15469
921.258	15211
921.368	15081
921.477	14941
921.587	14982
921.697	14826
921.806	15043
921.916	14914
922.025	14785
922.134	14636
922.244	14556
922.353	14659
922.462	14518
922.571	14415
922.68	14301
922.789	14275
922.898	14347
923.007	14290
923.116	14294
923.224	14278
923.333	14309
923.442	14138
923.55	13974
923.659	14084
923.767	14187
923.876	14062
923.984	14092
924.092	13986
924.201	13932
924.309	13997
924.417	14054
924.525	13898
924.633	13967
924.741	14876
924.849	13799
924.956	13833
925.064	13734
925.172	13734
925.279	13613
925.387	13750
925.494	13620
925.602	13818
925.709	13636
925.816	13582
925.924	13616
926.031	13681
926.138	13559
926.245	13639
926.352	13510
926.459	13578
926.566	13647
926.673	13540
926.779	13430
926.886	13407
926.993	13251
927.099	13107
927.206	13206
927.312	13183
927.419	13190
927.525	13171
927.631	13251
927.737	13137
927.843	13072
927.95	12935
928.056	13012
928.162	13019
928.267	12981
928.373	13662
928.479	13004
928.585	12901
928.69	12943
928.796	12993
928.901	12791
929.007	12753
929.112	12859
929.218	12791
929.323	12787
929.428	12719
929.533	12901
929.638	12570
929.743	12738
929.848	12658
929.953	12612
930.058	12540
930.163	12353
930.267	12433
930.372	12479
930.477	12323
930.581	12528
930.685	12418
930.79	12327
930.894	12289
930.998	12216
931.103	12441
931.207	12064
931.311	11969
931.415	11794
931.519	11638
931.623	11707
