Data from test_V78500241_3434.txt Node
Date: Fri Mar 25 16:05:35 CST 2022
User: usil
Spectrometer: V785-0024
Trigger mode: 0
Integration Time (sec): 4.000000E-1
Scans to average: 1
Nonlinearity correction enabled: false
Boxcar width: 0
Storing dark spectrum: false
XAxis mode: Wavelengths
Number of Pixels in Spectrum: 1024
>>>>>Begin Spectral Data<<<<<
801.071	28653
801.214	28733
801.356	28550
801.499	28516
801.641	28333
801.783	28348
801.926	28462
802.068	28310
802.211	28230
802.353	28200
802.496	28162
802.638	28086
802.78	28139
802.923	27888
803.065	27911
803.208	27857
803.35	28029
803.492	28143
803.635	28333
803.777	28261
803.919	28371
804.061	28618
804.204	28276
804.346	28215
804.488	28238
804.63	28177
804.773	28192
804.915	28421
805.057	28398
805.199	28341
805.341	28375
805.483	28615
805.626	28508
805.768	28386
805.91	28382
806.052	28436
806.194	28360
806.336	28596
806.478	28447
806.62	28409
806.762	28573
806.904	28740
807.046	28976
807.188	28942
807.33	28930
807.472	28892
807.614	28771
807.756	28885
807.898	28782
808.04	28542
808.182	28812
808.324	28812
808.465	28839
808.607	29094
808.749	29098
808.891	29269
809.033	29337
809.174	29311
809.316	29197
809.458	29094
809.6	29197
809.741	29292
809.883	29303
810.025	29535
810.166	29353
810.308	29410
810.45	29303
810.591	29280
810.733	29010
810.875	29197
811.016	29003
811.158	28991
811.299	29250
811.441	29368
811.582	29261
811.724	29254
811.865	28961
812.007	29159
812.148	29193
812.29	29117
812.431	29330
812.573	29375
812.714	29547
812.855	29630
812.997	29821
813.138	29756
813.279	29764
813.421	29695
813.562	29714
813.703	29562
813.845	29436
813.986	29067
814.127	29003
814.268	28961
814.41	28866
814.551	28904
814.692	28908
814.833	28839
814.974	28733
815.115	28763
815.256	28748
815.397	28805
815.539	28577
815.68	28603
815.821	28618
815.962	28691
816.103	28675
816.244	28603
816.385	28497
816.526	28481
816.666	28200
816.807	28078
816.948	28295
817.089	28299
817.23	28177
817.371	28181
817.512	28246
817.653	28074
817.793	28143
817.934	28230
818.075	28044
818.216	28135
818.356	28067
818.497	28204
818.638	27876
818.778	27937
818.919	27895
819.06	27991
819.2	28188
819.341	28139
819.481	28181
819.622	28261
819.762	28409
819.903	28485
820.043	28516
820.184	28436
820.324	28226
820.465	28352
820.605	28325
820.746	28348
820.886	28169
821.026	28200
821.167	28303
821.307	28207
821.447	28154
821.588	28261
821.728	27911
821.868	27903
822.008	27705
822.149	27610
822.289	27557
822.429	27332
822.569	27386
822.709	27317
822.849	27150
822.99	27180
823.13	27157
823.27	27207
823.41	26986
823.55	26880
823.69	27009
823.83	27024
823.97	26998
824.11	26796
824.25	26765
824.389	26796
824.529	26925
824.669	26899
824.809	26899
824.949	26883
825.089	26902
825.228	26792
825.368	26689
825.508	26686
825.648	26754
825.787	26792
825.927	26788
826.067	26682
826.206	26609
826.346	26872
826.485	26826
826.625	26674
826.765	26883
826.904	26750
827.044	26571
827.183	26457
827.323	26404
827.462	26427
827.601	26351
827.741	26366
827.88	26400
828.02	26309
828.159	26328
828.298	26404
828.437	26583
828.577	26389
828.716	26537
828.855	26309
828.994	26153
829.134	26069
829.273	26096
829.412	26244
829.551	26081
829.69	26031
829.829	26172
829.968	26256
830.107	26161
830.246	26027
830.385	26058
830.524	26096
830.663	25966
830.802	25963
830.941	25696
831.08	25712
831.219	25788
831.357	25807
831.496	26020
831.635	25738
831.774	25681
831.913	25586
832.051	25445
832.19	25441
832.329	25533
832.467	25430
832.606	25327
832.744	25358
832.883	25346
833.022	25388
833.16	25426
833.299	25468
833.437	25483
833.576	25377
833.714	25540
833.852	25571
833.991	25415
834.129	25556
834.267	25502
834.406	25487
834.544	25320
834.682	25468
834.821	25479
834.959	25647
835.097	25354
835.235	25529
835.373	25487
835.511	25464
835.65	25327
835.788	25331
835.926	25122
836.064	25072
836.202	25034
836.34	25297
836.478	25346
836.615	25278
836.753	25324
836.891	25316
837.029	25365
837.167	25164
837.305	25217
837.443	25145
837.58	25027
837.718	25247
837.856	25091
837.993	25126
838.131	25152
838.269	25012
838.406	24981
838.544	24791
838.681	24966
838.819	24631
838.956	24661
839.094	24604
839.231	24544
839.369	24741
839.506	25012
839.643	24802
839.781	24616
839.918	24623
840.055	24593
840.193	24490
840.33	24471
840.467	24528
840.604	24635
840.742	24677
840.879	24426
841.016	24372
841.153	24445
841.29	24517
841.427	24380
841.564	24525
841.701	24448
841.838	24505
841.975	24296
842.112	24399
842.249	24330
842.385	24163
842.522	24456
842.659	24357
842.796	24262
842.933	24315
843.069	24186
843.206	24091
843.343	24182
843.479	24285
843.616	24190
843.752	23961
843.889	24087
844.025	24232
844.162	24087
844.298	24102
844.435	23946
844.571	24087
844.708	24079
844.844	24205
844.98	24003
845.117	24079
845.253	23942
845.389	23961
845.525	23847
845.661	23874
845.798	23756
845.934	23737
846.07	23745
846.206	23767
846.342	23863
846.478	23775
846.614	23649
846.75	23528
846.886	23524
847.022	23551
847.158	23516
847.294	23429
847.429	23596
847.565	23455
847.701	23676
847.837	23166
847.972	23098
848.108	23246
848.244	23322
848.379	23105
848.515	23235
848.65	22953
848.786	23079
848.921	22991
849.057	23216
849.192	23178
849.328	23147
849.463	23006
849.598	22934
849.734	22991
849.869	22816
850.004	22805
850.14	22972
850.275	22816
850.41	22740
850.545	22805
850.68	22729
850.815	22771
850.95	22797
851.085	22923
851.22	22900
851.355	22858
851.49	22733
851.625	22771
851.76	22866
851.895	22733
852.03	22744
852.165	22919
852.299	22904
852.434	22835
852.569	22850
852.703	22691
852.838	22949
852.973	22900
853.107	22854
853.242	22736
853.376	22580
853.511	22542
853.645	22641
853.78	22805
853.914	22740
854.048	22660
854.183	22729
854.317	22710
854.451	22805
854.585	22649
854.72	22710
854.854	22713
854.988	22702
855.122	22672
855.256	22519
855.39	22721
855.524	22767
855.658	22702
855.792	22729
855.926	22752
856.06	22660
856.194	22755
856.327	22656
856.461	22637
856.595	22573
856.729	22622
856.862	22687
856.996	22607
857.13	22755
857.263	22706
857.397	22683
857.53	22596
857.664	22675
857.797	22649
857.931	22831
858.064	22691
858.197	22771
858.331	22603
858.464	22710
858.597	22485
858.731	22508
858.864	22649
858.997	22508
859.13	22710
859.263	22630
859.396	22748
859.529	22538
859.662	22611
859.795	22729
859.928	22542
860.061	22645
860.194	22820
860.327	22717
860.46	22607
860.592	22873
860.725	22706
860.858	22843
860.99	22588
861.123	22565
861.256	22660
861.388	22771
861.521	23277
861.653	22478
861.786	22394
861.918	22504
862.05	22432
862.183	22588
862.315	22618
862.447	22710
862.58	22573
862.712	22348
862.844	22348
862.976	22569
863.108	22557
863.24	22550
863.372	22443
863.504	22497
863.636	22238
863.768	22341
863.9	22287
864.032	22341
864.164	22424
864.296	22424
864.428	22421
864.559	22432
864.691	22443
864.823	22432
864.954	22287
865.086	22219
865.217	22272
865.349	22177
865.48	22173
865.612	22097
865.743	22443
865.875	22257
866.006	22090
866.137	22337
866.269	22284
866.4	22139
866.531	22074
866.662	22162
866.793	22109
866.924	22196
867.055	22211
867.186	22188
867.317	22128
867.448	22063
867.579	22188
867.71	22048
867.841	22055
867.972	22257
868.103	22055
868.233	22257
868.364	22124
868.495	22306
868.625	22386
868.756	22607
868.886	22314
869.017	22398
869.147	22409
869.278	22440
869.408	22344
869.539	22367
869.669	22508
869.799	22535
869.929	22497
870.06	22382
870.19	22816
870.32	22702
870.45	22656
870.58	22828
870.71	22809
870.84	22896
870.97	22877
871.1	22733
871.23	22881
871.36	22946
871.489	22946
871.619	22915
871.749	22896
871.879	22968
872.008	23140
872.138	23079
872.267	22942
872.397	22953
872.526	22812
872.656	22782
872.785	22877
872.915	23022
873.044	23105
873.173	23048
873.303	22995
873.432	23193
873.561	23086
873.69	23006
873.819	22968
873.948	23193
874.077	22968
874.206	22976
874.335	23025
874.464	23147
874.593	23254
874.722	23102
874.851	23288
874.979	23315
875.108	23208
875.237	23136
875.365	23170
875.494	23341
875.623	23322
875.751	23162
875.88	23277
876.008	23292
876.136	23345
876.265	23619
876.393	23752
876.521	23600
876.65	23627
876.778	23634
876.906	23493
877.034	23520
877.162	23558
877.29	23486
877.418	23676
877.546	23695
877.674	23684
877.802	23619
877.93	23543
878.058	23573
878.185	23486
878.313	23490
878.441	23646
878.568	23322
878.696	23391
878.824	23623
878.951	23604
879.079	23764
879.206	23821
879.333	23722
879.461	23543
879.588	23562
879.715	23710
879.842	23764
879.97	23649
880.097	23452
880.224	23296
880.351	23356
880.478	23410
880.605	23379
880.732	23433
880.859	23486
880.986	23379
881.112	23482
881.239	23246
881.366	23048
881.493	22991
881.619	23025
881.746	22927
881.872	23025
881.999	22820
882.125	22972
882.252	22904
882.378	22889
882.505	23075
882.631	22824
882.757	22622
882.883	22599
883.01	22565
883.136	22618
883.262	22451
883.388	22535
883.514	22577
883.64	22599
883.766	22561
883.892	22363
884.018	22390
884.143	22500
884.269	22599
884.395	22329
884.52	22265
884.646	22177
884.772	22253
884.897	22173
885.023	22226
885.148	22417
885.274	22447
885.399	22363
885.524	22257
885.65	22207
885.775	22211
885.9	22112
886.025	22291
886.15	22268
886.275	22128
886.4	22196
886.525	22147
886.65	22173
886.775	22086
886.9	22219
887.025	22379
887.149	22143
887.274	21991
887.399	21983
887.523	21968
887.648	21907
887.773	21960
887.897	22013
888.021	21956
888.146	22002
888.27	22067
888.395	22112
888.519	21983
888.643	22032
888.767	22055
888.891	21892
889.015	21770
889.139	21774
889.263	21739
889.387	21884
889.511	22044
889.635	21934
889.759	21812
889.883	21789
890.006	21880
890.13	21854
890.254	21705
890.377	21728
890.501	21637
890.624	21477
890.748	21656
890.871	21481
890.995	21329
891.118	21188
891.241	21458
891.364	21325
891.488	21386
891.611	21348
891.734	21344
891.857	21332
891.98	21367
892.103	21359
892.226	21405
892.349	21298
892.471	21066
892.594	21157
892.717	21332
892.839	21294
892.962	21291
893.085	21176
893.207	21351
893.33	21249
893.452	21195
893.575	21233
893.697	21268
893.819	21443
893.941	21344
894.064	21428
894.186	21188
894.308	21142
894.43	21374
894.552	21397
894.674	21180
894.796	21074
894.918	21226
895.04	21169
895.161	21241
895.283	21275
895.405	21138
895.526	21214
895.648	21230
895.769	21264
895.891	21397
896.012	21275
896.134	21252
896.255	21237
896.376	21154
896.498	21146
896.619	21279
896.74	21283
896.861	21256
896.982	21576
897.103	21629
897.224	21469
897.345	21313
897.466	21393
897.587	21466
897.708	21420
897.828	21351
897.949	21329
898.07	21165
898.19	21389
898.311	21454
898.431	21298
898.552	21291
898.672	21496
898.792	21378
898.913	21397
899.033	21310
899.153	21287
899.273	21089
899.393	21195
899.513	21108
899.633	21150
899.753	21203
899.873	21066
899.993	21157
900.113	21024
900.232	21233
900.352	21104
900.472	20933
900.591	20872
900.711	20906
900.83	20800
900.95	20838
901.069	20948
901.189	20746
901.308	20670
901.427	20606
901.546	20450
901.665	20507
901.784	20355
901.904	20404
902.023	20332
902.141	20005
902.26	20115
902.379	20153
902.498	19978
902.617	20012
902.735	20008
902.854	20016
902.973	19753
903.091	19635
903.21	19609
903.328	19757
903.446	19540
903.565	19365
903.683	19396
903.801	19304
903.919	19320
904.038	19343
904.156	19194
904.274	19171
904.392	19255
904.51	19137
904.627	19179
904.745	19194
904.863	19244
904.981	18951
905.098	18890
905.216	18669
905.334	18890
905.451	18863
905.569	18776
905.686	18711
905.803	18814
905.921	18589
906.038	18760
906.155	18665
906.272	18525
906.389	18639
906.506	18414
906.623	18342
906.74	18403
906.857	18342
906.974	18311
907.091	18346
907.208	18464
907.324	18319
907.441	18346
907.557	18057
907.674	18129
907.79	18015
907.907	17965
908.023	18106
908.139	18049
908.256	17999
908.372	17927
908.488	17965
908.604	17802
908.72	17790
908.836	17794
908.952	17634
909.068	17802
909.184	17923
909.3	17760
909.415	17737
909.531	17840
909.647	17592
909.762	17516
909.878	17459
909.993	17486
910.108	17448
910.224	17474
910.339	17395
910.454	17364
910.57	17246
910.685	17292
910.8	17554
910.915	17440
911.03	17246
911.145	17109
911.259	17121
911.374	16995
911.489	16991
911.604	16965
911.718	16820
911.833	16801
911.947	16771
912.062	16721
912.176	16713
912.291	16892
912.405	16733
912.519	17090
912.633	16942
912.748	16919
912.862	16763
912.976	16668
913.09	16478
913.204	16554
913.318	16626
913.431	16733
913.545	16713
913.659	16694
913.772	16599
913.886	16474
914	16329
914.113	16523
914.226	16527
914.34	16497
914.453	16265
914.566	16413
914.68	16291
914.793	16230
914.906	16097
915.019	16017
915.132	16013
915.245	16013
915.358	15975
915.47	15975
915.583	15983
915.696	15953
915.809	16112
915.921	16010
916.034	15960
916.146	15774
916.259	15926
916.371	15994
916.483	15911
916.595	15819
916.708	15835
916.82	15755
916.932	15804
917.044	15755
917.156	15713
917.268	15576
917.38	15633
917.491	15633
917.603	15610
917.715	15701
917.826	15606
917.938	15431
918.049	15466
918.161	15625
918.272	15641
918.384	15663
918.495	15507
918.606	15317
918.717	15367
918.828	15408
918.939	15306
919.05	15329
919.161	15332
919.272	15112
919.383	15207
919.494	15336
919.604	15439
919.715	15313
919.826	15184
919.936	15211
920.047	15386
920.157	15268
920.267	15488
920.378	15329
920.488	15127
920.598	15355
920.708	15523
920.818	15287
920.928	15507
921.038	15561
921.148	15564
921.258	15176
921.368	15192
921.477	14979
921.587	14880
921.697	14960
921.806	14986
921.916	14880
922.025	14739
922.134	14598
922.244	14537
922.353	14613
922.462	14560
922.571	14454
922.68	14366
922.789	14259
922.898	14275
923.007	14187
923.116	14313
923.224	14176
923.333	14259
923.442	14107
923.55	14081
923.659	14031
923.767	14180
923.876	13947
923.984	14191
924.092	13989
924.201	14050
924.309	14031
924.417	13970
924.525	13970
924.633	13928
924.741	14914
924.849	13704
924.956	13795
925.064	13734
925.172	13677
925.279	13689
925.387	13655
925.494	13666
925.602	13685
925.709	13693
925.816	13544
925.924	13590
926.031	13636
926.138	13518
926.245	13693
926.352	13533
926.459	13639
926.566	13639
926.673	13487
926.779	13381
926.886	13324
926.993	13225
927.099	13255
927.206	13183
927.312	13118
927.419	13247
927.525	13190
927.631	13133
927.737	13107
927.843	12954
927.95	12977
928.056	13000
928.162	13000
928.267	13076
928.373	13693
928.479	13122
928.585	12787
928.69	12932
928.796	12958
928.901	12848
929.007	12768
929.112	12802
929.218	12757
929.323	12654
929.428	12681
929.533	12806
929.638	12707
929.743	12700
929.848	12703
929.953	12669
930.058	12471
930.163	12277
930.267	12452
930.372	12467
930.477	12330
930.581	12433
930.685	12426
930.79	12273
930.894	12213
930.998	12186
931.103	12369
931.207	11965
931.311	11916
931.415	11824
931.519	11585
931.623	11577
