Data from test_V78500241_3123.txt Node
Date: Fri Mar 25 16:03:26 CST 2022
User: usil
Spectrometer: V785-0024
Trigger mode: 0
Integration Time (sec): 4.000000E-1
Scans to average: 1
Nonlinearity correction enabled: false
Boxcar width: 0
Storing dark spectrum: false
XAxis mode: Wavelengths
Number of Pixels in Spectrum: 1024
>>>>>Begin Spectral Data<<<<<
801.071	28957
801.214	28953
801.356	28592
801.499	28679
801.641	28599
801.783	28546
801.926	28527
802.068	28500
802.211	28421
802.353	28485
802.496	28356
802.638	28249
802.78	28204
802.923	28249
803.065	28158
803.208	28215
803.35	28333
803.492	28360
803.635	28462
803.777	28382
803.919	28523
804.061	28862
804.204	28512
804.346	28462
804.488	28580
804.63	28489
804.773	28249
804.915	28504
805.057	28702
805.199	28508
805.341	28607
805.483	28664
805.626	28687
805.768	28493
805.91	28706
806.052	28580
806.194	28542
806.336	28896
806.478	28588
806.62	28611
806.762	28835
806.904	28896
807.046	29052
807.188	29117
807.33	29117
807.472	29159
807.614	29117
807.756	29098
807.898	29033
808.04	28809
808.182	28896
808.324	28911
808.465	29056
808.607	29166
808.749	29436
808.891	29433
809.033	29493
809.174	29433
809.316	29318
809.458	29395
809.6	29364
809.741	29512
809.883	29642
810.025	29634
810.166	29649
810.308	29718
810.45	29691
810.591	29703
810.733	29474
810.875	29334
811.016	29398
811.158	29200
811.299	29558
811.441	29535
811.582	29543
811.724	29577
811.865	29459
812.007	29417
812.148	29463
812.29	29509
812.431	29665
812.573	29608
812.714	29764
812.855	29927
812.997	29954
813.138	30197
813.279	30209
813.421	29931
813.562	29882
813.703	29726
813.845	29581
813.986	29375
814.127	29288
814.268	29143
814.41	29143
814.551	29022
814.692	29181
814.833	28995
814.974	29029
815.115	29136
815.256	29185
815.397	28961
815.539	29140
815.68	28987
815.821	28888
815.962	29018
816.103	28869
816.244	28702
816.385	28820
816.526	28668
816.666	28569
816.807	28379
816.948	28592
817.089	28459
817.23	28417
817.371	28466
817.512	28405
817.653	28580
817.793	28421
817.934	28428
818.075	28428
818.216	28443
818.356	28325
818.497	28405
818.638	28173
818.778	28265
818.919	28166
819.06	28314
819.2	28440
819.341	28512
819.481	28440
819.622	28531
819.762	28771
819.903	28866
820.043	28752
820.184	28637
820.324	28554
820.465	28702
820.605	28615
820.746	28546
820.886	28310
821.026	28611
821.167	28474
821.307	28603
821.447	28504
821.588	28474
821.728	28265
821.868	28139
822.008	28017
822.149	27975
822.289	28124
822.429	27720
822.569	27424
822.709	27644
822.849	27572
822.99	27568
823.13	27408
823.27	27466
823.41	27283
823.55	27180
823.69	27283
823.83	27435
823.97	27165
824.11	27081
824.25	27058
824.389	27165
824.529	27287
824.669	27123
824.809	27332
824.949	27329
825.089	27241
825.228	27173
825.368	27074
825.508	27058
825.648	26975
825.787	27036
825.927	27074
826.067	27066
826.206	27112
826.346	27020
826.485	27020
826.625	27108
826.765	27165
826.904	27138
827.044	26750
827.183	26823
827.323	26651
827.462	26929
827.601	26849
827.741	26838
827.88	26781
828.02	26537
828.159	26705
828.298	26735
828.437	26804
828.577	26788
828.716	27005
828.855	26708
828.994	26499
829.134	26400
829.273	26507
829.412	26389
829.551	26476
829.69	26461
829.829	26518
829.968	26632
830.107	26549
830.246	26389
830.385	26385
830.524	26290
830.663	26309
830.802	26233
830.941	26024
831.08	26130
831.219	26164
831.357	26111
831.496	26336
831.635	26221
831.774	25986
831.913	25951
832.051	25913
832.19	25898
832.329	25928
832.467	25708
832.606	25609
832.744	25655
832.883	25708
833.022	25723
833.16	25746
833.299	25723
833.437	25746
833.576	25898
833.714	25814
833.852	25807
833.991	25780
834.129	25811
834.267	25791
834.406	25921
834.544	25826
834.682	25803
834.821	25780
834.959	25902
835.097	25658
835.235	25765
835.373	25708
835.511	25784
835.65	25719
835.788	25696
835.926	25502
836.064	25384
836.202	25403
836.34	25632
836.478	25712
836.615	25575
836.753	25628
836.891	25681
837.029	25571
837.167	25544
837.305	25453
837.443	25529
837.58	25320
837.718	25445
837.856	25449
837.993	25346
838.131	25362
838.269	25278
838.406	25381
838.544	25350
838.681	25031
838.819	24913
838.956	25038
839.094	24886
839.231	25110
839.369	25160
839.506	25255
839.643	25027
839.781	24916
839.918	24901
840.055	24863
840.193	24848
840.33	24928
840.467	24859
840.604	24791
840.742	25099
840.879	24745
841.016	24829
841.153	24726
841.29	24867
841.427	24730
841.564	24730
841.701	24817
841.838	24677
841.975	24719
842.112	24627
842.249	24650
842.385	24525
842.522	24707
842.659	24608
842.796	24528
842.933	24536
843.069	24513
843.206	24460
843.343	24585
843.479	24570
843.616	24513
843.752	24353
843.889	24395
844.025	24513
844.162	24395
844.298	24486
844.435	24365
844.571	24311
844.708	24365
844.844	24483
844.98	24467
845.117	24369
845.253	24251
845.389	24239
845.525	24159
845.661	24167
845.798	24018
845.934	24076
846.07	24003
846.206	24060
846.342	24201
846.478	24076
846.614	23893
846.75	23741
846.886	23756
847.022	23851
847.158	23748
847.294	23710
847.429	23942
847.565	23668
847.701	24106
847.837	23516
847.972	23474
848.108	23551
848.244	23566
848.379	23448
848.515	23364
848.65	23261
848.786	23349
848.921	23429
849.057	23425
849.192	23459
849.328	23467
849.463	23307
849.598	23273
849.734	23353
849.869	23227
850.004	23064
850.14	23132
850.275	23269
850.41	23003
850.545	23090
850.68	23052
850.815	23174
850.95	23075
851.085	23345
851.22	23121
851.355	23109
851.49	23102
851.625	23075
851.76	23083
851.895	23090
852.03	22961
852.165	23178
852.299	23147
852.434	23239
852.569	23143
852.703	23170
852.838	23140
852.973	23117
853.107	23166
853.242	23090
853.376	22980
853.511	22881
853.645	22763
853.78	23136
853.914	22866
854.048	22927
854.183	23037
854.317	22869
854.451	23117
854.585	22904
854.72	23041
854.854	22972
854.988	22972
855.122	22858
855.256	22934
855.39	22923
855.524	23181
855.658	23044
855.792	22919
855.926	22927
856.06	22892
856.194	23132
856.327	22892
856.461	22854
856.595	22934
856.729	22923
856.862	22991
856.996	22991
857.13	23086
857.263	23067
857.397	23022
857.53	23033
857.664	22946
857.797	23064
857.931	23006
858.064	22953
858.197	23041
858.331	23041
858.464	22862
858.597	22691
858.731	22934
858.864	22835
858.997	22911
859.13	22991
859.263	22862
859.396	22927
859.529	22934
859.662	22755
859.795	22839
859.928	22881
860.061	23090
860.194	23178
860.327	22949
860.46	22923
860.592	22976
860.725	23079
860.858	23200
860.99	22965
861.123	22946
861.256	22942
861.388	22934
861.521	23520
861.653	22797
861.786	22683
861.918	22793
862.05	22877
862.183	22664
862.315	22854
862.447	22896
862.58	22965
862.712	22687
862.844	22542
862.976	22710
863.108	22713
863.24	23109
863.372	22557
863.504	22603
863.636	22637
863.768	22759
863.9	22596
864.032	22649
864.164	22569
864.296	22630
864.428	22763
864.559	22637
864.691	22725
864.823	22744
864.954	22607
865.086	22713
865.217	22596
865.349	22413
865.48	22588
865.612	22512
865.743	22637
865.875	22577
866.006	22493
866.137	22459
866.269	22523
866.4	22702
866.531	22519
866.662	22519
866.793	22478
866.924	22489
867.055	22527
867.186	22375
867.317	22535
867.448	22325
867.579	22470
867.71	22386
867.841	22455
867.972	22512
868.103	22432
868.233	22402
868.364	22352
868.495	22569
868.625	22850
868.756	22664
868.886	22523
869.017	22805
869.147	22774
869.278	22729
869.408	22660
869.539	22733
869.669	22691
869.799	22615
869.929	22847
870.06	22702
870.19	22984
870.32	22919
870.45	23006
870.58	23025
870.71	23200
870.84	23083
870.97	23048
871.1	23083
871.23	23261
871.36	23406
871.489	23273
871.619	23212
871.749	23185
871.879	23269
872.008	23478
872.138	23318
872.267	23277
872.397	23254
872.526	23166
872.656	23208
872.785	23307
872.915	23189
873.044	23463
873.173	23353
873.303	23326
873.432	23368
873.561	23292
873.69	23379
873.819	23273
873.948	23433
874.077	23261
874.206	23258
874.335	23284
874.464	23421
874.593	23608
874.722	23486
874.851	23509
874.979	23463
875.108	23478
875.237	23421
875.365	23478
875.494	23592
875.623	23661
875.751	23505
875.88	23573
876.008	23566
876.136	23676
876.265	23828
876.393	24038
876.521	23950
876.65	23920
876.778	23920
876.906	23855
877.034	23946
877.162	23794
877.29	23737
877.418	23912
877.546	23889
877.674	23729
877.802	23969
877.93	23885
878.058	23942
878.185	23863
878.313	23726
878.441	23870
878.568	23649
878.696	23714
878.824	23855
878.951	23931
879.079	23977
879.206	24087
879.333	23920
879.461	23866
879.588	23992
879.715	24034
879.842	24159
879.97	23958
880.097	23627
880.224	23600
880.351	23615
880.478	23756
880.605	23528
880.732	23604
880.859	23916
880.986	23676
881.112	23676
881.239	23505
881.366	23330
881.493	23349
881.619	23174
881.746	23296
881.872	23235
881.999	23258
882.125	23090
882.252	23258
882.378	23124
882.505	23334
882.631	23010
882.757	22812
882.883	23067
883.01	22828
883.136	22889
883.262	22717
883.388	22713
883.514	22946
883.64	23006
883.766	22835
883.892	22599
884.018	22649
884.143	22866
884.269	22881
884.395	22577
884.52	22497
884.646	22508
884.772	22538
884.897	22428
885.023	22535
885.148	22580
885.274	22607
885.399	22641
885.524	22569
885.65	22615
885.775	22542
885.9	22390
886.025	22637
886.15	22607
886.275	22409
886.4	22432
886.525	22546
886.65	22421
886.775	22451
886.9	22596
887.025	22641
887.149	22363
887.274	22261
887.399	22284
887.523	22215
887.648	22291
887.773	22204
887.897	22394
888.021	22382
888.146	22207
888.27	22188
888.395	22223
888.519	22257
888.643	22314
888.767	22318
888.891	22169
889.015	22063
889.139	22097
889.263	22040
889.387	22158
889.511	22280
889.635	22181
889.759	22070
889.883	22032
890.006	21991
890.13	22188
890.254	22013
890.377	21888
890.501	21854
890.624	21671
890.748	21854
890.871	21648
890.995	21542
891.118	21614
891.241	21660
891.364	21568
891.488	21778
891.611	21698
891.734	21599
891.857	21561
891.98	21580
892.103	21572
892.226	21534
892.349	21519
892.471	21355
892.594	21515
892.717	21545
892.839	21572
892.962	21519
893.085	21667
893.207	21500
893.33	21348
893.452	21287
893.575	21428
893.697	21500
893.819	21831
893.941	21606
894.064	21622
894.186	21416
894.308	21306
894.43	21485
894.552	21545
894.674	21641
894.796	21424
894.918	21416
895.04	21485
895.161	21557
895.283	21504
895.405	21405
895.526	21435
895.648	21405
895.769	21462
895.891	21545
896.012	21561
896.134	21378
896.255	21412
896.376	21370
896.498	21458
896.619	21496
896.74	21355
896.861	21549
896.982	21797
897.103	21918
897.224	21709
897.345	21564
897.466	21641
897.587	21633
897.708	21789
897.828	21755
897.949	21572
898.07	21572
898.19	21534
898.311	21682
898.431	21576
898.552	21648
898.672	21739
898.792	21671
898.913	21614
899.033	21496
899.153	21374
899.273	21340
899.393	21268
899.513	21389
899.633	21397
899.753	21420
899.873	21294
899.993	21405
900.113	21211
900.232	21268
900.352	21195
900.472	21116
900.591	21085
900.711	21135
900.83	21096
900.95	21112
901.069	21237
901.189	21039
901.308	20663
901.427	20716
901.546	20670
901.665	20811
901.784	20594
901.904	20530
902.023	20362
902.141	20324
902.26	20210
902.379	20275
902.498	20294
902.617	20187
902.735	20130
902.854	20214
902.973	20100
903.091	19833
903.21	19791
903.328	19788
903.446	19776
903.565	19655
903.683	19670
903.801	19533
903.919	19559
904.038	19525
904.156	19358
904.274	19521
904.392	19415
904.51	19373
904.627	19350
904.745	19407
904.863	19392
904.981	19198
905.098	19015
905.216	19034
905.334	19168
905.451	19031
905.569	19015
905.686	19103
905.803	18958
905.921	18848
906.038	18875
906.155	18837
906.272	18730
906.389	18802
906.506	18513
906.623	18608
906.74	18566
906.857	18460
906.974	18437
907.091	18604
907.208	18642
907.324	18635
907.441	18445
907.557	18258
907.674	18186
907.79	18091
907.907	18201
908.023	18323
908.139	18334
908.256	18186
908.372	18213
908.488	18159
908.604	18030
908.72	17984
908.836	17988
908.952	17893
909.068	17927
909.184	18091
909.3	17977
909.415	17935
909.531	17996
909.647	17722
909.762	17703
909.878	17676
909.993	17649
910.108	17729
910.224	17703
910.339	17718
910.454	17493
910.57	17554
910.685	17387
910.8	17703
910.915	17573
911.03	17497
911.145	17349
911.259	17246
911.374	17273
911.489	17330
911.604	17185
911.718	17006
911.833	16908
911.947	16892
912.062	16934
912.176	17029
912.291	17045
912.405	16900
912.519	17083
912.633	17189
912.748	17033
912.862	16976
912.976	16885
913.09	16752
913.204	16805
913.318	16850
913.431	16847
913.545	16828
913.659	16908
913.772	16763
913.886	16664
914	16645
914.113	16672
914.226	16763
914.34	16691
914.453	16504
914.566	16618
914.68	16630
914.793	16367
914.906	16219
915.019	16230
915.132	16120
915.245	16044
915.358	16139
915.47	16124
915.583	16169
915.696	16143
915.809	16246
915.921	16196
916.034	16169
916.146	16162
916.259	16025
916.371	16097
916.483	16048
916.595	16093
916.708	16067
916.82	15953
916.932	15930
917.044	15956
917.156	15873
917.268	15797
917.38	15972
917.491	15781
917.603	15770
917.715	15975
917.826	15789
917.938	15652
918.049	15652
918.161	15743
918.272	15884
918.384	15835
918.495	15629
918.606	15614
918.717	15420
918.828	15519
918.939	15526
919.05	15511
919.161	15447
919.272	15393
919.383	15450
919.494	15515
919.604	15629
919.715	15428
919.826	15450
919.936	15485
920.047	15618
920.157	15481
920.267	15675
920.378	15473
920.488	15431
920.598	15644
920.708	15789
920.818	15549
920.928	15545
921.038	15728
921.148	15648
921.258	15401
921.368	15249
921.477	15252
921.587	15142
921.697	15119
921.806	15127
921.916	15028
922.025	14868
922.134	14762
922.244	14746
922.353	14804
922.462	14606
922.571	14602
922.68	14488
922.789	14419
922.898	14518
923.007	14351
923.116	14518
923.224	14431
923.333	14381
923.442	14328
923.55	14256
923.659	14214
923.767	14275
923.876	14157
923.984	14214
924.092	14119
924.201	14263
924.309	14195
924.417	14206
924.525	14005
924.633	14096
924.741	14868
924.849	13883
924.956	13989
925.064	13875
925.172	13704
925.279	13887
925.387	13807
925.494	13871
925.602	14012
925.709	13890
925.816	13708
925.924	13757
926.031	13833
926.138	13734
926.245	13719
926.352	13693
926.459	13765
926.566	13791
926.673	13696
926.779	13601
926.886	13499
926.993	13369
927.099	13377
927.206	13327
927.312	13362
927.419	13487
927.525	13308
927.631	13411
927.737	13301
927.843	13209
927.95	13091
928.056	13137
928.162	13122
928.267	13255
928.373	13776
928.479	13228
928.585	12947
928.69	13118
928.796	13000
928.901	13038
929.007	12833
929.112	13015
929.218	12996
929.323	12810
929.428	12856
929.533	13012
929.638	12783
929.743	12722
929.848	12814
929.953	12772
930.058	12696
930.163	12490
930.267	12601
930.372	12677
930.477	12448
930.581	12707
930.685	12513
930.79	12376
930.894	12353
930.998	12422
931.103	12555
931.207	12133
931.311	12060
931.415	11977
931.519	11847
931.623	11691
