Data from test_V78500241_163.txt Node
Date: Fri Mar 25 15:42:55 CST 2022
User: usil
Spectrometer: V785-0024
Trigger mode: 0
Integration Time (sec): 4.000000E-1
Scans to average: 1
Nonlinearity correction enabled: false
Boxcar width: 0
Storing dark spectrum: false
XAxis mode: Wavelengths
Number of Pixels in Spectrum: 1024
>>>>>Begin Spectral Data<<<<<
801.071	29197
801.214	29166
801.356	28896
801.499	28862
801.641	28710
801.783	28721
801.926	28767
802.068	28820
802.211	28725
802.353	28478
802.496	28493
802.638	28478
802.78	28432
802.923	28230
803.065	28295
803.208	28150
803.35	28268
803.492	28436
803.635	28466
803.777	28382
803.919	28459
804.061	28786
804.204	28588
804.346	28356
804.488	28401
804.63	28341
804.773	28348
804.915	28421
805.057	28561
805.199	28447
805.341	28508
805.483	28538
805.626	28466
805.768	28436
805.91	28557
806.052	28478
806.194	28504
806.336	28835
806.478	28546
806.62	28580
806.762	28535
806.904	28866
807.046	28991
807.188	28915
807.33	28953
807.472	28991
807.614	28847
807.756	28820
807.898	28771
808.04	28618
808.182	28687
808.324	28835
808.465	28687
808.607	28930
808.749	29044
808.891	29178
809.033	29303
809.174	29067
809.316	28896
809.458	29147
809.6	29041
809.741	29128
809.883	29166
810.025	29189
810.166	29326
810.308	29273
810.45	29197
810.591	29356
810.733	29014
810.875	28942
811.016	29014
811.158	28976
811.299	29128
811.441	29083
811.582	29102
811.724	28980
811.865	28904
812.007	28881
812.148	28923
812.29	29079
812.431	29151
812.573	29296
812.714	29311
812.855	29482
812.997	29543
813.138	29661
813.279	29558
813.421	29516
813.562	29398
813.703	29341
813.845	29193
813.986	29010
814.127	28717
814.268	28725
814.41	28538
814.551	28577
814.692	28717
814.833	28440
814.974	28603
815.115	28455
815.256	28497
815.397	28497
815.539	28280
815.68	28246
815.821	28322
815.962	28447
816.103	28318
816.244	28124
816.385	28147
816.526	27994
816.666	27892
816.807	27861
816.948	27953
817.089	27903
817.23	27934
817.371	27747
817.512	27819
817.653	27755
817.793	27717
817.934	27698
818.075	27736
818.216	27762
818.356	27724
818.497	27709
818.638	27351
818.778	27507
818.919	27435
819.06	27530
819.2	27545
819.341	27720
819.481	27530
819.622	27751
819.762	27899
819.903	27907
820.043	27846
820.184	27823
820.324	27755
820.465	27743
820.605	27884
820.746	27770
820.886	27606
821.026	27694
821.167	27747
821.307	27732
821.447	27587
821.588	27663
821.728	27370
821.868	27344
822.008	27142
822.149	27062
822.289	27070
822.429	26872
822.569	26864
822.709	26792
822.849	26507
822.99	26541
823.13	26560
823.27	26351
823.41	26298
823.55	26248
823.69	26404
823.83	26317
823.97	26176
824.11	26180
824.25	26145
824.389	26107
824.529	26233
824.669	26202
824.809	26324
824.949	26244
825.089	26256
825.228	26199
825.368	25906
825.508	26008
825.648	26016
825.787	25982
825.927	25978
826.067	25974
826.206	25989
826.346	26084
826.485	25963
826.625	26073
826.765	26008
826.904	26046
827.044	25750
827.183	25727
827.323	25544
827.462	25772
827.601	25559
827.741	25502
827.88	25780
828.02	25586
828.159	25635
828.298	25719
828.437	25689
828.577	25647
828.716	25757
828.855	25533
828.994	25285
829.134	25232
829.273	25373
829.412	25285
829.551	25255
829.69	25133
829.829	25240
829.968	25362
830.107	25312
830.246	25320
830.385	25301
830.524	25244
830.663	25084
830.802	25027
830.941	24901
831.08	24844
831.219	24795
831.357	24787
831.496	25091
831.635	24848
831.774	24848
831.913	24623
832.051	24631
832.19	24654
832.329	24513
832.467	24555
832.606	24437
832.744	24486
832.883	24585
833.022	24407
833.16	24437
833.299	24494
833.437	24627
833.576	24536
833.714	24448
833.852	24429
833.991	24467
834.129	24654
834.267	24525
834.406	24505
834.544	24536
834.682	24467
834.821	24365
834.959	24654
835.097	24407
835.235	24369
835.373	24418
835.511	24304
835.65	24441
835.788	24254
835.926	24136
836.064	23988
836.202	24041
836.34	24224
836.478	24327
836.615	24125
836.753	24319
836.891	24433
837.029	24357
837.167	24372
837.305	24254
837.443	24129
837.58	24133
837.718	24243
837.856	24155
837.993	24098
838.131	24102
838.269	23942
838.406	23999
838.544	23840
838.681	23672
838.819	23752
838.956	23554
839.094	23509
839.231	23566
839.369	23684
839.506	24015
839.643	23783
839.781	23490
839.918	23318
840.055	23459
840.193	23474
840.33	23284
840.467	23360
840.604	23558
840.742	23798
840.879	23334
841.016	23345
841.153	23364
841.29	23444
841.427	23349
841.564	23383
841.701	23509
841.838	23280
841.975	23429
842.112	23364
842.249	23216
842.385	23105
842.522	23349
842.659	23121
842.796	23006
842.933	23003
843.069	23109
843.206	22999
843.343	23170
843.479	23048
843.616	23075
843.752	22797
843.889	22862
844.025	22980
844.162	22771
844.298	22873
844.435	22854
844.571	22759
844.708	22862
844.844	22965
844.98	23037
845.117	22942
845.253	22774
845.389	22744
845.525	22603
845.661	22774
845.798	22569
845.934	22706
846.07	22516
846.206	22630
846.342	22691
846.478	22497
846.614	22325
846.75	22143
846.886	22230
847.022	22409
847.158	22329
847.294	22280
847.429	22268
847.565	22306
847.701	22489
847.837	22109
847.972	21934
848.108	21972
848.244	22116
848.379	21869
848.515	21945
848.65	21816
848.786	21850
848.921	21869
849.057	21892
849.192	21888
849.328	21850
849.463	21804
849.598	21789
849.734	21637
849.869	21698
850.004	21587
850.14	21591
850.275	21599
850.41	21496
850.545	21591
850.68	21507
850.815	21629
850.95	21553
851.085	21808
851.22	21549
851.355	21492
851.49	21538
851.625	21397
851.76	21583
851.895	21435
852.03	21405
852.165	21641
852.299	21519
852.434	21637
852.569	21580
852.703	21530
852.838	21610
852.973	21564
853.107	21641
853.242	21458
853.376	21351
853.511	21192
853.645	21367
853.78	21561
853.914	21321
854.048	21367
854.183	21291
854.317	21321
854.451	21496
854.585	21420
854.72	21367
854.854	21477
854.988	21287
855.122	21291
855.256	21214
855.39	21310
855.524	21462
855.658	21294
855.792	21306
855.926	21355
856.06	21382
856.194	21435
856.327	21340
856.461	21260
856.595	21275
856.729	21378
856.862	21462
856.996	21374
857.13	21374
857.263	21401
857.397	21332
857.53	21230
857.664	21275
857.797	21386
857.931	21424
858.064	21245
858.197	21492
858.331	21332
858.464	21180
858.597	21070
858.731	21279
858.864	21104
858.997	21230
859.13	21367
859.263	21279
859.396	21351
859.529	21211
859.662	21325
859.795	21138
859.928	21298
860.061	21435
860.194	21511
860.327	21302
860.46	21245
860.592	21420
860.725	21389
860.858	21351
860.99	21275
861.123	21119
861.256	21146
861.388	21294
861.521	22040
861.653	21081
861.786	21161
861.918	21138
862.05	21230
862.183	21310
862.315	21287
862.447	21325
862.58	21245
862.712	21104
862.844	21017
862.976	21131
863.108	21055
863.24	21298
863.372	20937
863.504	20921
863.636	20921
863.768	20998
863.9	21047
864.032	20880
864.164	20785
864.296	20933
864.428	20963
864.559	20887
864.691	21085
864.823	21017
864.954	20982
865.086	20918
865.217	20857
865.349	20933
865.48	20857
865.612	20876
865.743	20956
865.875	20868
866.006	20625
866.137	20906
866.269	20842
866.4	20834
866.531	20765
866.662	20758
866.793	20910
866.924	20830
867.055	20872
867.186	20788
867.317	20731
867.448	20674
867.579	20708
867.71	20609
867.841	20655
867.972	20826
868.103	20811
868.233	20823
868.364	20724
868.495	21070
868.625	21009
868.756	21070
868.886	20971
869.017	21009
869.147	21249
869.278	21100
869.408	21017
869.539	20990
869.669	21062
869.799	21085
869.929	21077
870.06	21146
870.19	21329
870.32	21302
870.45	21279
870.58	21428
870.71	21450
870.84	21492
870.97	21363
871.1	21420
871.23	21637
871.36	21633
871.489	21450
871.619	21641
871.749	21648
871.879	21618
872.008	21774
872.138	21698
872.267	21568
872.397	21553
872.526	21466
872.656	21496
872.785	21397
872.915	21663
873.044	21732
873.173	21572
873.303	21656
873.432	21869
873.561	21762
873.69	21587
873.819	21694
873.948	21629
874.077	21625
874.206	21606
874.335	21648
874.464	21759
874.593	21869
874.722	21861
874.851	22021
874.979	21831
875.108	21975
875.237	21895
875.365	21793
875.494	21880
875.623	22021
875.751	21930
875.88	21800
876.008	22010
876.136	21998
876.265	22204
876.393	22519
876.521	22287
876.65	22207
876.778	22181
876.906	22246
877.034	22112
877.162	22276
877.29	22093
877.418	22268
877.546	22337
877.674	22139
877.802	22207
877.93	22154
878.058	22185
878.185	22097
878.313	22276
878.441	22352
878.568	22101
878.696	22211
878.824	22268
878.951	22265
879.079	22440
879.206	22588
879.333	22371
879.461	22265
879.588	22223
879.715	22371
879.842	22402
879.97	22246
880.097	22147
880.224	21964
880.351	22116
880.478	22048
880.605	21956
880.732	22051
880.859	22253
880.986	22002
881.112	21975
881.239	21895
881.366	21846
881.493	21747
881.619	21599
881.746	21641
881.872	21568
881.999	21553
882.125	21443
882.252	21686
882.378	21625
882.505	21816
882.631	21488
882.757	21344
882.883	21538
883.01	21321
883.136	21317
883.262	21256
883.388	21169
883.514	21370
883.64	21485
883.766	21287
883.892	21142
884.018	21100
884.143	21355
884.269	21298
884.395	21123
884.52	20956
884.646	20933
884.772	20899
884.897	20861
885.023	21043
885.148	21093
885.274	21184
885.399	21036
885.524	20963
885.65	20975
885.775	21081
885.9	20990
886.025	21089
886.15	21081
886.275	20971
886.4	20792
886.525	20857
886.65	20952
886.775	20773
886.9	21116
887.025	21104
887.149	21028
887.274	20857
887.399	20693
887.523	20689
887.648	20590
887.773	20594
887.897	20815
888.021	20826
888.146	20674
888.27	20804
888.395	20716
888.519	20720
888.643	20712
888.767	20746
888.891	20663
889.015	20587
889.139	20499
889.263	20503
889.387	20594
889.511	20849
889.635	20541
889.759	20511
889.883	20518
890.006	20613
890.13	20556
890.254	20385
890.377	20431
890.501	20225
890.624	20278
890.748	20374
890.871	20229
890.995	20081
891.118	19974
891.241	20142
891.364	20005
891.488	20195
891.611	20142
891.734	20084
891.857	20187
891.98	19970
892.103	20073
892.226	20088
892.349	20138
892.471	19978
892.594	20065
892.717	20065
892.839	20088
892.962	20062
893.085	19989
893.207	20096
893.33	19951
893.452	19936
893.575	20012
893.697	19997
893.819	20050
893.941	20183
894.064	20069
894.186	19913
894.308	19947
894.43	20145
894.552	20058
894.674	20073
894.796	19849
894.918	20008
895.04	19837
895.161	20069
895.283	20008
895.405	19940
895.526	20065
895.648	19921
895.769	20008
895.891	20111
896.012	20069
896.134	20046
896.255	19993
896.376	20084
896.498	20065
896.619	20077
896.74	20016
896.861	20145
896.982	20351
897.103	20465
897.224	20328
897.345	20343
897.466	20119
897.587	20240
897.708	20347
897.828	20294
897.949	20088
898.07	20092
898.19	20157
898.311	20336
898.431	20191
898.552	20301
898.672	20256
898.792	20336
898.913	20202
899.033	20031
899.153	19921
899.273	19890
899.393	19864
899.513	19970
899.633	19928
899.753	19917
899.873	19887
899.993	19830
900.113	19757
900.232	19887
900.352	19780
900.472	19746
900.591	19632
900.711	19803
900.83	19647
900.95	19856
901.069	19811
901.189	19586
901.308	19476
901.427	19274
901.546	19346
901.665	19312
901.784	19278
901.904	19034
902.023	19061
902.141	18829
902.26	18791
902.379	18863
902.498	18791
902.617	18890
902.735	18726
902.854	18715
902.973	18760
903.091	18506
903.21	18445
903.328	18521
903.446	18448
903.565	18289
903.683	18410
903.801	18064
903.919	18346
904.038	18213
904.156	18064
904.274	18064
904.392	18053
904.51	18030
904.627	18022
904.745	18098
904.863	18095
904.981	17798
905.098	17646
905.216	17699
905.334	17718
905.451	17733
905.569	17653
905.686	17672
905.803	17714
905.921	17566
906.038	17661
906.155	17478
906.272	17265
906.389	17383
906.506	17269
906.623	17261
906.74	17208
906.857	17067
906.974	17067
907.091	17303
907.208	17368
907.324	17239
907.441	17090
907.557	16892
907.674	16862
907.79	16759
907.907	16828
908.023	16866
908.139	16923
908.256	16858
908.372	16793
908.488	16801
908.604	16603
908.72	16592
908.836	16675
908.952	16459
909.068	16580
909.184	16630
909.3	16641
909.415	16577
909.531	16470
909.647	16352
909.762	16306
909.878	16268
909.993	16379
910.108	16280
910.224	16257
910.339	16276
910.454	16166
910.57	16139
910.685	16044
910.8	16230
910.915	16154
911.03	15998
911.145	15869
911.259	15850
911.374	15857
911.489	15789
911.604	15778
911.718	15637
911.833	15637
911.947	15584
912.062	15595
912.176	15637
912.291	15724
912.405	15663
912.519	15876
912.633	15724
912.748	15603
912.862	15557
912.976	15431
913.09	15302
913.204	15306
913.318	15439
913.431	15492
913.545	15481
913.659	15557
913.772	15469
913.886	15252
914	15161
914.113	15359
914.226	15329
914.34	15310
914.453	15188
914.566	15173
914.68	15157
914.793	15157
914.906	14910
915.019	14849
915.132	14842
915.245	14933
915.358	14857
915.47	14838
915.583	14823
915.696	14834
915.809	14925
915.921	14823
916.034	14773
916.146	14743
916.259	14678
916.371	14830
916.483	14670
916.595	14552
916.708	14575
916.82	14640
916.932	14590
917.044	14552
917.156	14606
917.268	14503
917.38	14590
917.491	14457
917.603	14427
917.715	14613
917.826	14594
917.938	14434
918.049	14259
918.161	14446
918.272	14617
918.384	14541
918.495	14488
918.606	14218
918.717	14202
918.828	14240
918.939	14336
919.05	14210
919.161	14172
919.272	14050
919.383	14081
919.494	14267
919.604	14533
919.715	14187
919.826	14237
919.936	14161
920.047	14206
920.157	14168
920.267	14450
920.378	14309
920.488	14130
920.598	14427
920.708	14454
920.818	14366
920.928	14282
921.038	14530
921.148	14446
921.258	14153
921.368	14035
921.477	13917
921.587	13906
921.697	13837
921.806	13856
921.916	13765
922.025	13582
922.134	13544
922.244	13582
922.353	13594
922.462	13491
922.571	13396
922.68	13137
922.789	13301
922.898	13293
923.007	13095
923.116	13301
923.224	13122
923.333	13209
923.442	13042
923.55	13034
923.659	13061
923.767	13050
923.876	13000
923.984	12977
924.092	12863
924.201	13031
924.309	12913
924.417	12962
924.525	12837
924.633	12935
924.741	13704
924.849	12616
924.956	12810
925.064	12627
925.172	12551
925.279	12715
925.387	12700
925.494	12700
925.602	12779
925.709	12677
925.816	12570
925.924	12559
926.031	12692
926.138	12665
926.245	12582
926.352	12486
926.459	12612
926.566	12642
926.673	12467
926.779	12429
926.886	12327
926.993	12258
927.099	12281
927.206	12163
927.312	12106
927.419	12186
927.525	12194
927.631	12220
927.737	12102
927.843	12087
927.95	11931
928.056	12011
928.162	12026
928.267	12064
928.373	12635
928.479	12110
928.585	11885
928.69	12045
928.796	12068
928.901	11904
929.007	11745
929.112	11874
929.218	11855
929.323	11832
929.428	11832
929.533	11973
929.638	11604
929.743	11611
929.848	11741
929.953	11661
930.058	11547
930.163	11474
930.267	11570
930.372	11543
930.477	11417
930.581	11509
930.685	11455
930.79	11341
930.894	11345
930.998	11250
931.103	11444
931.207	11086
931.311	11003
931.415	10923
931.519	10725
931.623	10698
