Data from test_V78500241_2831.txt Node
Date: Fri Mar 25 16:01:24 CST 2022
User: usil
Spectrometer: V785-0024
Trigger mode: 0
Integration Time (sec): 4.000000E-1
Scans to average: 1
Nonlinearity correction enabled: false
Boxcar width: 0
Storing dark spectrum: false
XAxis mode: Wavelengths
Number of Pixels in Spectrum: 1024
>>>>>Begin Spectral Data<<<<<
801.071	29322
801.214	29223
801.356	28987
801.499	28911
801.641	28850
801.783	28793
801.926	28771
802.068	28782
802.211	28691
802.353	28755
802.496	28683
802.638	28584
802.78	28577
802.923	28580
803.065	28497
803.208	28565
803.35	28466
803.492	28759
803.635	28820
803.777	28736
803.919	28938
804.061	29140
804.204	28888
804.346	28782
804.488	28782
804.63	28934
804.773	28725
804.915	28934
805.057	28908
805.199	28892
805.341	28900
805.483	29052
805.626	28987
805.768	28885
805.91	29018
806.052	29037
806.194	28915
806.336	29086
806.478	28968
806.62	28987
806.762	29269
806.904	29375
807.046	29596
807.188	29524
807.33	29474
807.472	29592
807.614	29345
807.756	29429
807.898	29379
808.04	29288
808.182	29345
808.324	29311
808.465	29474
808.607	29570
808.749	29684
808.891	29855
809.033	29882
809.174	29832
809.316	29672
809.458	29779
809.6	29691
809.741	29855
809.883	29703
810.025	29996
810.166	29901
810.308	29996
810.45	29977
810.591	29847
810.733	29756
810.875	29718
811.016	29646
811.158	29634
811.299	29889
811.441	29874
811.582	29984
811.724	29851
811.865	29684
812.007	29741
812.148	29745
812.29	29729
812.431	29939
812.573	30270
812.714	30072
812.855	30262
812.997	30426
813.138	30441
813.279	30460
813.421	30353
813.562	30247
813.703	30045
813.845	30148
813.986	29802
814.127	29589
814.268	29459
814.41	29505
814.551	29474
814.692	29604
814.833	29440
814.974	29501
815.115	29398
815.256	29467
815.397	29364
815.539	29455
815.68	29235
815.821	29178
815.962	29280
816.103	29277
816.244	29235
816.385	29094
816.526	29197
816.666	29033
816.807	28824
816.948	28869
817.089	28938
817.23	28847
817.371	28896
817.512	28748
817.653	28809
817.793	28896
817.934	28755
818.075	28649
818.216	28858
818.356	28820
818.497	28710
818.638	28603
818.778	28592
818.919	28599
819.06	28706
819.2	28634
819.341	28778
819.481	28885
819.622	28942
819.762	29197
819.903	29083
820.043	29033
820.184	29014
820.324	28999
820.465	28953
820.605	28885
820.746	28946
820.886	28835
821.026	28927
821.167	28881
821.307	29022
821.447	28946
821.588	28866
821.728	28615
821.868	28421
822.008	28337
822.149	28329
822.289	28196
822.429	27975
822.569	27941
822.709	27934
822.849	27819
822.99	27873
823.13	27736
823.27	27720
823.41	27603
823.55	27648
823.69	27488
823.83	27747
823.97	27591
824.11	27424
824.25	27435
824.389	27507
824.529	27450
824.669	27542
824.809	27606
824.949	27629
825.089	27519
825.228	27507
825.368	27348
825.508	27397
825.648	27401
825.787	27416
825.927	27450
826.067	27294
826.206	27351
826.346	27344
826.485	27401
826.625	27397
826.765	27507
826.904	27321
827.044	27142
827.183	27199
827.323	26994
827.462	27245
827.601	27116
827.741	27123
827.88	27081
828.02	26986
828.159	27173
828.298	26986
828.437	27108
828.577	27043
828.716	27142
828.855	26952
828.994	26815
829.134	26762
829.273	26765
829.412	26739
829.551	26727
829.69	26781
829.829	26648
829.968	26963
830.107	26735
830.246	26838
830.385	26708
830.524	26568
830.663	26590
830.802	26568
830.941	26229
831.08	26362
831.219	26461
831.357	26355
831.496	26575
831.635	26301
831.774	26282
831.913	26172
832.051	26138
832.19	26172
832.329	26240
832.467	26027
832.606	25902
832.744	25963
832.883	25989
833.022	25978
833.16	26073
833.299	25955
833.437	26008
833.576	26081
833.714	25986
833.852	26206
833.991	26054
834.129	26313
834.267	26161
834.406	26138
834.544	26153
834.682	26191
834.821	26039
834.959	26229
835.097	26046
835.235	26084
835.373	26164
835.511	26111
835.65	26012
835.788	25997
835.926	25795
836.064	25700
836.202	25776
836.34	25871
836.478	26043
836.615	25947
836.753	25826
836.891	26027
837.029	25879
837.167	25879
837.305	25788
837.443	25814
837.58	25734
837.718	25803
837.856	25757
837.993	25658
838.131	25685
838.269	25476
838.406	25681
838.544	25586
838.681	25331
838.819	25259
838.956	25346
839.094	25190
839.231	25156
839.369	25449
839.506	25525
839.643	25464
839.781	25122
839.918	25118
840.055	25091
840.193	25110
840.33	25057
840.467	25110
840.604	25061
840.742	25278
840.879	24928
841.016	25118
841.153	25019
841.29	25282
841.427	25228
841.564	25034
841.701	25080
841.838	25114
841.975	24989
842.112	24920
842.249	24802
842.385	24810
842.522	25046
842.659	24939
842.796	24779
842.933	24810
843.069	24711
843.206	24821
843.343	24875
843.479	24833
843.616	24726
843.752	24574
843.889	24650
844.025	24844
844.162	24559
844.298	24726
844.435	24563
844.571	24467
844.708	24601
844.844	24661
844.98	24722
845.117	24646
845.253	24498
845.389	24509
845.525	24566
845.661	24475
845.798	24384
845.934	24342
846.07	24228
846.206	24418
846.342	24513
846.478	24266
846.614	24083
846.75	24030
846.886	24102
847.022	24125
847.158	24038
847.294	24083
847.429	24091
847.565	24011
847.701	24239
847.837	23840
847.972	23714
848.108	23889
848.244	23783
848.379	23596
848.515	23680
848.65	23570
848.786	23729
848.921	23524
849.057	23596
849.192	23634
849.328	23668
849.463	23630
849.598	23657
849.734	23573
849.869	23505
850.004	23486
850.14	23539
850.275	23459
850.41	23360
850.545	23299
850.68	23387
850.815	23421
850.95	23376
851.085	23615
851.22	23531
851.355	23334
851.49	23425
851.625	23315
851.76	23379
851.895	23311
852.03	23337
852.165	23433
852.299	23455
852.434	23547
852.569	23535
852.703	23474
852.838	23509
852.973	23551
853.107	23402
853.242	23345
853.376	23330
853.511	23132
853.645	23075
853.78	23296
853.914	23318
854.048	23181
854.183	23265
854.317	23273
854.451	23528
854.585	23102
854.72	23242
854.854	23292
854.988	23166
855.122	23197
855.256	23098
855.39	23353
855.524	23216
855.658	23265
855.792	23337
855.926	23220
856.06	23273
856.194	23345
856.327	23170
856.461	23102
856.595	23090
856.729	22976
856.862	23353
856.996	23292
857.13	23379
857.263	23265
857.397	23254
857.53	23124
857.664	23170
857.797	23239
857.931	23269
858.064	23288
858.197	23334
858.331	23296
858.464	23140
858.597	23216
858.731	23056
858.864	23155
858.997	23090
859.13	23193
859.263	23204
859.396	23280
859.529	23280
859.662	23189
859.795	23113
859.928	23200
860.061	23414
860.194	23337
860.327	23303
860.46	23273
860.592	23353
860.725	23493
860.858	23372
860.99	23212
861.123	23071
861.256	23185
861.388	23216
861.521	23992
861.653	23102
861.786	23006
861.918	23052
862.05	23033
862.183	23151
862.315	23086
862.447	23269
862.58	23102
862.712	22881
862.844	22919
862.976	23181
863.108	23079
863.24	23307
863.372	22843
863.504	22885
863.636	22923
863.768	23010
863.9	22972
864.032	22866
864.164	22847
864.296	23083
864.428	23041
864.559	22976
864.691	22904
864.823	22942
864.954	22793
865.086	22847
865.217	22767
865.349	22790
865.48	22801
865.612	22835
865.743	22869
865.875	22801
866.006	22782
866.137	22850
866.269	22767
866.4	22641
866.531	22744
866.662	22691
866.793	22672
866.924	22816
867.055	22721
867.186	22736
867.317	22755
867.448	22763
867.579	22596
867.71	22588
867.841	22660
867.972	22706
868.103	22691
868.233	22721
868.364	22717
868.495	22835
868.625	22957
868.756	22980
868.886	22831
869.017	22972
869.147	23102
869.278	23064
869.408	23033
869.539	22831
869.669	23083
869.799	23037
869.929	23056
870.06	23060
870.19	23242
870.32	23258
870.45	23299
870.58	23250
870.71	23509
870.84	23379
870.97	23417
871.1	23429
871.23	23410
871.36	23497
871.489	23398
871.619	23459
871.749	23501
871.879	23558
872.008	23691
872.138	23573
872.267	23440
872.397	23326
872.526	23402
872.656	23315
872.785	23269
872.915	23573
873.044	23596
873.173	23646
873.303	23535
873.432	23634
873.561	23718
873.69	23524
873.819	23452
873.948	23619
874.077	23509
874.206	23535
874.335	23547
874.464	23649
874.593	23813
874.722	23707
874.851	23779
874.979	23851
875.108	23676
875.237	23627
875.365	23676
875.494	23733
875.623	23783
875.751	23863
875.88	23684
876.008	23942
876.136	23954
876.265	24068
876.393	24357
876.521	24300
876.65	24125
876.778	24106
876.906	24144
877.034	24022
877.162	24144
877.29	24155
877.418	23999
877.546	24072
877.674	24049
877.802	24136
877.93	24098
878.058	24015
878.185	23973
878.313	24117
878.441	23999
878.568	23889
878.696	24018
878.824	24140
878.951	24239
879.079	24289
879.206	24399
879.333	24243
879.461	24060
879.588	24205
879.715	24159
879.842	24239
879.97	24224
880.097	23874
880.224	23958
880.351	24003
880.478	23920
880.605	23840
880.732	23969
880.859	24167
880.986	23920
881.112	23901
881.239	23813
881.366	23630
881.493	23570
881.619	23539
881.746	23608
881.872	23478
881.999	23379
882.125	23516
882.252	23551
882.378	23501
882.505	23417
882.631	23239
882.757	23117
882.883	23204
883.01	23273
883.136	23094
883.262	23048
883.388	22892
883.514	23079
883.64	23067
883.766	23071
883.892	22869
884.018	22896
884.143	23178
884.269	23136
884.395	22896
884.52	22782
884.646	22816
884.772	22702
884.897	22615
885.023	22774
885.148	22828
885.274	22847
885.399	22938
885.524	22835
885.65	22691
885.775	22763
885.9	22668
886.025	22889
886.15	22831
886.275	22733
886.4	22687
886.525	22740
886.65	22656
886.775	22634
886.9	22828
887.025	22877
887.149	22717
887.274	22611
887.399	22508
887.523	22531
887.648	22428
887.773	22459
887.897	22481
888.021	22641
888.146	22451
888.27	22626
888.395	22645
888.519	22561
888.643	22554
888.767	22421
888.891	22352
889.015	22268
889.139	22379
889.263	22371
889.387	22409
889.511	22497
889.635	22413
889.759	22284
889.883	22249
890.006	22352
890.13	22280
890.254	22303
890.377	22188
890.501	22048
890.624	22013
890.748	22124
890.871	21895
890.995	21835
891.118	21797
891.241	21857
891.364	21915
891.488	21937
891.611	21850
891.734	21816
891.857	21934
891.98	21785
892.103	22002
892.226	21759
892.349	21766
892.471	21587
892.594	21743
892.717	21690
892.839	21804
892.962	21637
893.085	21770
893.207	21671
893.33	21519
893.452	21564
893.575	21739
893.697	21641
893.819	21812
893.941	22029
894.064	21842
894.186	21652
894.308	21614
894.43	21865
894.552	21846
894.674	21637
894.796	21523
894.918	21728
895.04	21606
895.161	21789
895.283	21720
895.405	21644
895.526	21679
895.648	21572
895.769	21671
895.891	21660
896.012	21728
896.134	21747
896.255	21679
896.376	21774
896.498	21656
896.619	21648
896.74	21644
896.861	21637
896.982	21915
897.103	22029
897.224	21934
897.345	21922
897.466	21941
897.587	21899
897.708	22070
897.828	21854
897.949	21770
898.07	21633
898.19	21739
898.311	21930
898.431	21907
898.552	21975
898.672	21911
898.792	21960
898.913	21846
899.033	21785
899.153	21739
899.273	21500
899.393	21625
899.513	21679
899.633	21572
899.753	21599
899.873	21530
899.993	21507
900.113	21530
900.232	21545
900.352	21367
900.472	21405
900.591	21279
900.711	21378
900.83	21310
900.95	21302
901.069	21405
901.189	21249
901.308	20902
901.427	20788
901.546	20849
901.665	20937
901.784	20819
901.904	20815
902.023	20712
902.141	20549
902.26	20381
902.379	20419
902.498	20499
902.617	20301
902.735	20370
902.854	20381
902.973	20324
903.091	20024
903.21	19986
903.328	19986
903.446	20046
903.565	19837
903.683	19902
903.801	19715
903.919	19871
904.038	19647
904.156	19552
904.274	19655
904.392	19575
904.51	19666
904.627	19605
904.745	19662
904.863	19594
904.981	19343
905.098	19255
905.216	19194
905.334	19244
905.451	19365
905.569	19247
905.686	19362
905.803	19164
905.921	19133
906.038	19148
906.155	19061
906.272	18890
906.389	18958
906.506	18852
906.623	18817
906.74	18669
906.857	18654
906.974	18681
907.091	18871
907.208	18814
907.324	18821
907.441	18707
907.557	18574
907.674	18532
907.79	18448
907.907	18365
908.023	18494
908.139	18593
908.256	18414
908.372	18441
908.488	18426
908.604	18277
908.72	18159
908.836	18281
908.952	18167
909.068	18251
909.184	18201
909.3	18095
909.415	18235
909.531	18117
909.647	17920
909.762	17893
909.878	17824
909.993	17748
910.108	17855
910.224	17771
910.339	17920
910.454	17672
910.57	17680
910.685	17611
910.8	17889
910.915	17824
911.03	17676
911.145	17539
911.259	17402
911.374	17474
911.489	17391
911.604	17242
911.718	17178
911.833	17212
911.947	17124
912.062	16972
912.176	17159
912.291	17223
912.405	17261
912.519	17360
912.633	17345
912.748	17105
912.862	17117
912.976	17064
913.09	16858
913.204	16854
913.318	17010
913.431	17060
913.545	17041
913.659	17033
913.772	16987
913.886	16713
914	16740
914.113	16740
914.226	16862
914.34	16828
914.453	16725
914.566	16778
914.68	16702
914.793	16660
914.906	16466
915.019	16360
915.132	16306
915.245	16428
915.358	16314
915.47	16360
915.583	16325
915.696	16284
915.809	16398
915.921	16451
916.034	16318
916.146	16219
916.259	16181
916.371	16207
916.483	16219
916.595	16181
916.708	16154
916.82	16078
916.932	16059
917.044	16048
917.156	16097
917.268	15945
917.38	16002
917.491	15945
917.603	15926
917.715	15994
917.826	16086
917.938	15823
918.049	15728
918.161	15869
918.272	16006
918.384	16010
918.495	15911
918.606	15660
918.717	15584
918.828	15694
918.939	15819
919.05	15648
919.161	15637
919.272	15450
919.383	15580
919.494	15637
919.604	15797
919.715	15713
919.826	15542
919.936	15660
920.047	15690
920.157	15663
920.267	15774
920.378	15690
920.488	15534
920.598	15774
920.708	15876
920.818	15751
920.928	15755
921.038	15857
921.148	15816
921.258	15511
921.368	15496
921.477	15313
921.587	15397
921.697	15176
921.806	15382
921.916	15112
922.025	15043
922.134	15070
922.244	14868
922.353	14994
922.462	14880
922.571	14807
922.68	14533
922.789	14571
922.898	14655
923.007	14488
923.116	14564
923.224	14507
923.333	14530
923.442	14419
923.55	14377
923.659	14503
923.767	14374
923.876	14355
923.984	14427
924.092	14278
924.201	14385
924.309	14305
924.417	14240
924.525	14278
924.633	14229
924.741	15104
924.849	13959
924.956	14119
925.064	13997
925.172	13856
925.279	13917
925.387	13879
925.494	13978
925.602	14092
925.709	13898
925.816	13750
925.924	13860
926.031	14005
926.138	13807
926.245	13906
926.352	13822
926.459	13932
926.566	13944
926.673	13814
926.779	13643
926.886	13670
926.993	13499
927.099	13544
927.206	13426
927.312	13422
927.419	13521
927.525	13533
927.631	13460
927.737	13441
927.843	13343
927.95	13190
928.056	13343
928.162	13324
928.267	13301
928.373	13955
928.479	13392
928.585	13031
928.69	13251
928.796	13270
928.901	13088
929.007	12932
929.112	13103
929.218	13122
929.323	13015
929.428	13042
929.533	13042
929.638	12973
929.743	12962
929.848	12981
929.953	12958
930.058	12768
930.163	12623
930.267	12658
930.372	12734
930.477	12490
930.581	12871
930.685	12673
930.79	12509
930.894	12555
930.998	12517
931.103	12585
931.207	12247
931.311	12247
931.415	12034
931.519	11916
931.623	11855
