Data from test_V78500241_1167.txt Node
Date: Fri Mar 25 15:49:53 CST 2022
User: usil
Spectrometer: V785-0024
Trigger mode: 0
Integration Time (sec): 4.000000E-1
Scans to average: 1
Nonlinearity correction enabled: false
Boxcar width: 0
Storing dark spectrum: false
XAxis mode: Wavelengths
Number of Pixels in Spectrum: 1024
>>>>>Begin Spectral Data<<<<<
801.071	28557
801.214	28664
801.356	28379
801.499	28211
801.641	28131
801.783	28032
801.926	28124
802.068	28105
802.211	28116
802.353	28070
802.496	27835
802.638	27918
802.78	27781
802.923	27827
803.065	27698
803.208	27816
803.35	27755
803.492	27991
803.635	27987
803.777	27854
803.919	27934
804.061	28390
804.204	28223
804.346	27972
804.488	28025
804.63	27903
804.773	27998
804.915	27998
805.057	28048
805.199	27994
805.341	28150
805.483	28207
805.626	28207
805.768	28067
805.91	28181
806.052	28253
806.194	28143
806.336	28405
806.478	28211
806.62	28188
806.762	28295
806.904	28508
807.046	28694
807.188	28493
807.33	28710
807.472	28721
807.614	28382
807.756	28626
807.898	28554
808.04	28478
808.182	28470
808.324	28580
808.465	28470
808.607	28698
808.749	28946
808.891	28911
809.033	29128
809.174	28991
809.316	28888
809.458	28919
809.6	28801
809.741	29090
809.883	29102
810.025	29330
810.166	29170
810.308	29147
810.45	29029
810.591	29098
810.733	29052
810.875	28850
811.016	28881
811.158	28858
811.299	28919
811.441	29086
811.582	29060
811.724	29094
811.865	28957
812.007	28877
812.148	28793
812.29	28991
812.431	29128
812.573	29261
812.714	29471
812.855	29436
812.997	29547
813.138	29726
813.279	29474
813.421	29414
813.562	29372
813.703	29170
813.845	29071
813.986	28972
814.127	28839
814.268	28622
814.41	28729
814.551	28630
814.692	28752
814.833	28550
814.974	28706
815.115	28656
815.256	28512
815.397	28291
815.539	28569
815.68	28443
815.821	28440
815.962	28417
816.103	28398
816.244	28390
816.385	28287
816.526	28257
816.666	28013
816.807	28055
816.948	28013
817.089	28002
817.23	28040
817.371	27907
817.512	27968
817.653	28067
817.793	27937
817.934	27926
818.075	28002
818.216	27949
818.356	27816
818.497	27793
818.638	27728
818.778	27629
818.919	27618
819.06	27720
819.2	27880
819.341	27994
819.481	27960
819.622	28078
819.762	28363
819.903	28363
820.043	28131
820.184	28002
820.324	28044
820.465	28200
820.605	28070
820.746	27987
820.886	27960
821.026	28147
821.167	28010
821.307	28147
821.447	28051
821.588	27941
821.728	27785
821.868	27477
822.008	27507
822.149	27481
822.289	27568
822.429	27199
822.569	27184
822.709	27142
822.849	27005
822.99	27039
823.13	26944
823.27	27028
823.41	26727
823.55	26739
823.69	26727
823.83	26857
823.97	26724
824.11	26613
824.25	26503
824.389	26678
824.529	26674
824.669	26514
824.809	26629
824.949	26568
825.089	26708
825.228	26731
825.368	26480
825.508	26438
825.648	26442
825.787	26617
825.927	26609
826.067	26457
826.206	26469
826.346	26499
826.485	26495
826.625	26511
826.765	26602
826.904	26453
827.044	26248
827.183	26263
827.323	26138
827.462	26271
827.601	26240
827.741	26225
827.88	26366
828.02	26202
828.159	26149
828.298	26145
828.437	26256
828.577	26096
828.716	26275
828.855	26187
828.994	26027
829.134	26012
829.273	25955
829.412	25974
829.551	25822
829.69	25898
829.829	25811
829.968	25974
830.107	25993
830.246	25966
830.385	25868
830.524	25674
830.663	25715
830.802	25670
830.941	25441
831.08	25384
831.219	25655
831.357	25491
831.496	25681
831.635	25460
831.774	25514
831.913	25476
832.051	25304
832.19	25183
832.329	25228
832.467	25217
832.606	25217
832.744	25171
832.883	25133
833.022	25179
833.16	25274
833.299	25255
833.437	25278
833.576	25270
833.714	25263
833.852	25365
833.991	25388
834.129	25441
834.267	25240
834.406	25278
834.544	25209
834.682	25266
834.821	25308
834.959	25483
835.097	25228
835.235	25247
835.373	25206
835.511	25164
835.65	25156
835.788	25232
835.926	24916
836.064	24890
836.202	24935
836.34	25046
836.478	25129
836.615	24985
836.753	25015
836.891	25171
837.029	25042
837.167	24935
837.305	24935
837.443	24962
837.58	24909
837.718	25050
837.856	24966
837.993	24848
838.131	24962
838.269	24821
838.406	24772
838.544	24658
838.681	24563
838.819	24547
838.956	24395
839.094	24403
839.231	24502
839.369	24540
839.506	24806
839.643	24570
839.781	24300
839.918	24330
840.055	24410
840.193	24266
840.33	24361
840.467	24243
840.604	24350
840.742	24494
840.879	24270
841.016	24262
841.153	24197
841.29	24456
841.427	24228
841.564	24300
841.701	24342
841.838	24148
841.975	24167
842.112	24087
842.249	24117
842.385	24076
842.522	24194
842.659	24011
842.796	24079
842.933	24068
843.069	24026
843.206	24007
843.343	24076
843.479	24003
843.616	24057
843.752	23798
843.889	23729
844.025	23973
844.162	23859
844.298	23786
844.435	23843
844.571	23889
844.708	23889
844.844	23946
844.98	23942
845.117	23977
845.253	23695
845.389	23619
845.525	23642
845.661	23573
845.798	23509
845.934	23627
846.07	23414
846.206	23535
846.342	23722
846.478	23520
846.614	23360
846.75	23159
846.886	23315
847.022	23368
847.158	23212
847.294	23223
847.429	23288
847.565	23136
847.701	23364
847.837	22984
847.972	22911
848.108	22999
848.244	23083
848.379	22927
848.515	22656
848.65	22885
848.786	22740
848.921	22919
849.057	22839
849.192	22885
849.328	22885
849.463	22820
849.598	22702
849.734	22790
849.869	22637
850.004	22592
850.14	22828
850.275	22538
850.41	22474
850.545	22577
850.68	22538
850.815	22584
850.95	22615
851.085	22622
851.22	22812
851.355	22535
851.49	22557
851.625	22500
851.76	22557
851.895	22641
852.03	22622
852.165	22592
852.299	22683
852.434	22694
852.569	22618
852.703	22500
852.838	22691
852.973	22706
853.107	22759
853.242	22527
853.376	22535
853.511	22352
853.645	22405
853.78	22409
853.914	22379
854.048	22394
854.183	22382
854.317	22371
854.451	22653
854.585	22382
854.72	22341
854.854	22531
854.988	22394
855.122	22367
855.256	22367
855.39	22447
855.524	22474
855.658	22348
855.792	22428
855.926	22375
856.06	22455
856.194	22516
856.327	22443
856.461	22333
856.595	22333
856.729	22428
856.862	22474
856.996	22535
857.13	22489
857.263	22447
857.397	22375
857.53	22367
857.664	22462
857.797	22440
857.931	22649
858.064	22390
858.197	22500
858.331	22413
858.464	22341
858.597	22287
858.731	22459
858.864	22299
858.997	22470
859.13	22363
859.263	22382
859.396	22481
859.529	22402
859.662	22363
859.795	22299
859.928	22371
860.061	22649
860.194	22535
860.327	22557
860.46	22436
860.592	22527
860.725	22641
860.858	22618
860.99	22390
861.123	22375
861.256	22295
861.388	22394
861.521	23014
861.653	22249
861.786	22169
861.918	22246
862.05	22306
862.183	22318
862.315	22394
862.447	22344
862.58	22238
862.712	22070
862.844	22105
862.976	22200
863.108	22181
863.24	22649
863.372	21975
863.504	22173
863.636	22109
863.768	22105
863.9	22120
864.032	22044
864.164	21998
864.296	22070
864.428	22261
864.559	22135
864.691	22242
864.823	22143
864.954	22070
865.086	21983
865.217	22040
865.349	21857
865.48	22044
865.612	22078
865.743	22128
865.875	21968
866.006	21903
866.137	21915
866.269	22013
866.4	21975
866.531	21892
866.662	21922
866.793	21823
866.924	21846
867.055	21842
867.186	21964
867.317	22097
867.448	21816
867.579	21937
867.71	21819
867.841	21956
867.972	21964
868.103	21949
868.233	21945
868.364	21838
868.495	21960
868.625	22177
868.756	22333
868.886	22139
869.017	22166
869.147	22287
869.278	22253
869.408	22276
869.539	22196
869.669	22246
869.799	22211
869.929	22238
870.06	22196
870.19	22386
870.32	22402
870.45	22489
870.58	22516
870.71	22733
870.84	22588
870.97	22554
871.1	22538
871.23	22694
871.36	22839
871.489	22645
871.619	22664
871.749	22828
871.879	22824
872.008	22854
872.138	22755
872.267	22706
872.397	22634
872.526	22569
872.656	22641
872.785	22641
872.915	22771
873.044	22843
873.173	22672
873.303	22713
873.432	22767
873.561	22839
873.69	22782
873.819	22679
873.948	22877
874.077	22752
874.206	22782
874.335	22664
874.464	22843
874.593	22980
874.722	22987
874.851	23064
874.979	23067
875.108	23029
875.237	22923
875.365	22987
875.494	23075
875.623	22995
875.751	22904
875.88	22911
876.008	23113
876.136	23277
876.265	23414
876.393	23566
876.521	23490
876.65	23535
876.778	23356
876.906	23429
877.034	23307
877.162	23307
877.29	23292
877.418	23250
877.546	23277
877.674	23330
877.802	23216
877.93	23280
878.058	23208
878.185	23132
878.313	23231
878.441	23284
878.568	23147
878.696	23143
878.824	23376
878.951	23410
879.079	23463
879.206	23554
879.333	23478
879.461	23448
879.588	23376
879.715	23482
879.842	23627
879.97	23421
880.097	23128
880.224	23151
880.351	23162
880.478	23212
880.605	23170
880.732	23193
880.859	23459
880.986	23086
881.112	23113
881.239	22915
881.366	22961
881.493	22877
881.619	22835
881.746	22763
881.872	22634
881.999	22675
882.125	22497
882.252	22797
882.378	22649
882.505	22847
882.631	22580
882.757	22394
882.883	22462
883.01	22375
883.136	22261
883.262	22303
883.388	22109
883.514	22409
883.64	22356
883.766	22230
883.892	22055
884.018	22188
884.143	22284
884.269	22432
884.395	22112
884.52	21751
884.646	22105
884.772	21972
884.897	22021
885.023	22021
885.148	22086
885.274	22139
885.399	22082
885.524	22013
885.65	21956
885.775	21903
885.9	22036
886.025	22067
886.15	22101
886.275	22048
886.4	21926
886.525	21945
886.65	21934
886.775	21812
886.9	22010
887.025	22116
887.149	21953
887.274	21831
887.399	21709
887.523	21755
887.648	21804
887.773	21622
887.897	21804
888.021	21850
888.146	21705
888.27	21743
888.395	21728
888.519	21911
888.643	21808
888.767	21911
888.891	21622
889.015	21622
889.139	21637
889.263	21523
889.387	21751
889.511	21728
889.635	21667
889.759	21603
889.883	21481
890.006	21447
890.13	21572
890.254	21408
890.377	21439
890.501	21367
890.624	21260
890.748	21332
890.871	21233
890.995	21058
891.118	21043
891.241	21119
891.364	21070
891.488	21268
891.611	21112
891.734	21017
891.857	21100
891.98	21058
892.103	21051
892.226	21100
892.349	21051
892.471	20731
892.594	21096
892.717	21013
892.839	20990
892.962	21119
893.085	21135
893.207	20941
893.33	20720
893.452	20906
893.575	21066
893.697	20986
893.819	21237
893.941	21260
894.064	21135
894.186	20914
894.308	20823
894.43	21077
894.552	21218
894.674	21058
894.796	20880
894.918	20910
895.04	20998
895.161	21127
895.283	21123
895.405	20998
895.526	21009
895.648	20887
895.769	21013
895.891	20956
896.012	21062
896.134	21032
896.255	21100
896.376	20963
896.498	20880
896.619	20956
896.74	21036
896.861	20960
896.982	21317
897.103	21370
897.224	21218
897.345	21180
897.466	20982
897.587	21161
897.708	21344
897.828	21100
897.949	21211
898.07	21096
898.19	21237
898.311	21249
898.431	21112
898.552	21199
898.672	21241
898.792	21192
898.913	21161
899.033	21116
899.153	20937
899.273	20807
899.393	20899
899.513	20979
899.633	20929
899.753	21024
899.873	20849
899.993	20891
900.113	20906
900.232	20868
900.352	20811
900.472	20769
900.591	20625
900.711	20758
900.83	20629
900.95	20891
901.069	20830
901.189	20629
901.308	20328
901.427	20145
901.546	20240
901.665	20278
901.784	20195
901.904	20263
902.023	20081
902.141	19894
902.26	19894
902.379	19864
902.498	19727
902.617	19723
902.735	19696
902.854	19776
902.973	19643
903.091	19464
903.21	19377
903.328	19419
903.446	19388
903.565	19103
903.683	19240
903.801	19122
903.919	19137
904.038	19126
904.156	18905
904.274	19008
904.392	19008
904.51	18909
904.627	18970
904.745	18878
904.863	19004
904.981	18844
905.098	18517
905.216	18692
905.334	18635
905.451	18726
905.569	18646
905.686	18681
905.803	18627
905.921	18395
906.038	18544
906.155	18426
906.272	18330
906.389	18319
906.506	18224
906.623	18239
906.74	18213
906.857	18106
906.974	18049
907.091	18087
907.208	18190
907.324	18399
907.441	18041
907.557	17893
907.674	17912
907.79	17836
907.907	17817
908.023	17836
908.139	17817
908.256	17882
908.372	17703
908.488	17741
908.604	17596
908.72	17581
908.836	17581
908.952	17482
909.068	17558
909.184	17676
909.3	17657
909.415	17577
909.531	17520
909.647	17364
909.762	17376
909.878	17261
909.993	17417
910.108	17318
910.224	17178
910.339	17292
910.454	17064
910.57	17094
910.685	17064
910.8	17193
910.915	17345
911.03	17113
911.145	16862
911.259	16892
911.374	16835
911.489	16850
911.604	16694
911.718	16584
911.833	16607
911.947	16485
912.062	16516
912.176	16622
912.291	16599
912.405	16637
912.519	16771
912.633	16812
912.748	16577
912.862	16656
912.976	16535
913.09	16310
913.204	16325
913.318	16443
913.431	16497
913.545	16508
913.659	16462
913.772	16386
913.886	16234
914	16257
914.113	16363
914.226	16211
914.34	16238
914.453	16071
914.566	16242
914.68	16051
914.793	16067
914.906	15861
915.019	15808
915.132	15717
915.245	15713
915.358	15865
915.47	15869
915.583	15831
915.696	15797
915.809	15930
915.921	15812
916.034	15603
916.146	15751
916.259	15705
916.371	15724
916.483	15637
916.595	15622
916.708	15709
916.82	15584
916.932	15557
917.044	15572
917.156	15496
917.268	15416
917.38	15447
917.491	15454
917.603	15420
917.715	15545
917.826	15549
917.938	15405
918.049	15389
918.161	15310
918.272	15420
918.384	15477
918.495	15386
918.606	15230
918.717	15165
918.828	15146
918.939	15127
919.05	15127
919.161	15077
919.272	14982
919.383	15047
919.494	15268
919.604	15306
919.715	15112
919.826	15169
919.936	15028
920.047	15188
920.157	15173
920.267	15294
920.378	15112
920.488	15085
920.598	15184
920.708	15279
920.818	15298
920.928	15344
921.038	15466
921.148	15332
921.258	14998
921.368	14899
921.477	14895
921.587	14899
921.697	14845
921.806	14864
921.916	14773
922.025	14518
922.134	14526
922.244	14374
922.353	14457
922.462	14370
922.571	14252
922.68	14176
922.789	14024
922.898	14145
923.007	14050
923.116	14176
923.224	14096
923.333	13993
923.442	13921
923.55	13871
923.659	13860
923.767	13951
923.876	13898
923.984	13986
924.092	13849
924.201	13879
924.309	13780
924.417	13788
924.525	13860
924.633	13727
924.741	14461
924.849	13480
924.956	13742
925.064	13582
925.172	13388
925.279	13525
925.387	13495
925.494	13510
925.602	13601
925.709	13506
925.816	13400
925.924	13392
926.031	13453
926.138	13491
926.245	13468
926.352	13339
926.459	13434
926.566	13438
926.673	13415
926.779	13251
926.886	13190
926.993	13061
927.099	13099
927.206	12989
927.312	13023
927.419	13042
927.525	13031
927.631	13072
927.737	12966
927.843	12993
927.95	12768
928.056	12878
928.162	12810
928.267	12848
928.373	13499
928.479	12962
928.585	12696
928.69	12779
928.796	12837
928.901	12703
929.007	12582
929.112	12711
929.218	12639
929.323	12585
929.428	12616
929.533	12757
929.638	12502
929.743	12441
929.848	12494
929.953	12506
930.058	12346
930.163	12228
930.267	12353
930.372	12376
930.477	12178
930.581	12517
930.685	12338
930.79	12110
930.894	12213
930.998	12098
931.103	12232
931.207	11771
931.311	11794
931.415	11710
931.519	11459
931.623	11455
