Data from test_V78500241_321.txt Node
Date: Fri Mar 25 15:44:01 CST 2022
User: usil
Spectrometer: V785-0024
Trigger mode: 0
Integration Time (sec): 4.000000E-1
Scans to average: 1
Nonlinearity correction enabled: false
Boxcar width: 0
Storing dark spectrum: false
XAxis mode: Wavelengths
Number of Pixels in Spectrum: 1024
>>>>>Begin Spectral Data<<<<<
801.071	29859
801.214	29783
801.356	29687
801.499	29482
801.641	29330
801.783	29414
801.926	29440
802.068	29459
802.211	29273
802.353	29220
802.496	29052
802.638	29052
802.78	29052
802.923	29079
803.065	29121
803.208	29071
803.35	29067
803.492	29265
803.635	29334
803.777	29147
803.919	29337
804.061	29547
804.204	29330
804.346	29223
804.488	29143
804.63	29200
804.773	29128
804.915	29349
805.057	29315
805.199	29303
805.341	29284
805.483	29307
805.626	29448
805.768	29372
805.91	29459
806.052	29486
806.194	29383
806.336	29577
806.478	29509
806.62	29406
806.762	29596
806.904	29760
807.046	29901
807.188	29809
807.33	29889
807.472	29859
807.614	29767
807.756	29798
807.898	29695
808.04	29684
808.182	29581
808.324	29531
808.465	29748
808.607	29786
808.749	29980
808.891	30129
809.033	30064
809.174	30300
809.316	30095
809.458	30190
809.6	29935
809.741	30171
809.883	30209
810.025	30159
810.166	30330
810.308	30376
810.45	30308
810.591	30262
810.733	30190
810.875	30098
811.016	29942
811.158	29882
811.299	30186
811.441	30201
811.582	30209
811.724	29920
811.865	29954
812.007	30106
812.148	30174
812.29	30129
812.431	30197
812.573	30296
812.714	30388
812.855	30570
812.997	30715
813.138	30673
813.279	30665
813.421	30525
813.562	30684
813.703	30273
813.845	30254
813.986	30041
814.127	29992
814.268	29821
814.41	29813
814.551	29707
814.692	29851
814.833	29703
814.974	29691
815.115	29756
815.256	29501
815.397	29638
815.539	29562
815.68	29501
815.821	29478
815.962	29566
816.103	29497
816.244	29425
816.385	29326
816.526	29299
816.666	29189
816.807	28968
816.948	29003
817.089	28987
817.23	29014
817.371	28904
817.512	29060
817.653	28984
817.793	28873
817.934	28949
818.075	28957
818.216	28942
818.356	28858
818.497	28831
818.638	28729
818.778	28656
818.919	28713
819.06	28847
819.2	28782
819.341	28911
819.481	28915
819.622	29060
819.762	29307
819.903	29151
820.043	29064
820.184	29067
820.324	29010
820.465	29018
820.605	29098
820.746	29067
820.886	28858
821.026	29003
821.167	28934
821.307	29067
821.447	28923
821.588	28831
821.728	28713
821.868	28565
822.008	28405
822.149	28306
822.289	28379
822.429	28139
822.569	28051
822.709	28048
822.849	27918
822.99	27888
823.13	27838
823.27	27770
823.41	27610
823.55	27511
823.69	27587
823.83	27747
823.97	27698
824.11	27545
824.25	27355
824.389	27408
824.529	27439
824.669	27439
824.809	27576
824.949	27515
825.089	27515
825.228	27496
825.368	27374
825.508	27340
825.648	27348
825.787	27363
825.927	27260
826.067	27310
826.206	27245
826.346	27313
826.485	27336
826.625	27279
826.765	27355
826.904	27260
827.044	27077
827.183	27154
827.323	26948
827.462	27112
827.601	26979
827.741	26971
827.88	27058
828.02	27001
828.159	26880
828.298	26986
828.437	27036
828.577	26891
828.716	27146
828.855	26834
828.994	26663
829.134	26727
829.273	26651
829.412	26777
829.551	26575
829.69	26568
829.829	26727
829.968	26670
830.107	26552
830.246	26697
830.385	26613
830.524	26400
830.663	26457
830.802	26442
830.941	26180
831.08	26107
831.219	26259
831.357	26229
831.496	26461
831.635	26187
831.774	26062
831.913	25993
832.051	26001
832.19	25875
832.329	26039
832.467	25944
832.606	25803
832.744	25849
832.883	25849
833.022	25738
833.16	26050
833.299	25807
833.437	25982
833.576	25799
833.714	25898
833.852	26031
833.991	25978
834.129	25997
834.267	25879
834.406	25917
834.544	25845
834.682	25894
834.821	25799
834.959	26012
835.097	25822
835.235	26012
835.373	25818
835.511	25807
835.65	25712
835.788	25795
835.926	25658
836.064	25624
836.202	25548
836.34	25647
836.478	25887
836.615	25674
836.753	25685
836.891	25765
837.029	25746
837.167	25670
837.305	25548
837.443	25540
837.58	25445
837.718	25586
837.856	25624
837.993	25308
838.131	25365
838.269	25343
838.406	25430
838.544	25270
838.681	25118
838.819	24954
838.956	24890
839.094	24932
839.231	25050
839.369	25232
839.506	25331
839.643	25236
839.781	24947
839.918	24776
840.055	24996
840.193	24928
840.33	24779
840.467	24897
840.604	24958
840.742	25179
840.879	24589
841.016	24738
841.153	24601
841.29	24928
841.427	24837
841.564	24859
841.701	24837
841.838	24791
841.975	24745
842.112	24661
842.249	24578
842.385	24635
842.522	24688
842.659	24730
842.796	24612
842.933	24509
843.069	24365
843.206	24426
843.343	24566
843.479	24471
843.616	24471
843.752	24235
843.889	24323
844.025	24547
844.162	24216
844.298	24372
844.435	24273
844.571	24216
844.708	24281
844.844	24350
844.98	24403
845.117	24289
845.253	24155
845.389	24178
845.525	24038
845.661	24201
845.798	24026
845.934	24091
846.07	23954
846.206	24057
846.342	24136
846.478	23992
846.614	23775
846.75	23714
846.886	23710
847.022	23726
847.158	23783
847.294	23779
847.429	23718
847.565	23718
847.701	23882
847.837	23425
847.972	23292
848.108	23417
848.244	23501
848.379	23307
848.515	23311
848.65	23273
848.786	23299
848.921	23197
849.057	23345
849.192	23299
849.328	23235
849.463	23334
849.598	23246
849.734	23216
849.869	23121
850.004	23098
850.14	23003
850.275	23029
850.41	22942
850.545	22908
850.68	22900
850.815	23037
850.95	23044
851.085	23208
851.22	23098
851.355	23044
851.49	22904
851.625	23044
851.76	22930
851.895	22968
852.03	22957
852.165	23010
852.299	22934
852.434	22991
852.569	23086
852.703	23010
852.838	23098
852.973	23090
853.107	23010
853.242	22911
853.376	22885
853.511	22752
853.645	22618
853.78	22961
853.914	22759
854.048	22820
854.183	22831
854.317	22900
854.451	22999
854.585	22881
854.72	22831
854.854	22889
854.988	22881
855.122	22755
855.256	22744
855.39	22740
855.524	22820
855.658	22869
855.792	22889
855.926	22793
856.06	22828
856.194	22786
856.327	22801
856.461	22801
856.595	22774
856.729	22831
856.862	22801
856.996	22873
857.13	22790
857.263	22877
857.397	22881
857.53	22866
857.664	22740
857.797	22858
857.931	22877
858.064	22786
858.197	22938
858.331	22645
858.464	22675
858.597	22691
858.731	22698
858.864	22740
858.997	22706
859.13	22702
859.263	22702
859.396	22862
859.529	22759
859.662	22664
859.795	22729
859.928	22755
860.061	22900
860.194	22923
860.327	22755
860.46	22923
860.592	22839
860.725	22889
860.858	22828
860.99	22790
861.123	22573
861.256	22702
861.388	22805
861.521	23497
861.653	22649
861.786	22596
861.918	22615
862.05	22675
862.183	22809
862.315	22793
862.447	22771
862.58	22706
862.712	22618
862.844	22462
862.976	22523
863.108	22561
863.24	22961
863.372	22417
863.504	22352
863.636	22459
863.768	22474
863.9	22455
864.032	22455
864.164	22424
864.296	22382
864.428	22462
864.559	22508
864.691	22436
864.823	22535
864.954	22352
865.086	22318
865.217	22394
865.349	22344
865.48	22219
865.612	22344
865.743	22436
865.875	22375
866.006	22303
866.137	22310
866.269	22352
866.4	22329
866.531	22344
866.662	22211
866.793	22242
866.924	22219
867.055	22226
867.186	22268
867.317	22226
867.448	22112
867.579	22265
867.71	22215
867.841	22036
867.972	22169
868.103	22223
868.233	22234
868.364	22223
868.495	22246
868.625	22478
868.756	22455
868.886	22405
869.017	22424
869.147	22729
869.278	22630
869.408	22519
869.539	22519
869.669	22508
869.799	22436
869.929	22615
870.06	22580
870.19	22824
870.32	22698
870.45	22847
870.58	22908
870.71	22889
870.84	22938
870.97	22942
871.1	22877
871.23	23136
871.36	23067
871.489	22946
871.619	22900
871.749	23075
871.879	23136
872.008	23227
872.138	23086
872.267	22938
872.397	22889
872.526	22862
872.656	22873
872.785	22957
872.915	23102
873.044	23128
873.173	23162
873.303	23185
873.432	23159
873.561	23193
873.69	23037
873.819	23090
873.948	23250
874.077	23178
874.206	23029
874.335	23075
874.464	23147
874.593	23246
874.722	23223
874.851	23315
874.979	23250
875.108	23318
875.237	23140
875.365	23143
875.494	23239
875.623	23284
875.751	23246
875.88	23242
876.008	23429
876.136	23509
876.265	23680
876.393	23771
876.521	23707
876.65	23908
876.778	23615
876.906	23608
877.034	23642
877.162	23668
877.29	23608
877.418	23615
877.546	23684
877.674	23539
877.802	23695
877.93	23463
878.058	23585
878.185	23535
878.313	23592
878.441	23623
878.568	23440
878.696	23566
878.824	23543
878.951	23703
879.079	23748
879.206	23843
879.333	23691
879.461	23573
879.588	23764
879.715	23790
879.842	23764
879.97	23733
880.097	23406
880.224	23383
880.351	23474
880.478	23353
880.605	23520
880.732	23372
880.859	23627
880.986	23543
881.112	23455
881.239	23337
881.366	23197
881.493	22999
881.619	23052
881.746	23044
881.872	22991
881.999	23018
882.125	22911
882.252	23124
882.378	23064
882.505	23185
882.631	22824
882.757	22641
882.883	22839
883.01	22752
883.136	22580
883.262	22523
883.388	22497
883.514	22660
883.64	22691
883.766	22618
883.892	22577
884.018	22588
884.143	22687
884.269	22812
884.395	22344
884.52	22318
884.646	22409
884.772	22253
884.897	22306
885.023	22398
885.148	22436
885.274	22497
885.399	22455
885.524	22223
885.65	22409
885.775	22303
885.9	22303
886.025	22379
886.15	22272
886.275	22314
886.4	22177
886.525	22299
886.65	22188
886.775	22310
886.9	22470
887.025	22318
887.149	22306
887.274	22025
887.399	22086
887.523	22135
887.648	21937
887.773	21922
887.897	22112
888.021	22101
888.146	22097
888.27	22051
888.395	22226
888.519	22124
888.643	22131
888.767	22128
888.891	21922
889.015	21903
889.139	21892
889.263	21873
889.387	21827
889.511	21873
889.635	21835
889.759	21736
889.883	21838
890.006	21861
890.13	21884
890.254	21759
890.377	21679
890.501	21663
890.624	21492
890.748	21439
890.871	21473
890.995	21435
891.118	21279
891.241	21401
891.364	21359
891.488	21507
891.611	21321
891.734	21496
891.857	21283
891.98	21252
892.103	21382
892.226	21367
892.349	21256
892.471	21241
892.594	21344
892.717	21188
892.839	21199
892.962	21275
893.085	21428
893.207	21401
893.33	21195
893.452	21138
893.575	21264
893.697	21218
893.819	21424
893.941	21382
894.064	21230
894.186	21230
894.308	21226
894.43	21374
894.552	21405
894.674	21351
894.796	21279
894.918	21264
895.04	21214
895.161	21340
895.283	21291
895.405	21142
895.526	21237
895.648	21313
895.769	21264
895.891	21260
896.012	21287
896.134	21302
896.255	21325
896.376	21283
896.498	21252
896.619	21321
896.74	21298
896.861	21310
896.982	21667
897.103	21694
897.224	21515
897.345	21477
897.466	21370
897.587	21393
897.708	21504
897.828	21462
897.949	21374
898.07	21325
898.19	21405
898.311	21625
898.431	21485
898.552	21424
898.672	21500
898.792	21488
898.913	21469
899.033	21340
899.153	21226
899.273	21001
899.393	21222
899.513	21249
899.633	21169
899.753	21150
899.873	21043
899.993	21123
900.113	20937
900.232	21047
900.352	21070
900.472	20899
900.591	20883
900.711	20891
900.83	20979
900.95	20944
901.069	21005
901.189	20876
901.308	20617
901.427	20511
901.546	20526
901.665	20419
901.784	20381
901.904	20381
902.023	20305
902.141	20149
902.26	19906
902.379	20096
902.498	20043
902.617	19769
902.735	20035
902.854	19852
902.973	19879
903.091	19605
903.21	19597
903.328	19586
903.446	19537
903.565	19403
903.683	19483
903.801	19339
903.919	19453
904.038	19415
904.156	19168
904.274	19228
904.392	19110
904.51	19213
904.627	19209
904.745	19225
904.863	19194
904.981	19031
905.098	18715
905.216	18863
905.334	18852
905.451	18894
905.569	18886
905.686	18928
905.803	18776
905.921	18582
906.038	18669
906.155	18528
906.272	18521
906.389	18528
906.506	18376
906.623	18304
906.74	18330
906.857	18190
906.974	18258
907.091	18429
907.208	18353
907.324	18296
907.441	18251
907.557	18076
907.674	17999
907.79	17965
907.907	18019
908.023	18064
908.139	18060
908.256	17996
908.372	17878
908.488	17863
908.604	17748
908.72	17726
908.836	17771
908.952	17703
909.068	17741
909.184	17828
909.3	17729
909.415	17767
909.531	17592
909.647	17433
909.762	17459
909.878	17353
909.993	17391
910.108	17436
910.224	17269
910.339	17414
910.454	17273
910.57	17018
910.685	17064
910.8	17341
910.915	17296
911.03	17216
911.145	17048
911.259	16957
911.374	17033
911.489	17014
911.604	16850
911.718	16649
911.833	16645
911.947	16710
912.062	16546
912.176	16767
912.291	16702
912.405	16740
912.519	16953
912.633	16911
912.748	16668
912.862	16607
912.976	16603
913.09	16337
913.204	16485
913.318	16455
913.431	16569
913.545	16550
913.659	16542
913.772	16462
913.886	16299
914	16177
914.113	16299
914.226	16394
914.34	16352
914.453	16147
914.566	16280
914.68	16101
914.793	16150
914.906	15949
915.019	15827
915.132	15842
915.245	15778
915.358	15926
915.47	15831
915.583	15979
915.696	15865
915.809	16010
915.921	16025
916.034	15823
916.146	15842
916.259	15720
916.371	15789
916.483	15793
916.595	15671
916.708	15739
916.82	15720
916.932	15568
917.044	15618
917.156	15728
917.268	15526
917.38	15519
917.491	15515
917.603	15526
917.715	15542
917.826	15542
917.938	15435
918.049	15298
918.161	15584
918.272	15595
918.384	15622
918.495	15530
918.606	15389
918.717	15192
918.828	15283
918.939	15256
919.05	15218
919.161	15279
919.272	15077
919.383	15203
919.494	15241
919.604	15367
919.715	15287
919.826	15161
919.936	15173
920.047	15188
920.157	15142
920.267	15310
920.378	15222
920.488	15100
920.598	15264
920.708	15435
920.818	15397
920.928	15283
921.038	15485
921.148	15462
921.258	15116
921.368	15089
921.477	15001
921.587	14807
921.697	14693
921.806	14902
921.916	14727
922.025	14590
922.134	14617
922.244	14533
922.353	14518
922.462	14408
922.571	14347
922.68	14278
922.789	14248
922.898	14199
923.007	14088
923.116	14134
923.224	14195
923.333	14050
923.442	14050
923.55	14005
923.659	13986
923.767	14005
923.876	13936
923.984	13963
924.092	13833
924.201	13921
924.309	13845
924.417	13883
924.525	13849
924.633	13871
924.741	14667
924.849	13575
924.956	13616
925.064	13719
925.172	13495
925.279	13464
925.387	13605
925.494	13525
925.602	13658
925.709	13491
925.816	13491
925.924	13480
926.031	13605
926.138	13483
926.245	13521
926.352	13426
926.459	13483
926.566	13533
926.673	13491
926.779	13308
926.886	13308
926.993	13118
927.099	13137
927.206	13072
927.312	13023
927.419	13099
927.525	13076
927.631	13164
927.737	13008
927.843	12981
927.95	12848
928.056	12871
928.162	12894
928.267	13072
928.373	13590
928.479	13042
928.585	12719
928.69	12844
928.796	12890
928.901	12795
929.007	12582
929.112	12779
929.218	12795
929.323	12623
929.428	12631
929.533	12779
929.638	12555
929.743	12509
929.848	12639
929.953	12570
930.058	12506
930.163	12342
930.267	12292
930.372	12372
930.477	12232
930.581	12418
930.685	12315
930.79	12205
930.894	12224
930.998	12079
931.103	12254
931.207	11882
931.311	11855
931.415	11638
931.519	11532
931.623	11478
