Data from test_V78500241_2333.txt Node
Date: Fri Mar 25 15:57:57 CST 2022
User: usil
Spectrometer: V785-0024
Trigger mode: 0
Integration Time (sec): 4.000000E-1
Scans to average: 1
Nonlinearity correction enabled: false
Boxcar width: 0
Storing dark spectrum: false
XAxis mode: Wavelengths
Number of Pixels in Spectrum: 1024
>>>>>Begin Spectral Data<<<<<
801.071	28580
801.214	28481
801.356	28230
801.499	28188
801.641	28200
801.783	28032
801.926	28010
802.068	27991
802.211	28162
802.353	28032
802.496	27682
802.638	27838
802.78	27789
802.923	27808
803.065	27679
803.208	27739
803.35	27934
803.492	27918
803.635	27892
803.777	27880
803.919	28082
804.061	28303
804.204	28032
804.346	27869
804.488	27956
804.63	27994
804.773	27972
804.915	27842
805.057	28169
805.199	28063
805.341	28166
805.483	28105
805.626	28192
805.768	28040
805.91	28299
806.052	28295
806.194	28173
806.336	28226
806.478	28230
806.62	28169
806.762	28303
806.904	28413
807.046	28630
807.188	28519
807.33	28588
807.472	28672
807.614	28535
807.756	28569
807.898	28500
808.04	28432
808.182	28344
808.324	28653
808.465	28535
808.607	28675
808.749	28972
808.891	28953
809.033	29029
809.174	28938
809.316	28938
809.458	28835
809.6	28675
809.741	29044
809.883	28999
810.025	29162
810.166	29098
810.308	29083
810.45	29075
810.591	29052
810.733	28987
810.875	28881
811.016	28763
811.158	28713
811.299	28957
811.441	29067
811.582	28968
811.724	28691
811.865	28839
812.007	28809
812.148	28736
812.29	29048
812.431	29159
812.573	29193
812.714	29223
812.855	29455
812.997	29524
813.138	29623
813.279	29471
813.421	29280
813.562	29322
813.703	29113
813.845	29162
813.986	28824
814.127	28641
814.268	28470
814.41	28516
814.551	28386
814.692	28542
814.833	28443
814.974	28588
815.115	28565
815.256	28379
815.397	28443
815.539	28500
815.68	28333
815.821	28295
815.962	28325
816.103	28284
816.244	28234
816.385	28147
816.526	28215
816.666	28006
816.807	27808
816.948	27873
817.089	28017
817.23	27922
817.371	27930
817.512	27789
817.653	27732
817.793	27785
817.934	27873
818.075	27854
818.216	27968
818.356	27800
818.497	27766
818.638	27580
818.778	27709
818.919	27671
819.06	27698
819.2	27747
819.341	27793
819.481	27876
819.622	27972
819.762	28348
819.903	28139
820.043	27979
820.184	28051
820.324	27994
820.465	28128
820.605	28082
820.746	28101
820.886	27804
821.026	27956
821.167	27755
821.307	28120
821.447	27918
821.588	27751
821.728	27667
821.868	27466
822.008	27469
822.149	27321
822.289	27424
822.429	27077
822.569	27138
822.709	27039
822.849	26902
822.99	26842
823.13	26910
823.27	26800
823.41	26731
823.55	26689
823.69	26686
823.83	26906
823.97	26575
824.11	26545
824.25	26571
824.389	26541
824.529	26606
824.669	26492
824.809	26590
824.949	26583
825.089	26644
825.228	26549
825.368	26434
825.508	26320
825.648	26453
825.787	26568
825.927	26393
826.067	26476
826.206	26473
826.346	26442
826.485	26423
826.625	26393
826.765	26526
826.904	26480
827.044	26256
827.183	26218
827.323	26081
827.462	26332
827.601	26103
827.741	26138
827.88	26142
828.02	26031
828.159	26153
828.298	26092
828.437	26069
828.577	26077
828.716	26157
828.855	26145
828.994	25700
829.134	25761
829.273	25879
829.412	25788
829.551	25738
829.69	25811
829.829	25772
829.968	25753
830.107	25791
830.246	25704
830.385	25753
830.524	25677
830.663	25533
830.802	25571
830.941	25358
831.08	25400
831.219	25529
831.357	25346
831.496	25742
831.635	25434
831.774	25350
831.913	25202
832.051	25392
832.19	25133
832.329	25187
832.467	25034
832.606	25091
832.744	25012
832.883	25008
833.022	25000
833.16	25156
833.299	25050
833.437	25110
833.576	25221
833.714	24970
833.852	25236
833.991	25126
834.129	25213
834.267	25354
834.406	25346
834.544	25050
834.682	25156
834.821	25110
834.959	25320
835.097	25069
835.235	25160
835.373	25107
835.511	25122
835.65	24973
835.788	24920
835.926	24863
836.064	24764
836.202	24776
836.34	24992
836.478	25053
836.615	24890
836.753	24920
836.891	24924
837.029	24966
837.167	24867
837.305	24829
837.443	24867
837.58	24806
837.718	24844
837.856	24817
837.993	24757
838.131	24673
838.269	24635
838.406	24677
838.544	24654
838.681	24277
838.819	24525
838.956	24178
839.094	24380
839.231	24292
839.369	24464
839.506	24654
839.643	24525
839.781	24239
839.918	24304
840.055	24251
840.193	24285
840.33	24106
840.467	24155
840.604	24171
840.742	24391
840.879	23954
841.016	24102
841.153	23988
841.29	24041
841.427	24098
841.564	24144
841.701	24098
841.838	23969
841.975	24034
842.112	24079
842.249	23977
842.385	23691
842.522	24102
842.659	23901
842.796	23843
842.933	23855
843.069	23935
843.206	23893
843.343	23973
843.479	23954
843.616	23908
843.752	23710
843.889	23695
844.025	23779
844.162	23703
844.298	23771
844.435	23646
844.571	23657
844.708	23691
844.844	23687
844.98	23851
845.117	23745
845.253	23512
845.389	23455
845.525	23592
845.661	23524
845.798	23467
845.934	23463
846.07	23330
846.206	23421
846.342	23493
846.478	23387
846.614	23269
846.75	23003
846.886	23212
847.022	23220
847.158	23117
847.294	23147
847.429	23197
847.565	23086
847.701	23387
847.837	22892
847.972	22850
848.108	22858
848.244	22987
848.379	22835
848.515	22733
848.65	22675
848.786	22687
848.921	22744
849.057	22774
849.192	22843
849.328	22778
849.463	22752
849.598	22725
849.734	22615
849.869	22561
850.004	22405
850.14	22428
850.275	22645
850.41	22561
850.545	22436
850.68	22382
850.815	22443
850.95	22557
851.085	22637
851.22	22561
851.355	22462
851.49	22497
851.625	22424
851.76	22440
851.895	22386
852.03	22306
852.165	22523
852.299	22561
852.434	22634
852.569	22489
852.703	22390
852.838	22531
852.973	22607
853.107	22626
853.242	22379
853.376	22268
853.511	22219
853.645	22242
853.78	22261
853.914	22253
854.048	22360
854.183	22276
854.317	22291
854.451	22523
854.585	22386
854.72	22318
854.854	22550
854.988	22230
855.122	22318
855.256	22120
855.39	22234
855.524	22424
855.658	22348
855.792	22173
855.926	22348
856.06	22291
856.194	22485
856.327	22322
856.461	22188
856.595	22261
856.729	22268
856.862	22390
856.996	22329
857.13	22352
857.263	22440
857.397	22360
857.53	22207
857.664	22268
857.797	22360
857.931	22379
858.064	22287
858.197	22352
858.331	22257
858.464	22246
858.597	22112
858.731	22226
858.864	22166
858.997	22257
859.13	22329
859.263	22382
859.396	22352
859.529	22234
859.662	22272
859.795	22295
859.928	22261
860.061	22440
860.194	22417
860.327	22398
860.46	22375
860.592	22371
860.725	22447
860.858	22485
860.99	22234
861.123	22177
861.256	22162
861.388	22249
861.521	22961
861.653	22192
861.786	22124
861.918	22059
862.05	22093
862.183	22173
862.315	22226
862.447	22272
862.58	22147
862.712	21937
862.844	22044
862.976	21991
863.108	22128
863.24	22455
863.372	21899
863.504	21880
863.636	21857
863.768	22002
863.9	22116
864.032	21972
864.164	21998
864.296	22013
864.428	22006
864.559	22070
864.691	22139
864.823	22017
864.954	21968
865.086	21964
865.217	21930
865.349	21819
865.48	21778
865.612	21808
865.743	22048
865.875	21865
866.006	21732
866.137	21850
866.269	21838
866.4	21930
866.531	21823
866.662	21827
866.793	21694
866.924	21705
867.055	21808
867.186	21895
867.317	21789
867.448	21785
867.579	21739
867.71	21755
867.841	21759
867.972	21861
868.103	21793
868.233	21751
868.364	21819
868.495	21892
868.625	21991
868.756	22101
868.886	21949
869.017	21926
869.147	22143
869.278	22188
869.408	22139
869.539	22051
869.669	22090
869.799	22051
869.929	22131
870.06	22135
870.19	22375
870.32	22188
870.45	22379
870.58	22516
870.71	22497
870.84	22409
870.97	22447
871.1	22512
871.23	22607
871.36	22634
871.489	22535
871.619	22603
871.749	22478
871.879	22702
872.008	22698
872.138	22481
872.267	22634
872.397	22618
872.526	22405
872.656	22443
872.785	22440
872.915	22736
873.044	22809
873.173	22660
873.303	22759
873.432	22649
873.561	22831
873.69	22752
873.819	22554
873.948	22687
874.077	22664
874.206	22580
874.335	22740
874.464	22733
874.593	22892
874.722	22885
874.851	22908
874.979	22953
875.108	22980
875.237	22805
875.365	22763
875.494	22797
875.623	22915
875.751	22862
875.88	22816
876.008	23003
876.136	23060
876.265	23303
876.393	23490
876.521	23296
876.65	23307
876.778	23258
876.906	23147
877.034	23067
877.162	23166
877.29	22987
877.418	23345
877.546	23246
877.674	23197
877.802	23246
877.93	23193
878.058	23197
878.185	23159
878.313	23113
878.441	23288
878.568	23033
878.696	23166
878.824	23239
878.951	23383
879.079	23444
879.206	23452
879.333	23395
879.461	23239
879.588	23296
879.715	23398
879.842	23486
879.97	23303
880.097	22987
880.224	22961
880.351	23117
880.478	22987
880.605	22942
880.732	23128
880.859	23197
880.986	23064
881.112	22987
881.239	22889
881.366	22664
881.493	22706
881.619	22603
881.746	22622
881.872	22721
881.999	22546
882.125	22455
882.252	22531
882.378	22694
882.505	22637
882.631	22375
882.757	22356
882.883	22440
883.01	22265
883.136	22158
883.262	22196
883.388	22112
883.514	22230
883.64	22257
883.766	22112
883.892	22173
884.018	22044
884.143	22143
884.269	22348
884.395	22010
884.52	21930
884.646	21994
884.772	21812
884.897	21781
885.023	21869
885.148	22051
885.274	22124
885.399	21907
885.524	21846
885.65	21907
885.775	21975
885.9	21766
886.025	21926
886.15	22128
886.275	21861
886.4	21873
886.525	21876
886.65	21907
886.775	21903
886.9	22029
887.025	22029
887.149	21770
887.274	21732
887.399	21709
887.523	21660
887.648	21526
887.773	21549
887.897	21720
888.021	21717
888.146	21568
888.27	21755
888.395	21709
888.519	21713
888.643	21603
888.767	21808
888.891	21542
889.015	21443
889.139	21553
889.263	21469
889.387	21515
889.511	21675
889.635	21641
889.759	21428
889.883	21332
890.006	21557
890.13	21458
890.254	21420
890.377	21348
890.501	21291
890.624	21142
890.748	21184
890.871	21116
890.995	21074
891.118	20956
891.241	20982
891.364	20929
891.488	21100
891.611	21051
891.734	20982
891.857	21077
891.98	21100
892.103	21058
892.226	20990
892.349	21119
892.471	20777
892.594	20921
892.717	20956
892.839	20960
892.962	20944
893.085	20887
893.207	20853
893.33	20693
893.452	20754
893.575	20925
893.697	20788
893.819	20990
893.941	21043
894.064	21074
894.186	20975
894.308	20842
894.43	20967
894.552	20998
894.674	20910
894.796	20929
894.918	20906
895.04	20872
895.161	20948
895.283	20853
895.405	20948
895.526	20891
895.648	20868
895.769	20952
895.891	20914
896.012	21039
896.134	20876
896.255	20876
896.376	20880
896.498	20861
896.619	20887
896.74	21024
896.861	20933
896.982	21214
897.103	21256
897.224	21192
897.345	21058
897.466	20979
897.587	21005
897.708	21256
897.828	21169
897.949	21074
898.07	20971
898.19	20998
898.311	21074
898.431	21066
898.552	20979
898.672	21203
898.792	21135
898.913	20998
899.033	20933
899.153	20857
899.273	20864
899.393	20902
899.513	20800
899.633	20925
899.753	20853
899.873	20788
899.993	20815
900.113	20807
900.232	20830
900.352	20796
900.472	20606
900.591	20461
900.711	20632
900.83	20583
900.95	20731
901.069	20686
901.189	20602
901.308	20320
901.427	20145
901.546	20187
901.665	20122
901.784	20138
901.904	20107
902.023	19928
902.141	19788
902.26	19715
902.379	19738
902.498	19776
902.617	19769
902.735	19613
902.854	19506
902.973	19540
903.091	19293
903.21	19301
903.328	19301
903.446	19316
903.565	19209
903.683	19171
903.801	19031
903.919	18970
904.038	19061
904.156	18962
904.274	19008
904.392	18966
904.51	18890
904.627	18852
904.745	19015
904.863	19095
904.981	18684
905.098	18601
905.216	18521
905.334	18681
905.451	18593
905.569	18490
905.686	18452
905.803	18574
905.921	18342
906.038	18384
906.155	18369
906.272	18239
906.389	18315
906.506	17992
906.623	18026
906.74	18190
906.857	17988
906.974	17996
907.091	18148
907.208	18174
907.324	18125
907.441	17969
907.557	17813
907.674	17882
907.79	17703
907.907	17737
908.023	17855
908.139	17760
908.256	17726
908.372	17684
908.488	17741
908.604	17448
908.72	17501
908.836	17512
908.952	17509
909.068	17474
909.184	17573
909.3	17497
909.415	17490
909.531	17505
909.647	17235
909.762	17208
909.878	17216
909.993	17132
910.108	17166
910.224	17079
910.339	17204
910.454	17071
910.57	16881
910.685	17022
910.8	17204
910.915	17113
911.03	16927
911.145	16748
911.259	16740
911.374	16786
911.489	16637
911.604	16713
911.718	16538
911.833	16478
911.947	16382
912.062	16360
912.176	16443
912.291	16554
912.405	16516
912.519	16752
912.633	16706
912.748	16523
912.862	16527
912.976	16386
913.09	16382
913.204	16265
913.318	16394
913.431	16333
913.545	16413
913.659	16375
913.772	16306
913.886	16219
914	16162
914.113	16223
914.226	16238
914.34	16226
914.453	16013
914.566	16135
914.68	16051
914.793	15956
914.906	15747
915.019	15736
915.132	15564
915.245	15641
915.358	15751
915.47	15679
915.583	15591
915.696	15747
915.809	15835
915.921	15865
916.034	15564
916.146	15622
916.259	15606
916.371	15724
916.483	15625
916.595	15553
916.708	15572
916.82	15568
916.932	15492
917.044	15542
917.156	15416
917.268	15329
917.38	15416
917.491	15359
917.603	15325
917.715	15458
917.826	15329
917.938	15321
918.049	15081
918.161	15192
918.272	15447
918.384	15447
918.495	15230
918.606	15062
918.717	15112
918.828	15066
918.939	15138
919.05	15051
919.161	15089
919.272	14769
919.383	14910
919.494	15089
919.604	15260
919.715	15039
919.826	14967
919.936	14944
920.047	15119
920.157	14986
920.267	15199
920.378	15104
920.488	14990
920.598	15207
920.708	15291
920.818	15104
920.928	15116
921.038	15260
921.148	15283
921.258	14967
921.368	14910
921.477	14796
921.587	14785
921.697	14594
921.806	14712
921.916	14594
922.025	14457
922.134	14442
922.244	14286
922.353	14484
922.462	14347
922.571	14282
922.68	14123
922.789	14005
922.898	14054
923.007	13833
923.116	14092
923.224	14035
923.333	14069
923.442	13928
923.55	13814
923.659	13894
923.767	13814
923.876	13833
923.984	13936
924.092	13681
924.201	13856
924.309	13772
924.417	13849
924.525	13624
924.633	13677
924.741	14674
924.849	13472
924.956	13689
925.064	13396
925.172	13388
925.279	13495
925.387	13430
925.494	13422
925.602	13613
925.709	13400
925.816	13335
925.924	13350
926.031	13457
926.138	13392
926.245	13434
926.352	13285
926.459	13426
926.566	13476
926.673	13335
926.779	13126
926.886	13065
926.993	13050
927.099	13053
927.206	12905
927.312	12901
927.419	13050
927.525	12989
927.631	12981
927.737	12920
927.843	12772
927.95	12779
928.056	12787
928.162	12734
928.267	12852
928.373	13476
928.479	12951
928.585	12654
928.69	12665
928.796	12935
928.901	12650
929.007	12597
929.112	12635
929.218	12589
929.323	12502
929.428	12540
929.533	12635
929.638	12536
929.743	12433
929.848	12437
929.953	12448
930.058	12323
930.163	12201
930.267	12224
930.372	12311
930.477	12106
930.581	12350
930.685	12140
930.79	12072
930.894	12095
930.998	11965
931.103	12136
931.207	11726
931.311	11790
931.415	11589
931.519	11516
931.623	11402
