Data from test_V78500241_3602.txt Node
Date: Fri Mar 25 16:06:45 CST 2022
User: usil
Spectrometer: V785-0024
Trigger mode: 0
Integration Time (sec): 4.000000E-1
Scans to average: 1
Nonlinearity correction enabled: false
Boxcar width: 0
Storing dark spectrum: false
XAxis mode: Wavelengths
Number of Pixels in Spectrum: 1024
>>>>>Begin Spectral Data<<<<<
801.071	28432
801.214	28253
801.356	28150
801.499	27964
801.641	27953
801.783	28048
801.926	28021
802.068	27930
802.211	27831
802.353	27888
802.496	27675
802.638	27580
802.78	27572
802.923	27564
803.065	27591
803.208	27629
803.35	27705
803.492	27774
803.635	27816
803.777	27850
803.919	27934
804.061	28215
804.204	27823
804.346	27812
804.488	27766
804.63	27789
804.773	27800
804.915	27888
805.057	28063
805.199	27804
805.341	27937
805.483	27987
805.626	28021
805.768	27819
805.91	27975
806.052	27941
806.194	27960
806.336	28109
806.478	28120
806.62	27998
806.762	28101
806.904	28363
807.046	28489
807.188	28432
807.33	28394
807.472	28557
807.614	28341
807.756	28413
807.898	28398
808.04	28242
808.182	28299
808.324	28234
808.465	28405
808.607	28459
808.749	28493
808.891	28820
809.033	28858
809.174	28774
809.316	28660
809.458	28679
809.6	28664
809.741	28869
809.883	28873
810.025	29037
810.166	28938
810.308	28957
810.45	28900
810.591	28805
810.733	28744
810.875	28641
811.016	28459
811.158	28596
811.299	28748
811.441	28793
811.582	28896
811.724	28729
811.865	28546
812.007	28710
812.148	28839
812.29	28660
812.431	28702
812.573	28995
812.714	29220
812.855	29223
812.997	29273
813.138	29444
813.279	29311
813.421	29235
813.562	29227
813.703	29102
813.845	29041
813.986	28512
814.127	28478
814.268	28428
814.41	28504
814.551	28268
814.692	28493
814.833	28413
814.974	28299
815.115	28337
815.256	28143
815.397	28268
815.539	28242
815.68	28162
815.821	28188
815.962	28261
816.103	28169
816.244	28029
816.385	28017
816.526	27869
816.666	27812
816.807	27614
816.948	27709
817.089	27751
817.23	27797
817.371	27622
817.512	27622
817.653	27667
817.793	27800
817.934	27759
818.075	27633
818.216	27534
818.356	27644
818.497	27549
818.638	27306
818.778	27473
818.919	27348
819.06	27378
819.2	27435
819.341	27686
819.481	27724
819.622	27838
819.762	28188
819.903	27972
820.043	27774
820.184	27964
820.324	27835
820.465	27937
820.605	27789
820.746	27675
820.886	27743
821.026	27804
821.167	27819
821.307	27819
821.447	27682
821.588	27622
821.728	27534
821.868	27329
822.008	27287
822.149	27249
822.289	27112
822.429	26910
822.569	26902
822.709	26823
822.849	26785
822.99	26804
823.13	26636
823.27	26625
823.41	26476
823.55	26518
823.69	26503
823.83	26568
823.97	26374
824.11	26191
824.25	26263
824.389	26286
824.529	26484
824.669	26259
824.809	26465
824.949	26427
825.089	26370
825.228	26309
825.368	26138
825.508	26237
825.648	26199
825.787	26187
825.927	26180
826.067	26138
826.206	26210
826.346	26275
826.485	26168
826.625	26206
826.765	26301
826.904	26278
827.044	26073
827.183	25989
827.323	26001
827.462	25978
827.601	25963
827.741	25963
827.88	25917
828.02	25837
828.159	25875
828.298	25955
828.437	25898
828.577	25959
828.716	25936
828.855	25753
828.994	25510
829.134	25590
829.273	25578
829.412	25727
829.551	25559
829.69	25658
829.829	25571
829.968	25624
830.107	25818
830.246	25639
830.385	25556
830.524	25575
830.663	25362
830.802	25400
830.941	25088
831.08	25221
831.219	25384
831.357	25270
831.496	25419
831.635	25198
831.774	25202
831.913	25057
832.051	25019
832.19	24867
832.329	24951
832.467	24878
832.606	24859
832.744	24806
832.883	24829
833.022	24825
833.16	24821
833.299	24840
833.437	24951
833.576	24916
833.714	25004
833.852	24985
833.991	24973
834.129	25042
834.267	25057
834.406	24996
834.544	24966
834.682	24996
834.821	25012
834.959	25034
835.097	24787
835.235	24973
835.373	25012
835.511	25019
835.65	24920
835.788	24639
835.926	24627
836.064	24612
836.202	24601
836.34	24821
836.478	24837
836.615	24681
836.753	24738
836.891	24669
837.029	24703
837.167	24741
837.305	24833
837.443	24726
837.58	24505
837.718	24654
837.856	24673
837.993	24566
838.131	24513
838.269	24429
838.406	24517
838.544	24350
838.681	24251
838.819	24243
838.956	24117
839.094	24015
839.231	24076
839.369	24140
839.506	24437
839.643	24258
839.781	24182
839.918	24011
840.055	24087
840.193	23977
840.33	23874
840.467	23954
840.604	23946
840.742	24273
840.879	23817
841.016	23840
841.153	23851
841.29	24034
841.427	23851
841.564	23897
841.701	24064
841.838	23923
841.975	23847
842.112	23798
842.249	23840
842.385	23745
842.522	23908
842.659	23733
842.796	23786
842.933	23729
843.069	23745
843.206	23756
843.343	23745
843.479	23657
843.616	23726
843.752	23505
843.889	23623
844.025	23615
844.162	23490
844.298	23634
844.435	23493
844.571	23452
844.708	23627
844.844	23718
844.98	23691
845.117	23585
845.253	23497
845.389	23410
845.525	23421
845.661	23425
845.798	23330
845.934	23265
846.07	23242
846.206	23231
846.342	23398
846.478	23273
846.614	22976
846.75	22831
846.886	22938
847.022	22957
847.158	23006
847.294	22961
847.429	22904
847.565	22934
847.701	23170
847.837	22634
847.972	22710
848.108	22774
848.244	22809
848.379	22687
848.515	22557
848.65	22538
848.786	22561
848.921	22504
849.057	22721
849.192	22615
849.328	22584
849.463	22592
849.598	22470
849.734	22424
849.869	22409
850.004	22238
850.14	22379
850.275	22363
850.41	22181
850.545	22314
850.68	22265
850.815	22322
850.95	22280
851.085	22508
851.22	22402
851.355	22287
851.49	22246
851.625	22215
851.76	22261
851.895	22192
852.03	22188
852.165	22363
852.299	22314
852.434	22341
852.569	22371
852.703	22204
852.838	22234
852.973	22417
853.107	22394
853.242	22249
853.376	22181
853.511	22036
853.645	22086
853.78	22310
853.914	22135
854.048	22070
854.183	22219
854.317	22162
854.451	22299
854.585	22192
854.72	22154
854.854	22135
854.988	22093
855.122	22268
855.256	22177
855.39	22246
855.524	22261
855.658	22341
855.792	22230
855.926	22131
856.06	22249
856.194	22303
856.327	22128
856.461	22139
856.595	22040
856.729	22055
856.862	22246
856.996	22306
857.13	22150
857.263	22257
857.397	22329
857.53	22147
857.664	22200
857.797	22196
857.931	22230
858.064	22230
858.197	22295
858.331	22101
858.464	22044
858.597	22078
858.731	22139
858.864	22070
858.997	22147
859.13	22242
859.263	22116
859.396	22295
859.529	22181
859.662	22086
859.795	22131
859.928	22173
860.061	22291
860.194	22314
860.327	22204
860.46	22318
860.592	22314
860.725	22363
860.858	22363
860.99	22268
861.123	22139
861.256	22268
861.388	22090
861.521	22923
861.653	21987
861.786	21842
861.918	21907
862.05	22051
862.183	22017
862.315	22265
862.447	22211
862.58	22086
862.712	21899
862.844	21857
862.976	22006
863.108	21903
863.24	22291
863.372	21876
863.504	21884
863.636	21854
863.768	21880
863.9	21732
864.032	21759
864.164	21876
864.296	21850
864.428	21964
864.559	21991
864.691	22029
864.823	21842
864.954	21819
865.086	21755
865.217	21789
865.349	21709
865.48	21766
865.612	21751
865.743	21835
865.875	21770
866.006	21724
866.137	21698
866.269	21751
866.4	21835
866.531	21667
866.662	21542
866.793	21671
866.924	21686
867.055	21812
867.186	21732
867.317	21667
867.448	21637
867.579	21701
867.71	21713
867.841	21591
867.972	21644
868.103	21652
868.233	21797
868.364	21720
868.495	21778
868.625	21865
868.756	22021
868.886	21831
869.017	21964
869.147	21960
869.278	21987
869.408	21934
869.539	22010
869.669	21975
869.799	21926
869.929	22139
870.06	22048
870.19	22169
870.32	22242
870.45	22226
870.58	22238
870.71	22481
870.84	22356
870.97	22348
871.1	22280
871.23	22527
871.36	22413
871.489	22470
871.619	22569
871.749	22508
871.879	22577
872.008	22493
872.138	22500
872.267	22497
872.397	22394
872.526	22344
872.656	22329
872.785	22379
872.915	22561
873.044	22607
873.173	22675
873.303	22622
873.432	22516
873.561	22664
873.69	22573
873.819	22546
873.948	22710
874.077	22603
874.206	22421
874.335	22516
874.464	22729
874.593	22752
874.722	22820
874.851	22801
874.979	22786
875.108	22801
875.237	22687
875.365	22679
875.494	22618
875.623	22824
875.751	22729
875.88	22919
876.008	22934
876.136	23037
876.265	23185
876.393	23326
876.521	23265
876.65	23242
876.778	23288
876.906	23090
877.034	23083
877.162	23064
877.29	23098
877.418	23132
877.546	23048
877.674	23090
877.802	23056
877.93	23086
878.058	22957
878.185	23018
878.313	23003
878.441	23086
878.568	22927
878.696	22961
878.824	23075
878.951	23220
879.079	23391
879.206	23395
879.333	23250
879.461	23223
879.588	23159
879.715	23280
879.842	23376
879.97	23178
880.097	22934
880.224	22862
880.351	22862
880.478	22938
880.605	22812
880.732	22976
880.859	23083
880.986	23014
881.112	22843
881.239	22862
881.366	22641
881.493	22630
881.619	22440
881.746	22622
881.872	22421
881.999	22470
882.125	22333
882.252	22455
882.378	22466
882.505	22573
882.631	22459
882.757	22261
882.883	22344
883.01	22223
883.136	22097
883.262	22143
883.388	21968
883.514	22051
883.64	22207
883.766	22048
883.892	21926
884.018	22040
884.143	22025
884.269	22200
884.395	21838
884.52	21705
884.646	21713
884.772	21736
884.897	21770
885.023	21736
885.148	21937
885.274	21934
885.399	21850
885.524	21709
885.65	21774
885.775	21778
885.9	21816
886.025	21865
886.15	21880
886.275	21690
886.4	21675
886.525	21804
886.65	21701
886.775	21800
886.9	21956
887.025	22025
887.149	21713
887.274	21690
887.399	21652
887.523	21549
887.648	21458
887.773	21553
887.897	21671
888.021	21587
888.146	21424
888.27	21644
888.395	21580
888.519	21572
888.643	21492
888.767	21652
888.891	21450
889.015	21336
889.139	21367
889.263	21287
889.387	21530
889.511	21682
889.635	21526
889.759	21302
889.883	21329
890.006	21408
890.13	21447
890.254	21142
890.377	21252
890.501	21146
890.624	21039
890.748	21188
890.871	20979
890.995	20834
891.118	20864
891.241	20864
891.364	20826
891.488	21047
891.611	20933
891.734	20910
891.857	20967
891.98	20891
892.103	20868
892.226	20849
892.349	20853
892.471	20659
892.594	20804
892.717	20937
892.839	20682
892.962	20910
893.085	20887
893.207	20762
893.33	20735
893.452	20781
893.575	20697
893.697	20708
893.819	20929
893.941	20944
894.064	20933
894.186	20796
894.308	20720
894.43	20834
894.552	20914
894.674	20819
894.796	20579
894.918	20762
895.04	20800
895.161	20838
895.283	20800
895.405	20754
895.526	20705
895.648	20670
895.769	20777
895.891	20925
896.012	20914
896.134	20864
896.255	20826
896.376	20746
896.498	20842
896.619	20834
896.74	20758
896.861	20952
896.982	20994
897.103	21207
897.224	21001
897.345	21001
897.466	20982
897.587	20941
897.708	21077
897.828	21043
897.949	20872
898.07	20807
898.19	20785
898.311	21085
898.431	20864
898.552	21028
898.672	21036
898.792	21005
898.913	21039
899.033	20815
899.153	20925
899.273	20727
899.393	20765
899.513	20792
899.633	20708
899.753	20800
899.873	20625
899.993	20769
900.113	20583
900.232	20625
900.352	20769
900.472	20446
900.591	20393
900.711	20450
900.83	20621
900.95	20518
901.069	20537
901.189	20507
901.308	20073
901.427	20012
901.546	20081
901.665	20031
901.784	20138
901.904	19913
902.023	19814
902.141	19643
902.26	19620
902.379	19658
902.498	19582
902.617	19495
902.735	19670
902.854	19616
902.973	19419
903.091	19263
903.21	19331
903.328	19148
903.446	19088
903.565	19091
903.683	19046
903.801	18951
903.919	19050
904.038	19012
904.156	18833
904.274	18871
904.392	18719
904.51	18776
904.627	18837
904.745	18852
904.863	18791
904.981	18631
905.098	18395
905.216	18532
905.334	18452
905.451	18559
905.569	18361
905.686	18627
905.803	18422
905.921	18232
906.038	18407
906.155	18277
906.272	18197
906.389	18201
906.506	17973
906.623	18060
906.74	18091
906.857	17912
906.974	18007
907.091	18041
907.208	18034
907.324	18011
907.441	17988
907.557	17726
907.674	17676
907.79	17680
907.907	17611
908.023	17748
908.139	17680
908.256	17703
908.372	17539
908.488	17604
908.604	17330
908.72	17387
908.836	17372
908.952	17345
909.068	17421
909.184	17585
909.3	17395
909.415	17482
909.531	17379
909.647	17280
909.762	17124
909.878	17094
909.993	17029
910.108	17094
910.224	16980
910.339	17045
910.454	16984
910.57	16995
910.685	16839
910.8	17208
910.915	17166
911.03	16828
911.145	16763
911.259	16721
911.374	16691
911.489	16626
911.604	16622
911.718	16470
911.833	16474
911.947	16371
912.062	16329
912.176	16398
912.291	16451
912.405	16394
912.519	16626
912.633	16626
912.748	16417
912.862	16386
912.976	16344
913.09	16150
913.204	16215
913.318	16261
913.431	16424
913.545	16348
913.659	16360
913.772	16173
913.886	16131
914	16074
914.113	16147
914.226	16116
914.34	16124
914.453	15968
914.566	16013
914.68	16029
914.793	15899
914.906	15728
915.019	15648
915.132	15671
915.245	15698
915.358	15637
915.47	15660
915.583	15641
915.696	15755
915.809	15770
915.921	15728
916.034	15572
916.146	15614
916.259	15538
916.371	15603
916.483	15534
916.595	15382
916.708	15447
916.82	15496
916.932	15454
917.044	15428
917.156	15370
917.268	15294
917.38	15351
917.491	15306
917.603	15370
917.715	15348
917.826	15424
917.938	15089
918.049	15150
918.161	15237
918.272	15370
918.384	15294
918.495	15157
918.606	15005
918.717	14990
918.828	15081
918.939	15135
919.05	14906
919.161	14998
919.272	14826
919.383	14857
919.494	15112
919.604	15192
919.715	14982
919.826	14933
919.936	14956
920.047	14960
920.157	15062
920.267	15161
920.378	14998
920.488	14921
920.598	15058
920.708	15207
920.818	15077
920.928	15112
921.038	15256
921.148	15123
921.258	14998
921.368	14864
921.477	14708
921.587	14663
921.697	14537
921.806	14686
921.916	14507
922.025	14434
922.134	14305
922.244	14431
922.353	14419
922.462	14202
922.571	14168
922.68	13955
922.789	14039
922.898	13940
923.007	13898
923.116	13997
923.224	14001
923.333	13936
923.442	13894
923.55	13780
923.659	13887
923.767	13883
923.876	13799
923.984	13803
924.092	13632
924.201	13753
924.309	13769
924.417	13708
924.525	13597
924.633	13674
924.741	14594
924.849	13430
924.956	13658
925.064	13320
925.172	13266
925.279	13350
925.387	13384
925.494	13381
925.602	13388
925.709	13396
925.816	13324
925.924	13236
926.031	13381
926.138	13362
926.245	13343
926.352	13190
926.459	13247
926.566	13331
926.673	13206
926.779	13175
926.886	12958
926.993	12947
927.099	12924
927.206	12913
927.312	12817
927.419	13012
927.525	12833
927.631	12932
927.737	12749
927.843	12829
927.95	12734
928.056	12707
928.162	12741
928.267	12810
928.373	13407
928.479	12844
928.585	12570
928.69	12662
928.796	12734
928.901	12544
929.007	12494
929.112	12597
929.218	12601
929.323	12448
929.428	12448
929.533	12582
929.638	12418
929.743	12334
929.848	12490
929.953	12407
930.058	12243
930.163	12098
930.267	12098
930.372	12296
930.477	12125
930.581	12273
930.685	12186
930.79	11984
930.894	12060
930.998	11935
931.103	12121
931.207	11798
931.311	11718
931.415	11600
931.519	11307
931.623	11364
