Data from test_V78500241_280.txt Node
Date: Fri Mar 25 15:43:44 CST 2022
User: usil
Spectrometer: V785-0024
Trigger mode: 0
Integration Time (sec): 4.000000E-1
Scans to average: 1
Nonlinearity correction enabled: false
Boxcar width: 0
Storing dark spectrum: false
XAxis mode: Wavelengths
Number of Pixels in Spectrum: 1024
>>>>>Begin Spectral Data<<<<<
801.071	29729
801.214	29551
801.356	29345
801.499	29425
801.641	29288
801.783	29280
801.926	29501
802.068	29318
802.211	29170
802.353	29056
802.496	28984
802.638	28877
802.78	28881
802.923	28801
803.065	28812
803.208	28866
803.35	29025
803.492	28995
803.635	29261
803.777	28896
803.919	29143
804.061	29414
804.204	29044
804.346	29044
804.488	29037
804.63	28999
804.773	29022
804.915	29105
805.057	29212
805.199	29185
805.341	29216
805.483	29094
805.626	29197
805.768	29052
805.91	29227
806.052	29079
806.194	29109
806.336	29379
806.478	29334
806.62	29231
806.762	29311
806.904	29497
807.046	29790
807.188	29707
807.33	29619
807.472	29627
807.614	29467
807.756	29615
807.898	29395
808.04	29299
808.182	29383
808.324	29429
808.465	29383
808.607	29672
808.749	29687
808.891	29851
809.033	29958
809.174	29798
809.316	29813
809.458	29821
809.6	29767
809.741	29988
809.883	29923
810.025	30220
810.166	30072
810.308	30095
810.45	30083
810.591	30167
810.733	29855
810.875	29722
811.016	29813
811.158	29733
811.299	29855
811.441	29961
811.582	30022
811.724	29638
811.865	29977
812.007	29798
812.148	29805
812.29	29916
812.431	29939
812.573	30079
812.714	30395
812.855	30494
812.997	30388
813.138	30475
813.279	30490
813.421	30300
813.562	30369
813.703	30125
813.845	29988
813.986	29775
814.127	29516
814.268	29547
814.41	29486
814.551	29463
814.692	29535
814.833	29444
814.974	29486
815.115	29509
815.256	29436
815.397	29349
815.539	29311
815.68	29296
815.821	29258
815.962	29181
816.103	29322
816.244	29166
816.385	28927
816.526	28946
816.666	28896
816.807	28691
816.948	28778
817.089	28812
817.23	28843
817.371	28774
817.512	28645
817.653	28717
817.793	28774
817.934	28664
818.075	28641
818.216	28721
818.356	28546
818.497	28516
818.638	28382
818.778	28314
818.919	28405
819.06	28508
819.2	28557
819.341	28592
819.481	28721
819.622	28687
819.762	28961
819.903	28957
820.043	28908
820.184	28736
820.324	28774
820.465	28816
820.605	28774
820.746	28748
820.886	28584
821.026	28713
821.167	28683
821.307	28767
821.447	28615
821.588	28542
821.728	28394
821.868	28181
822.008	28040
822.149	28131
822.289	27949
822.429	27656
822.569	27785
822.709	27808
822.849	27530
822.99	27614
823.13	27538
823.27	27492
823.41	27363
823.55	27173
823.69	27310
823.83	27382
823.97	27310
824.11	27207
824.25	27119
824.389	27249
824.529	27260
824.669	27222
824.809	27306
824.949	27226
825.089	27211
825.228	27184
825.368	27096
825.508	26948
825.648	27009
825.787	27062
825.927	27070
826.067	27142
826.206	26979
826.346	27131
826.485	26929
826.625	27089
826.765	27100
826.904	27043
827.044	26746
827.183	26731
827.323	26701
827.462	26864
827.601	26724
827.741	26716
827.88	26712
828.02	26556
828.159	26651
828.298	26682
828.437	26785
828.577	26594
828.716	26811
828.855	26701
828.994	26290
829.134	26431
829.273	26495
829.412	26332
829.551	26275
829.69	26423
829.829	26233
829.968	26495
830.107	26404
830.246	26309
830.385	26256
830.524	26218
830.663	26134
830.802	26027
830.941	25955
831.08	25936
831.219	26096
831.357	26043
831.496	26092
831.635	25978
831.774	25955
831.913	25818
832.051	25712
832.19	25715
832.329	25753
832.467	25567
832.606	25544
832.744	25525
832.883	25567
833.022	25582
833.16	25571
833.299	25594
833.437	25605
833.576	25537
833.714	25658
833.852	25700
833.991	25731
834.129	25681
834.267	25731
834.406	25689
834.544	25746
834.682	25647
834.821	25540
834.959	25769
835.097	25651
835.235	25624
835.373	25712
835.511	25651
835.65	25407
835.788	25449
835.926	25278
836.064	25190
836.202	25274
836.34	25434
836.478	25537
836.615	25388
836.753	25449
836.891	25468
837.029	25365
837.167	25365
837.305	25320
837.443	25312
837.58	25388
837.718	25346
837.856	25198
837.993	25187
838.131	25255
838.269	25072
838.406	25088
838.544	25050
838.681	24848
838.819	24897
838.956	24646
839.094	24681
839.231	24821
839.369	24878
839.506	25072
839.643	24783
839.781	24760
839.918	24544
840.055	24536
840.193	24460
840.33	24490
840.467	24505
840.604	24639
840.742	24764
840.879	24448
841.016	24574
841.153	24445
841.29	24635
841.427	24513
841.564	24525
841.701	24437
841.838	24456
841.975	24456
842.112	24437
842.249	24334
842.385	24277
842.522	24494
842.659	24437
842.796	24197
842.933	24148
843.069	24190
843.206	24182
843.343	24300
843.479	24254
843.616	24182
843.752	24072
843.889	24129
844.025	24171
844.162	23923
844.298	23988
844.435	24022
844.571	23908
844.708	24083
844.844	24098
844.98	24114
845.117	24098
845.253	23901
845.389	23897
845.525	23745
845.661	23805
845.798	23684
845.934	23748
846.07	23676
846.206	23783
846.342	23756
846.478	23665
846.614	23421
846.75	23395
846.886	23284
847.022	23524
847.158	23387
847.294	23421
847.429	23429
847.565	23273
847.701	23619
847.837	23220
847.972	23246
848.108	23189
848.244	23159
848.379	23086
848.515	22854
848.65	22824
848.786	22930
848.921	23071
849.057	23086
849.192	23044
849.328	22908
849.463	22999
849.598	22858
849.734	22866
849.869	22858
850.004	22672
850.14	22805
850.275	22835
850.41	22618
850.545	22683
850.68	22630
850.815	22729
850.95	22698
851.085	22980
851.22	22740
851.355	22698
851.49	22725
851.625	22672
851.76	22702
851.895	22580
852.03	22672
852.165	22675
852.299	22767
852.434	22767
852.569	22790
852.703	22588
852.838	22755
852.973	22805
853.107	22809
853.242	22660
853.376	22557
853.511	22470
853.645	22485
853.78	22691
853.914	22489
854.048	22432
854.183	22421
854.317	22489
854.451	22771
854.585	22466
854.72	22409
854.854	22607
854.988	22337
855.122	22375
855.256	22246
855.39	22436
855.524	22599
855.658	22577
855.792	22611
855.926	22489
856.06	22573
856.194	22653
856.327	22459
856.461	22485
856.595	22565
856.729	22363
856.862	22611
856.996	22596
857.13	22577
857.263	22527
857.397	22592
857.53	22459
857.664	22493
857.797	22554
857.931	22512
858.064	22394
858.197	22725
858.331	22550
858.464	22344
858.597	22371
858.731	22367
858.864	22466
858.997	22409
859.13	22436
859.263	22443
859.396	22615
859.529	22367
859.662	22333
859.795	22466
859.928	22508
860.061	22451
860.194	22626
860.327	22459
860.46	22382
860.592	22398
860.725	22527
860.858	22500
860.99	22466
861.123	22371
861.256	22459
861.388	22360
861.521	23113
861.653	22409
861.786	22310
861.918	22185
862.05	22360
862.183	22500
862.315	22421
862.447	22493
862.58	22310
862.712	22310
862.844	22188
862.976	22185
863.108	22086
863.24	22554
863.372	21998
863.504	22109
863.636	22116
863.768	22204
863.9	22067
864.032	22086
864.164	22048
864.296	22128
864.428	22230
864.559	22074
864.691	22021
864.823	22147
864.954	22128
865.086	22090
865.217	22082
865.349	21983
865.48	22055
865.612	22025
865.743	22131
865.875	21930
866.006	21983
866.137	22055
866.269	22013
866.4	21918
866.531	21781
866.662	21983
866.793	21949
866.924	21911
867.055	21873
867.186	21934
867.317	21842
867.448	21812
867.579	21876
867.71	21854
867.841	21846
867.972	21960
868.103	21949
868.233	21861
868.364	21968
868.495	22048
868.625	22097
868.756	22135
868.886	21972
869.017	22116
869.147	22295
869.278	22242
869.408	22196
869.539	22093
869.669	22272
869.799	22051
869.929	22314
870.06	22238
870.19	22386
870.32	22413
870.45	22436
870.58	22592
870.71	22615
870.84	22634
870.97	22557
871.1	22451
871.23	22763
871.36	22759
871.489	22725
871.619	22664
871.749	22729
871.879	22759
872.008	22923
872.138	22767
872.267	22752
872.397	22607
872.526	22573
872.656	22569
872.785	22508
872.915	22778
873.044	22782
873.173	22771
873.303	22782
873.432	22729
873.561	22805
873.69	22816
873.819	22858
873.948	22850
874.077	22858
874.206	22630
874.335	22816
874.464	22915
874.593	22858
874.722	22976
874.851	22965
874.979	23018
875.108	23037
875.237	22892
875.365	22938
875.494	22828
875.623	23037
875.751	22991
875.88	22892
876.008	23037
876.136	23102
876.265	23315
876.393	23391
876.521	23379
876.65	23467
876.778	23436
876.906	23189
877.034	23372
877.162	23334
877.29	23330
877.418	23315
877.546	23372
877.674	23395
877.802	23307
877.93	23349
878.058	23242
878.185	23185
878.313	23318
878.441	23296
878.568	23136
878.696	23315
878.824	23299
878.951	23349
879.079	23490
879.206	23665
879.333	23482
879.461	23429
879.588	23391
879.715	23410
879.842	23493
879.97	23406
880.097	23181
880.224	23105
880.351	23155
880.478	23083
880.605	23037
880.732	23098
880.859	23269
880.986	23128
881.112	23250
881.239	23064
881.366	22733
881.493	22763
881.619	22790
881.746	22630
881.872	22877
881.999	22668
882.125	22660
882.252	22759
882.378	22706
882.505	22809
882.631	22584
882.757	22318
882.883	22474
883.01	22519
883.136	22318
883.262	22344
883.388	22230
883.514	22352
883.64	22409
883.766	22223
883.892	22325
884.018	22261
884.143	22436
884.269	22542
884.395	22044
884.52	21953
884.646	22059
884.772	22025
884.897	22040
885.023	22044
885.148	22059
885.274	22162
885.399	22116
885.524	22055
885.65	22032
885.775	21941
885.9	21945
886.025	22078
886.15	22154
886.275	21899
886.4	21895
886.525	21941
886.65	22051
886.775	21899
886.9	22029
887.025	22112
887.149	21953
887.274	21892
887.399	21759
887.523	21778
887.648	21705
887.773	21759
887.897	21835
888.021	21838
888.146	21595
888.27	21850
888.395	21808
888.519	21903
888.643	21694
888.767	21888
888.891	21698
889.015	21641
889.139	21587
889.263	21454
889.387	21652
889.511	21736
889.635	21755
889.759	21534
889.883	21500
890.006	21557
890.13	21538
890.254	21386
890.377	21424
890.501	21401
890.624	21279
890.748	21355
890.871	21272
890.995	21108
891.118	21028
891.241	21154
891.364	20914
891.488	21180
891.611	21001
891.734	21066
891.857	21161
891.98	21112
892.103	21245
892.226	21062
892.349	20937
892.471	20845
892.594	20963
892.717	20998
892.839	21005
892.962	20960
893.085	21093
893.207	21036
893.33	20857
893.452	20921
893.575	20941
893.697	20990
893.819	21024
893.941	21096
894.064	21131
894.186	20937
894.308	20971
894.43	21154
894.552	21017
894.674	21081
894.796	20902
894.918	21009
895.04	20845
895.161	20967
895.283	20979
895.405	20815
895.526	20986
895.648	20979
895.769	21138
895.891	21039
896.012	21028
896.134	21058
896.255	20925
896.376	21028
896.498	20921
896.619	21077
896.74	20986
896.861	21051
896.982	21397
897.103	21450
897.224	21363
897.345	21180
897.466	21211
897.587	21157
897.708	21260
897.828	21119
897.949	21096
898.07	21055
898.19	21089
898.311	21245
898.431	21089
898.552	21192
898.672	21161
898.792	21123
898.913	21173
899.033	20967
899.153	21024
899.273	20826
899.393	20906
899.513	20800
899.633	20948
899.753	20971
899.873	20861
899.993	20967
900.113	20781
900.232	20727
900.352	20758
900.472	20735
900.591	20587
900.711	20636
900.83	20568
900.95	20632
901.069	20754
901.189	20476
901.308	20396
901.427	20218
901.546	20259
901.665	20263
901.784	20328
901.904	20062
902.023	20012
902.141	19845
902.26	19742
902.379	19788
902.498	19704
902.617	19746
902.735	19757
902.854	19605
902.973	19670
903.091	19468
903.21	19407
903.328	19358
903.446	19232
903.565	19183
903.683	19232
903.801	19095
903.919	19141
904.038	19069
904.156	18954
904.274	19034
904.392	18943
904.51	18878
904.627	18939
904.745	18867
904.863	18890
904.981	18734
905.098	18582
905.216	18544
905.334	18555
905.451	18627
905.569	18498
905.686	18597
905.803	18403
905.921	18350
906.038	18452
906.155	18369
906.272	18232
906.389	18163
906.506	18060
906.623	18136
906.74	18022
906.857	18095
906.974	18011
907.091	18235
907.208	18262
907.324	18110
907.441	18068
907.557	17802
907.674	17741
907.79	17649
907.907	17718
908.023	17703
908.139	17699
908.256	17745
908.372	17619
908.488	17585
908.604	17547
908.72	17341
908.836	17509
908.952	17448
909.068	17520
909.184	17558
909.3	17482
909.415	17471
909.531	17501
909.647	17197
909.762	17147
909.878	17079
909.993	17143
910.108	17170
910.224	17041
910.339	17170
910.454	16972
910.57	16957
910.685	16930
910.8	17098
910.915	16995
911.03	16965
911.145	16801
911.259	16710
911.374	16755
911.489	16637
911.604	16565
911.718	16481
911.833	16402
911.947	16443
912.062	16409
912.176	16508
912.291	16386
912.405	16459
912.519	16580
912.633	16516
912.748	16508
912.862	16413
912.976	16284
913.09	16223
913.204	16284
913.318	16295
913.431	16371
913.545	16211
913.659	16261
913.772	16242
913.886	16097
914	16059
914.113	16204
914.226	16230
914.34	16063
914.453	15861
914.566	16204
914.68	15922
914.793	15975
914.906	15835
915.019	15610
915.132	15667
915.245	15686
915.358	15675
915.47	15736
915.583	15728
915.696	15591
915.809	15762
915.921	15736
916.034	15534
916.146	15538
916.259	15538
916.371	15610
916.483	15561
916.595	15549
916.708	15599
916.82	15416
916.932	15462
917.044	15477
917.156	15443
917.268	15249
917.38	15306
917.491	15256
917.603	15291
917.715	15298
917.826	15416
917.938	15218
918.049	15184
918.161	15173
918.272	15359
918.384	15310
918.495	15188
918.606	15085
918.717	14990
918.828	15070
918.939	15093
919.05	14986
919.161	14956
919.272	14697
919.383	14868
919.494	14941
919.604	15245
919.715	14998
919.826	14849
919.936	14830
920.047	15077
920.157	14933
920.267	15176
920.378	14986
920.488	14902
920.598	15066
920.708	15154
920.818	15100
920.928	15123
921.038	15226
921.148	15150
921.258	14872
921.368	14785
921.477	14754
921.587	14606
921.697	14545
921.806	14659
921.916	14438
922.025	14328
922.134	14286
922.244	14240
922.353	14351
922.462	14168
922.571	14100
922.68	14001
922.789	13868
922.898	13978
923.007	13849
923.116	13932
923.224	13868
923.333	13883
923.442	13750
923.55	13753
923.659	13712
923.767	13925
923.876	13624
923.984	13803
924.092	13597
924.201	13632
924.309	13636
924.417	13609
924.525	13605
924.633	13616
924.741	14568
924.849	13369
924.956	13453
925.064	13316
925.172	13270
925.279	13282
925.387	13365
925.494	13403
925.602	13518
925.709	13358
925.816	13160
925.924	13278
926.031	13278
926.138	13244
926.245	13343
926.352	13118
926.459	13282
926.566	13343
926.673	13190
926.779	13103
926.886	12981
926.993	12951
927.099	12875
927.206	12825
927.312	12806
927.419	12886
927.525	12837
927.631	12878
927.737	12768
927.843	12772
927.95	12563
928.056	12700
928.162	12692
928.267	12764
928.373	13411
928.479	12658
928.585	12509
928.69	12623
928.796	12650
928.901	12559
929.007	12437
929.112	12612
929.218	12528
929.323	12502
929.428	12391
929.533	12452
929.638	12376
929.743	12330
929.848	12277
929.953	12361
930.058	12243
930.163	12133
930.267	12068
930.372	12216
930.477	11946
930.581	12292
930.685	12053
930.79	11916
930.894	11980
930.998	11920
931.103	12034
931.207	11695
931.311	11619
931.415	11433
931.519	11280
931.623	11330
