Data from test_V78500241_909.txt Node
Date: Fri Mar 25 15:48:05 CST 2022
User: usil
Spectrometer: V785-0024
Trigger mode: 0
Integration Time (sec): 4.000000E-1
Scans to average: 1
Nonlinearity correction enabled: false
Boxcar width: 0
Storing dark spectrum: false
XAxis mode: Wavelengths
Number of Pixels in Spectrum: 1024
>>>>>Begin Spectral Data<<<<<
801.071	28010
801.214	27819
801.356	27793
801.499	27717
801.641	27553
801.783	27663
801.926	27663
802.068	27542
802.211	27420
802.353	27488
802.496	27260
802.638	27351
802.78	27176
802.923	27112
803.065	27154
803.208	27313
803.35	27203
803.492	27424
803.635	27386
803.777	27275
803.919	27412
804.061	27816
804.204	27389
804.346	27329
804.488	27473
804.63	27344
804.773	27466
804.915	27450
805.057	27515
805.199	27511
805.341	27675
805.483	27545
805.626	27587
805.768	27488
805.91	27610
806.052	27523
806.194	27488
806.336	27679
806.478	27705
806.62	27564
806.762	27633
806.904	27911
807.046	28162
807.188	27972
807.33	27937
807.472	28105
807.614	27987
807.756	27949
807.898	28032
808.04	27854
808.182	27842
808.324	27835
808.465	27930
808.607	28040
808.749	28322
808.891	28280
809.033	28325
809.174	28234
809.316	28215
809.458	28337
809.6	28192
809.741	28341
809.883	28405
810.025	28630
810.166	28580
810.308	28535
810.45	28436
810.591	28531
810.733	28230
810.875	28394
811.016	28200
811.158	28219
811.299	28295
811.441	28527
811.582	28508
811.724	28329
811.865	28253
812.007	28242
812.148	28185
812.29	28432
812.431	28455
812.573	28519
812.714	28649
812.855	28843
812.997	28949
813.138	29200
813.279	28972
813.421	28778
813.562	28805
813.703	28531
813.845	28630
813.986	28341
814.127	28124
814.268	28006
814.41	27914
814.551	28029
814.692	27964
814.833	27945
814.974	27907
815.115	27991
815.256	27800
815.397	27911
815.539	27770
815.68	27667
815.821	27663
815.962	27698
816.103	27797
816.244	27523
816.385	27511
816.526	27523
816.666	27378
816.807	27317
816.948	27447
817.089	27462
817.23	27294
817.371	27344
817.512	27325
817.653	27176
817.793	27275
817.934	27165
818.075	27389
818.216	27443
818.356	27218
818.497	27116
818.638	26914
818.778	27001
818.919	27093
819.06	26906
819.2	27142
819.341	27256
819.481	27218
819.622	27367
819.762	27675
819.903	27443
820.043	27431
820.184	27291
820.324	27287
820.465	27355
820.605	27405
820.746	27389
820.886	27214
821.026	27405
821.167	27378
821.307	27386
821.447	27298
821.588	27093
821.728	27138
821.868	26910
822.008	26678
822.149	26621
822.289	26689
822.429	26636
822.569	26473
822.709	26278
822.849	26366
822.99	26362
823.13	26240
823.27	26191
823.41	26119
823.55	25989
823.69	26092
823.83	26111
823.97	26054
824.11	25875
824.25	25883
824.389	25917
824.529	25940
824.669	25913
824.809	26081
824.949	25890
825.089	25982
825.228	25944
825.368	25951
825.508	25776
825.648	25913
825.787	25875
825.927	25769
826.067	25693
826.206	25799
826.346	25875
826.485	25795
826.625	25662
826.765	25932
826.904	25845
827.044	25510
827.183	25518
827.323	25552
827.462	25601
827.601	25533
827.741	25495
827.88	25438
828.02	25415
828.159	25483
828.298	25491
828.437	25529
828.577	25304
828.716	25582
828.855	25430
828.994	25255
829.134	25076
829.273	25335
829.412	25148
829.551	25156
829.69	25282
829.829	25168
829.968	25270
830.107	25160
830.246	25145
830.385	25168
830.524	25031
830.663	24901
830.802	24779
830.941	24806
831.08	24757
831.219	24878
831.357	24791
831.496	25004
831.635	24856
831.774	24707
831.913	24703
832.051	24544
832.19	24570
832.329	24547
832.467	24471
832.606	24323
832.744	24460
832.883	24471
833.022	24315
833.16	24464
833.299	24426
833.437	24479
833.576	24578
833.714	24445
833.852	24597
833.991	24555
834.129	24665
834.267	24604
834.406	24372
834.544	24703
834.682	24498
834.821	24502
834.959	24612
835.097	24407
835.235	24525
835.373	24407
835.511	24399
835.65	24429
835.788	24448
835.926	24152
836.064	24079
836.202	24372
836.34	24410
836.478	24467
836.615	24311
836.753	24361
836.891	24342
837.029	24334
837.167	24277
837.305	24220
837.443	24315
837.58	24152
837.718	24235
837.856	24174
837.993	23965
838.131	24125
838.269	24045
838.406	24064
838.544	24015
838.681	23775
838.819	23817
838.956	23623
839.094	23554
839.231	23554
839.369	23935
839.506	24060
839.643	23988
839.781	23649
839.918	23566
840.055	23649
840.193	23676
840.33	23512
840.467	23691
840.604	23684
840.742	23828
840.879	23410
841.016	23547
841.153	23600
841.29	23729
841.427	23581
841.564	23668
841.701	23577
841.838	23554
841.975	23356
842.112	23376
842.249	23315
842.385	23246
842.522	23608
842.659	23402
842.796	23322
842.933	23322
843.069	23326
843.206	23143
843.343	23315
843.479	23235
843.616	23353
843.752	23071
843.889	23128
844.025	23220
844.162	23056
844.298	23159
844.435	23170
844.571	22980
844.708	23193
844.844	23277
844.98	23136
845.117	23041
845.253	23003
845.389	22987
845.525	23014
845.661	22847
845.798	22763
845.934	22694
846.07	22790
846.206	22927
846.342	22889
846.478	22839
846.614	22656
846.75	22577
846.886	22611
847.022	22599
847.158	22489
847.294	22497
847.429	22637
847.565	22481
847.701	22854
847.837	22207
847.972	22147
848.108	22287
848.244	22402
848.379	22185
848.515	22185
848.65	22150
848.786	22116
848.921	22219
849.057	22234
849.192	22230
849.328	22120
849.463	22223
849.598	21987
849.734	22010
849.869	21975
850.004	21869
850.14	21949
850.275	21964
850.41	21884
850.545	21857
850.68	21797
850.815	21892
850.95	21907
851.085	22093
851.22	21922
851.355	21861
851.49	21838
851.625	21800
851.76	21903
851.895	21770
852.03	21686
852.165	21884
852.299	21846
852.434	22002
852.569	21915
852.703	22063
852.838	21949
852.973	22044
853.107	21994
853.242	21846
853.376	21861
853.511	21663
853.645	21778
853.78	21797
853.914	21789
854.048	21595
854.183	21667
854.317	21861
854.451	21873
854.585	21800
854.72	21732
854.854	21861
854.988	21583
855.122	21679
855.256	21625
855.39	21698
855.524	21755
855.658	21789
855.792	21667
855.926	21717
856.06	21835
856.194	21949
856.327	21755
856.461	21641
856.595	21523
856.729	21701
856.862	21922
856.996	21682
857.13	21720
857.263	21816
857.397	21865
857.53	21694
857.664	21732
857.797	21785
857.931	21835
858.064	21732
858.197	21823
858.331	21751
858.464	21682
858.597	21679
858.731	21682
858.864	21595
858.997	21713
859.13	21804
859.263	21751
859.396	21838
859.529	21762
859.662	21694
859.795	21610
859.928	21743
860.061	21892
860.194	21926
860.327	21774
860.46	21835
860.592	21915
860.725	21854
860.858	21797
860.99	21739
861.123	21534
861.256	21641
861.388	21819
861.521	22356
861.653	21625
861.786	21466
861.918	21519
862.05	21557
862.183	21759
862.315	21671
862.447	21739
862.58	21671
862.712	21507
862.844	21420
862.976	21660
863.108	21523
863.24	21850
863.372	21424
863.504	21466
863.636	21389
863.768	21469
863.9	21428
864.032	21348
864.164	21420
864.296	21580
864.428	21572
864.559	21530
864.691	21538
864.823	21382
864.954	21332
865.086	21408
865.217	21302
865.349	21203
865.48	21272
865.612	21249
865.743	21473
865.875	21450
866.006	21195
866.137	21291
866.269	21325
866.4	21325
866.531	21321
866.662	21211
866.793	21260
866.924	21226
867.055	21207
867.186	21272
867.317	21211
867.448	21176
867.579	21260
867.71	21112
867.841	21138
867.972	21279
868.103	21291
868.233	21211
868.364	21374
868.495	21291
868.625	21481
868.756	21637
868.886	21447
869.017	21401
869.147	21644
869.278	21614
869.408	21679
869.539	21511
869.669	21606
869.799	21610
869.929	21732
870.06	21564
870.19	21785
870.32	21747
870.45	21930
870.58	21975
870.71	22059
870.84	22067
870.97	21861
871.1	21968
871.23	22051
871.36	22082
871.489	22063
871.619	22097
871.749	22154
871.879	22265
872.008	22284
872.138	22147
872.267	22105
872.397	21991
872.526	21918
872.656	21838
872.785	21994
872.915	22070
873.044	22238
873.173	22090
873.303	22135
873.432	22166
873.561	22261
873.69	22139
873.819	22013
873.948	22185
874.077	22166
874.206	22109
874.335	22124
874.464	22268
874.593	22363
874.722	22272
874.851	22341
874.979	22386
875.108	22333
875.237	22257
875.365	22242
875.494	22257
875.623	22360
875.751	22284
875.88	22405
876.008	22493
876.136	22402
876.265	22630
876.393	22820
876.521	22824
876.65	22706
876.778	22759
876.906	22634
877.034	22634
877.162	22752
877.29	22713
877.418	22611
877.546	22592
877.674	22618
877.802	22622
877.93	22748
878.058	22626
878.185	22596
878.313	22683
878.441	22675
878.568	22432
878.696	22687
878.824	22611
878.951	22771
879.079	22782
879.206	22927
879.333	22786
879.461	22771
879.588	22885
879.715	22915
879.842	22877
879.97	22797
880.097	22546
880.224	22474
880.351	22603
880.478	22516
880.605	22485
880.732	22523
880.859	22774
880.986	22508
881.112	22516
881.239	22348
881.366	22246
881.493	22150
881.619	22086
881.746	22112
881.872	22173
881.999	22002
882.125	21979
882.252	22284
882.378	22036
882.505	22253
882.631	21972
882.757	21793
882.883	21690
883.01	21770
883.136	21766
883.262	21606
883.388	21568
883.514	21759
883.64	21739
883.766	21682
883.892	21500
884.018	21481
884.143	21644
884.269	21934
884.395	21507
884.52	21374
884.646	21294
884.772	21321
884.897	21260
885.023	21428
885.148	21397
885.274	21538
885.399	21485
885.524	21488
885.65	21416
885.775	21473
885.9	21275
886.025	21492
886.15	21298
886.275	21355
886.4	21252
886.525	21321
886.65	21283
886.775	21378
886.9	21496
887.025	21580
887.149	21237
887.274	21260
887.399	21180
887.523	21055
887.648	21096
887.773	21169
887.897	21123
888.021	21230
888.146	21127
888.27	21218
888.395	21359
888.519	21184
888.643	21161
888.767	21192
888.891	21062
889.015	21058
889.139	21001
889.263	21043
889.387	21150
889.511	21108
889.635	21119
889.759	20975
889.883	20845
890.006	20952
890.13	20990
890.254	20937
890.377	20887
890.501	20606
890.624	20815
890.748	20651
890.871	20651
890.995	20358
891.118	20518
891.241	20511
891.364	20659
891.488	20682
891.611	20674
891.734	20541
891.857	20613
891.98	20568
892.103	20438
892.226	20587
892.349	20511
892.471	20339
892.594	20278
892.717	20484
892.839	20450
892.962	20366
893.085	20503
893.207	20488
893.33	20332
893.452	20301
893.575	20503
893.697	20305
893.819	20545
893.941	20613
894.064	20651
894.186	20381
894.308	20313
894.43	20431
894.552	20552
894.674	20522
894.796	20191
894.918	20347
895.04	20313
895.161	20480
895.283	20473
895.405	20317
895.526	20328
895.648	20408
895.769	20415
895.891	20423
896.012	20533
896.134	20419
896.255	20328
896.376	20351
896.498	20450
896.619	20503
896.74	20396
896.861	20442
896.982	20743
897.103	20921
897.224	20735
897.345	20663
897.466	20571
897.587	20716
897.708	20765
897.828	20533
897.949	20625
898.07	20549
898.19	20556
898.311	20583
898.431	20629
898.552	20629
898.672	20602
898.792	20735
898.913	20674
899.033	20370
899.153	20473
899.273	20225
899.393	20343
899.513	20533
899.633	20301
899.753	20400
899.873	20271
899.993	20366
900.113	20275
900.232	20362
900.352	20412
900.472	20199
900.591	20024
900.711	20172
900.83	20115
900.95	20278
901.069	20092
901.189	20081
901.308	19727
901.427	19734
901.546	19746
901.665	19776
901.784	19780
901.904	19544
902.023	19457
902.141	19312
902.26	19270
902.379	19308
902.498	19274
902.617	19228
902.735	19369
902.854	19301
902.973	19244
903.091	18966
903.21	18951
903.328	18909
903.446	18856
903.565	18753
903.683	18783
903.801	18642
903.919	18593
904.038	18639
904.156	18570
904.274	18684
904.392	18467
904.51	18319
904.627	18582
904.745	18528
904.863	18578
904.981	18361
905.098	18270
905.216	18159
905.334	18155
905.451	18140
905.569	18201
905.686	18266
905.803	18125
905.921	17923
906.038	18022
906.155	18019
906.272	17874
906.389	17931
906.506	17832
906.623	17802
906.74	17691
906.857	17695
906.974	17672
907.091	17737
907.208	17840
907.324	17684
907.441	17615
907.557	17474
907.674	17501
907.79	17303
907.907	17505
908.023	17433
908.139	17379
908.256	17360
908.372	17360
908.488	17284
908.604	17220
908.72	17117
908.836	17174
908.952	17140
909.068	17029
909.184	17288
909.3	17136
909.415	17250
909.531	17170
909.647	16847
909.762	16828
909.878	16862
909.993	16862
910.108	16862
910.224	16862
910.339	16892
910.454	16691
910.57	16660
910.685	16580
910.8	16908
910.915	16968
911.03	16641
911.145	16546
911.259	16459
911.374	16413
911.489	16344
911.604	16261
911.718	16109
911.833	16093
911.947	16093
912.062	16059
912.176	16204
912.291	16112
912.405	16284
912.519	16360
912.633	16367
912.748	16192
912.862	16147
912.976	16017
913.09	15915
913.204	15850
913.318	16040
913.431	16139
913.545	16154
913.659	16071
913.772	15979
913.886	15797
914	15800
914.113	15888
914.226	15934
914.34	15861
914.453	15614
914.566	15781
914.68	15686
914.793	15618
914.906	15435
915.019	15401
915.132	15367
915.245	15340
915.358	15382
915.47	15374
915.583	15355
915.696	15344
915.809	15507
915.921	15545
916.034	15378
916.146	15370
916.259	15245
916.371	15405
916.483	15275
916.595	15226
916.708	15165
916.82	15287
916.932	15135
917.044	15214
917.156	15062
917.268	15062
917.38	15097
917.491	14990
917.603	15020
917.715	14994
917.826	15085
917.938	15116
918.049	14960
918.161	14883
918.272	15005
918.384	15089
918.495	14933
918.606	14788
918.717	14788
918.828	14773
918.939	14731
919.05	14781
919.161	14743
919.272	14594
919.383	14579
919.494	14765
919.604	14880
919.715	14796
919.826	14659
919.936	14762
920.047	14861
920.157	14693
920.267	14864
920.378	14792
920.488	14667
920.598	14956
920.708	14975
920.818	14902
920.928	14880
921.038	15009
921.148	14960
921.258	14678
921.368	14716
921.477	14461
921.587	14450
921.697	14362
921.806	14438
921.916	14336
922.025	14123
922.134	14103
922.244	14157
922.353	14084
922.462	13955
922.571	13917
922.68	13875
922.789	13799
922.898	13784
923.007	13769
923.116	13723
923.224	13677
923.333	13738
923.442	13563
923.55	13601
923.659	13620
923.767	13658
923.876	13616
923.984	13651
924.092	13514
924.201	13578
924.309	13518
924.417	13457
924.525	13407
924.633	13457
924.741	14366
924.849	13255
924.956	13377
925.064	13251
925.172	13160
925.279	13156
925.387	13179
925.494	13118
925.602	13259
925.709	13198
925.816	13031
925.924	13156
926.031	13240
926.138	13027
926.245	13198
926.352	12989
926.459	13149
926.566	13190
926.673	12932
926.779	12924
926.886	12890
926.993	12810
927.099	12696
927.206	12692
927.312	12677
927.419	12749
927.525	12745
927.631	12779
927.737	12635
927.843	12574
927.95	12418
928.056	12593
928.162	12536
928.267	12566
928.373	13110
928.479	12635
928.585	12376
928.69	12483
928.796	12475
928.901	12384
929.007	12247
929.112	12429
929.218	12327
929.323	12273
929.428	12281
929.533	12327
929.638	12178
929.743	12239
929.848	12232
929.953	12266
930.058	12060
930.163	11946
930.267	12015
930.372	12110
930.477	11939
930.581	12140
930.685	12034
930.79	11828
930.894	11866
930.998	11794
931.103	11984
931.207	11520
931.311	11524
931.415	11455
931.519	11265
931.623	11208
