Data from test_V78500241_403.txt Node
Date: Fri Mar 25 15:44:35 CST 2022
User: usil
Spectrometer: V785-0024
Trigger mode: 0
Integration Time (sec): 4.000000E-1
Scans to average: 1
Nonlinearity correction enabled: false
Boxcar width: 0
Storing dark spectrum: false
XAxis mode: Wavelengths
Number of Pixels in Spectrum: 1024
>>>>>Begin Spectral Data<<<<<
801.071	28683
801.214	28455
801.356	28371
801.499	28249
801.641	28310
801.783	28200
801.926	28097
802.068	28173
802.211	28048
802.353	28101
802.496	27914
802.638	27789
802.78	27732
802.923	27694
803.065	27797
803.208	27804
803.35	27762
803.492	27880
803.635	27994
803.777	27956
803.919	27892
804.061	28230
804.204	27979
804.346	27899
804.488	27854
804.63	27964
804.773	27804
804.915	28109
805.057	28013
805.199	27953
805.341	27994
805.483	28063
805.626	27903
805.768	27930
805.91	28013
806.052	28048
806.194	27983
806.336	28223
806.478	28192
806.62	28124
806.762	28032
806.904	28314
807.046	28641
807.188	28516
807.33	28451
807.472	28512
807.614	28432
807.756	28356
807.898	28386
808.04	28249
808.182	28314
808.324	28204
808.465	28284
808.607	28455
808.749	28599
808.891	28763
809.033	29006
809.174	28797
809.316	28816
809.458	28831
809.6	28869
809.741	28839
809.883	28809
810.025	28881
810.166	28885
810.308	28839
810.45	29067
810.591	28972
810.733	28767
810.875	28478
811.016	28611
811.158	28535
811.299	28649
811.441	28835
811.582	28854
811.724	28637
811.865	28630
812.007	28622
812.148	28546
812.29	28611
812.431	29033
812.573	28980
812.714	29071
812.855	29208
812.997	29406
813.138	29410
813.279	29440
813.421	29254
813.562	29003
813.703	29010
813.845	28934
813.986	28675
814.127	28535
814.268	28272
814.41	28257
814.551	28325
814.692	28413
814.833	28196
814.974	28169
815.115	28341
815.256	27956
815.397	28116
815.539	28196
815.68	28215
815.821	27968
815.962	28070
816.103	28158
816.244	27983
816.385	27873
816.526	27743
816.666	27637
816.807	27583
816.948	27606
817.089	27701
817.23	27519
817.371	27587
817.512	27519
817.653	27637
817.793	27519
817.934	27576
818.075	27397
818.216	27450
818.356	27542
818.497	27412
818.638	27374
818.778	27222
818.919	27260
819.06	27287
819.2	27412
819.341	27496
819.481	27485
819.622	27728
819.762	27846
819.903	27838
820.043	27519
820.184	27557
820.324	27469
820.465	27667
820.605	27648
820.746	27561
820.886	27363
821.026	27530
821.167	27542
821.307	27603
821.447	27481
821.588	27408
821.728	27348
821.868	26994
822.008	26948
822.149	26960
822.289	27047
822.429	26804
822.569	26587
822.709	26655
822.849	26355
822.99	26450
823.13	26298
823.27	26324
823.41	26225
823.55	26191
823.69	26343
823.83	26320
823.97	26142
824.11	26073
824.25	26024
824.389	26062
824.529	26134
824.669	26145
824.809	26092
824.949	26191
825.089	26142
825.228	26172
825.368	25856
825.508	25940
825.648	25909
825.787	25963
825.927	25993
826.067	25913
826.206	25757
826.346	25963
826.485	25966
826.625	25814
826.765	25883
826.904	25837
827.044	25662
827.183	25624
827.323	25651
827.462	25529
827.601	25601
827.741	25552
827.88	25613
828.02	25495
828.159	25529
828.298	25491
828.437	25575
828.577	25479
828.716	25616
828.855	25540
828.994	25263
829.134	25274
829.273	25297
829.412	25247
829.551	25175
829.69	25187
829.829	25240
829.968	25179
830.107	25422
830.246	25270
830.385	25179
830.524	25320
830.663	25103
830.802	24989
830.941	24871
831.08	24791
831.219	24875
831.357	24970
831.496	24958
831.635	24829
831.774	24620
831.913	24719
832.051	24658
832.19	24677
832.329	24722
832.467	24646
832.606	24460
832.744	24471
832.883	24532
833.022	24547
833.16	24471
833.299	24517
833.437	24490
833.576	24445
833.714	24536
833.852	24589
833.991	24604
834.129	24646
834.267	24544
834.406	24498
834.544	24566
834.682	24578
834.821	24574
834.959	24817
835.097	24445
835.235	24536
835.373	24479
835.511	24498
835.65	24395
835.788	24292
835.926	24133
836.064	24254
836.202	24155
836.34	24422
836.478	24380
836.615	24407
836.753	24327
836.891	24498
837.029	24323
837.167	24239
837.305	24136
837.443	24323
837.58	24197
837.718	24152
837.856	24319
837.993	24182
838.131	24087
838.269	23999
838.406	23927
838.544	23977
838.681	23817
838.819	23779
838.956	23638
839.094	23741
839.231	23573
839.369	23703
839.506	23942
839.643	23859
839.781	23528
839.918	23562
840.055	23535
840.193	23501
840.33	23623
840.467	23589
840.604	23573
840.742	23764
840.879	23395
841.016	23520
841.153	23345
841.29	23459
841.427	23417
841.564	23566
841.701	23429
841.838	23474
841.975	23410
842.112	23524
842.249	23299
842.385	23250
842.522	23410
842.659	23277
842.796	23250
842.933	23193
843.069	23269
843.206	23181
843.343	23121
843.479	23197
843.616	23162
843.752	23067
843.889	22949
844.025	23022
844.162	22991
844.298	22987
844.435	22976
844.571	22980
844.708	22915
844.844	23037
844.98	23033
845.117	23003
845.253	22790
845.389	22831
845.525	22820
845.661	22767
845.798	22694
845.934	22710
846.07	22649
846.206	22812
846.342	22774
846.478	22774
846.614	22500
846.75	22371
846.886	22413
847.022	22508
847.158	22504
847.294	22405
847.429	22512
847.565	22325
847.701	22569
847.837	22147
847.972	22211
848.108	22219
848.244	22242
848.379	21949
848.515	22112
848.65	22013
848.786	21998
848.921	21895
849.057	22116
849.192	22124
849.328	22219
849.463	22006
849.598	22067
849.734	21953
849.869	21831
850.004	21732
850.14	21857
850.275	21736
850.41	21614
850.545	21679
850.68	21656
850.815	21846
850.95	21660
851.085	21907
851.22	21766
851.355	21720
851.49	21561
851.625	21732
851.76	21701
851.895	21610
852.03	21534
852.165	21644
852.299	21831
852.434	21793
852.569	21831
852.703	21861
852.838	21842
852.973	21861
853.107	21793
853.242	21709
853.376	21511
853.511	21454
853.645	21580
853.78	21656
853.914	21663
854.048	21492
854.183	21542
854.317	21542
854.451	21724
854.585	21504
854.72	21523
854.854	21568
854.988	21424
855.122	21462
855.256	21386
855.39	21466
855.524	21496
855.658	21606
855.792	21591
855.926	21656
856.06	21720
856.194	21679
856.327	21481
856.461	21488
856.595	21405
856.729	21447
856.862	21663
856.996	21481
857.13	21591
857.263	21629
857.397	21519
857.53	21595
857.664	21526
857.797	21610
857.931	21591
858.064	21462
858.197	21705
858.331	21431
858.464	21431
858.597	21363
858.731	21473
858.864	21424
858.997	21492
859.13	21553
859.263	21500
859.396	21564
859.529	21279
859.662	21458
859.795	21428
859.928	21439
860.061	21671
860.194	21698
860.327	21492
860.46	21519
860.592	21694
860.725	21625
860.858	21629
860.99	21542
861.123	21469
861.256	21507
861.388	21458
861.521	22253
861.653	21310
861.786	21306
861.918	21317
862.05	21534
862.183	21424
862.315	21488
862.447	21595
862.58	21275
862.712	21340
862.844	21116
862.976	21218
863.108	21184
863.24	21728
863.372	21123
863.504	21176
863.636	21195
863.768	21313
863.9	21214
864.032	21161
864.164	21188
864.296	21203
864.428	21359
864.559	21173
864.691	21298
864.823	21256
864.954	21192
865.086	21173
865.217	21066
865.349	20982
865.48	21028
865.612	21020
865.743	21195
865.875	21138
866.006	20986
866.137	21032
866.269	21036
866.4	21096
866.531	21032
866.662	20857
866.793	21036
866.924	20986
867.055	21051
867.186	21085
867.317	21024
867.448	20967
867.579	20918
867.71	20982
867.841	20891
867.972	21028
868.103	21066
868.233	21013
868.364	21009
868.495	21199
868.625	21173
868.756	21256
868.886	21184
869.017	21233
869.147	21344
869.278	21344
869.408	21214
869.539	21180
869.669	21374
869.799	21291
869.929	21340
870.06	21325
870.19	21591
870.32	21488
870.45	21610
870.58	21606
870.71	21690
870.84	21800
870.97	21595
871.1	21595
871.23	21759
871.36	21808
871.489	21675
871.619	21755
871.749	21778
871.879	21861
872.008	22017
872.138	21922
872.267	21800
872.397	21606
872.526	21644
872.656	21701
872.785	21625
872.915	21838
873.044	21831
873.173	21759
873.303	21930
873.432	21934
873.561	21945
873.69	21895
873.819	21789
873.948	21979
874.077	21960
874.206	21812
874.335	21892
874.464	22097
874.593	22059
874.722	22207
874.851	22276
874.979	22017
875.108	22230
875.237	22131
875.365	22044
875.494	21994
875.623	22147
875.751	22055
875.88	22105
876.008	22181
876.136	22268
876.265	22493
876.393	22721
876.521	22451
876.65	22360
876.778	22527
876.906	22367
877.034	22436
877.162	22565
877.29	22398
877.418	22493
877.546	22367
877.674	22607
877.802	22497
877.93	22470
878.058	22451
878.185	22341
878.313	22455
878.441	22375
878.568	22284
878.696	22497
878.824	22402
878.951	22459
879.079	22615
879.206	22653
879.333	22569
879.461	22489
879.588	22592
879.715	22599
879.842	22645
879.97	22542
880.097	22234
880.224	22265
880.351	22272
880.478	22268
880.605	22143
880.732	22196
880.859	22375
880.986	22192
881.112	22177
881.239	22150
881.366	21941
881.493	21835
881.619	21934
881.746	21918
881.872	21880
881.999	21789
882.125	21759
882.252	21770
882.378	21816
882.505	21987
882.631	21751
882.757	21561
882.883	21633
883.01	21530
883.136	21435
883.262	21397
883.388	21386
883.514	21568
883.64	21515
883.766	21443
883.892	21382
884.018	21272
884.143	21450
884.269	21587
884.395	21245
884.52	21199
884.646	21199
884.772	21268
884.897	21089
885.023	21184
885.148	21176
885.274	21317
885.399	21214
885.524	21161
885.65	21211
885.775	21195
885.9	21108
886.025	21230
886.15	21260
886.275	21066
886.4	21146
886.525	21081
886.65	21051
886.775	21142
886.9	21321
887.025	21310
887.149	21081
887.274	20933
887.399	20998
887.523	20994
887.648	20960
887.773	20857
887.897	20986
888.021	20952
888.146	20956
888.27	21020
888.395	20956
888.519	20963
888.643	20899
888.767	21009
888.891	20876
889.015	20743
889.139	20796
889.263	20678
889.387	20788
889.511	20891
889.635	20902
889.759	20781
889.883	20598
890.006	20750
890.13	20830
890.254	20613
890.377	20541
890.501	20317
890.624	20454
890.748	20541
890.871	20347
890.995	20358
891.118	20336
891.241	20389
891.364	20180
891.488	20389
891.611	20244
891.734	20225
891.857	20313
891.98	20362
892.103	20492
892.226	20202
892.349	20149
892.471	20142
892.594	20248
892.717	20294
892.839	20225
892.962	20248
893.085	20286
893.207	20214
893.33	20012
893.452	20008
893.575	20199
893.697	20138
893.819	20263
893.941	20320
894.064	20389
894.186	20092
894.308	20126
894.43	20355
894.552	20290
894.674	20301
894.796	20107
894.918	20164
895.04	20202
895.161	20225
895.283	20271
895.405	20145
895.526	20183
895.648	20256
895.769	20214
895.891	20199
896.012	20256
896.134	20145
896.255	20355
896.376	20180
896.498	20221
896.619	20248
896.74	20294
896.861	20275
896.982	20663
897.103	20518
897.224	20568
897.345	20465
897.466	20332
897.587	20362
897.708	20454
897.828	20396
897.949	20358
898.07	20275
898.19	20454
898.311	20495
898.431	20423
898.552	20400
898.672	20499
898.792	20484
898.913	20396
899.033	20275
899.153	20252
899.273	20153
899.393	20164
899.513	20240
899.633	20157
899.753	20180
899.873	20016
899.993	20130
900.113	20142
900.232	20134
900.352	20100
900.472	19909
900.591	19894
900.711	19974
900.83	19890
900.95	20020
901.069	20100
901.189	19936
901.308	19757
901.427	19575
901.546	19457
901.665	19628
901.784	19571
901.904	19438
902.023	19297
902.141	19164
902.26	19012
902.379	19095
902.498	19046
902.617	19065
902.735	19099
902.854	19019
902.973	18977
903.091	18707
903.21	18673
903.328	18696
903.446	18589
903.565	18502
903.683	18574
903.801	18319
903.919	18502
904.038	18365
904.156	18323
904.274	18300
904.392	18148
904.51	18296
904.627	18209
904.745	18209
904.863	18292
904.981	18079
905.098	17859
905.216	17866
905.334	17980
905.451	17999
905.569	17851
905.686	17885
905.803	17889
905.921	17722
906.038	17760
906.155	17680
906.272	17657
906.389	17592
906.506	17459
906.623	17414
906.74	17433
906.857	17280
906.974	17353
907.091	17364
907.208	17570
907.324	17406
907.441	17356
907.557	17239
907.674	17113
907.79	17052
907.907	17086
908.023	17178
908.139	17052
908.256	17124
908.372	16984
908.488	17010
908.604	16949
908.72	16866
908.836	16820
908.952	16900
909.068	16843
909.184	16987
909.3	16835
909.415	16774
909.531	16736
909.647	16618
909.762	16554
909.878	16531
909.993	16519
910.108	16470
910.224	16451
910.339	16455
910.454	16417
910.57	16215
910.685	16280
910.8	16497
910.915	16451
911.03	16291
911.145	16192
911.259	16196
911.374	16116
911.489	16040
911.604	15918
911.718	15930
911.833	15960
911.947	15899
912.062	15732
912.176	15922
912.291	15895
912.405	15835
912.519	16025
912.633	16055
912.748	15876
912.862	15838
912.976	15675
913.09	15549
913.204	15660
913.318	15618
913.431	15762
913.545	15800
913.659	15781
913.772	15633
913.886	15462
914	15393
914.113	15549
914.226	15488
914.34	15614
914.453	15367
914.566	15622
914.68	15405
914.793	15363
914.906	15169
915.019	15066
915.132	14986
915.245	15184
915.358	15100
915.47	15100
915.583	14982
915.696	15169
915.809	15188
915.921	15260
916.034	15074
916.146	15032
916.259	14960
916.371	15043
916.483	14956
916.595	14887
916.708	14933
916.82	14921
916.932	14880
917.044	14849
917.156	14845
917.268	14724
917.38	14823
917.491	14678
917.603	14735
917.715	14712
917.826	14765
917.938	14617
918.049	14522
918.161	14651
918.272	14823
918.384	14739
918.495	14815
918.606	14590
918.717	14530
918.828	14541
918.939	14438
919.05	14484
919.161	14438
919.272	14286
919.383	14374
919.494	14454
919.604	14632
919.715	14393
919.826	14412
919.936	14488
920.047	14473
920.157	14480
920.267	14667
920.378	14488
920.488	14362
920.598	14598
920.708	14864
920.818	14613
920.928	14575
921.038	14746
921.148	14583
921.258	14465
921.368	14271
921.477	14164
921.587	14142
921.697	14050
921.806	14149
921.916	14012
922.025	13814
922.134	13864
922.244	13841
922.353	13898
922.462	13761
922.571	13620
922.68	13476
922.789	13377
922.898	13472
923.007	13506
923.116	13514
923.224	13464
923.333	13548
923.442	13343
923.55	13304
923.659	13263
923.767	13369
923.876	13209
923.984	13263
924.092	13149
924.201	13259
924.309	13137
924.417	13175
924.525	13118
924.633	13069
924.741	13955
924.849	12935
924.956	13057
925.064	12958
925.172	12764
925.279	12920
925.387	12840
925.494	12867
925.602	12973
925.709	12985
925.816	12795
925.924	12806
926.031	12821
926.138	12833
926.245	12844
926.352	12734
926.459	12837
926.566	12882
926.673	12703
926.779	12608
926.886	12623
926.993	12528
927.099	12509
927.206	12304
927.312	12410
927.419	12502
927.525	12388
927.631	12429
927.737	12380
927.843	12285
927.95	12186
928.056	12281
928.162	12216
928.267	12346
928.373	13046
928.479	12403
928.585	12117
928.69	12239
928.796	12254
928.901	12136
929.007	11965
929.112	12224
929.218	12140
929.323	12049
929.428	11961
929.533	12194
929.638	11874
929.743	11969
929.848	12098
929.953	11916
930.058	11794
930.163	11688
930.267	11638
930.372	11714
930.477	11558
930.581	11958
930.685	11756
930.79	11558
930.894	11592
930.998	11577
931.103	11611
931.207	11391
931.311	11235
931.415	11181
931.519	10938
931.623	10927
