Data from test_V78500241_94.txt Node
Date: Fri Mar 25 15:42:27 CST 2022
User: usil
Spectrometer: V785-0024
Trigger mode: 0
Integration Time (sec): 4.000000E-1
Scans to average: 1
Nonlinearity correction enabled: false
Boxcar width: 0
Storing dark spectrum: false
XAxis mode: Wavelengths
Number of Pixels in Spectrum: 1024
>>>>>Begin Spectral Data<<<<<
801.071	29516
801.214	29372
801.356	29200
801.499	29056
801.641	28942
801.783	28911
801.926	29006
802.068	28888
802.211	28915
802.353	28847
802.496	28565
802.638	28573
802.78	28497
802.923	28573
803.065	28664
803.208	28618
803.35	28535
803.492	28740
803.635	28839
803.777	28588
803.919	28603
804.061	29151
804.204	28729
804.346	28683
804.488	28577
804.63	28672
804.773	28542
804.915	28607
805.057	28793
805.199	28641
805.341	28694
805.483	28831
805.626	28653
805.768	28596
805.91	28721
806.052	28672
806.194	28752
806.336	28961
806.478	28896
806.62	28672
806.762	28881
806.904	29041
807.046	29250
807.188	29227
807.33	29155
807.472	29269
807.614	29041
807.756	29060
807.898	29033
808.04	28938
808.182	28908
808.324	29140
808.465	28968
808.607	29147
808.749	29200
808.891	29387
809.033	29414
809.174	29433
809.316	29345
809.458	29444
809.6	29337
809.741	29197
809.883	29326
810.025	29539
810.166	29566
810.308	29585
810.45	29535
810.591	29471
810.733	29356
810.875	29212
811.016	29162
811.158	29132
811.299	29433
811.441	29490
811.582	29417
811.724	29212
811.865	29227
812.007	29345
812.148	29223
812.29	29398
812.431	29509
812.573	29547
812.714	29573
812.855	29653
812.997	29748
813.138	30018
813.279	29817
813.421	29760
813.562	29714
813.703	29646
813.845	29296
813.986	29128
814.127	28991
814.268	28877
814.41	28877
814.551	28869
814.692	28938
814.833	28736
814.974	28881
815.115	28862
815.256	28645
815.397	28622
815.539	28607
815.68	28584
815.821	28485
815.962	28592
816.103	28588
816.244	28497
816.385	28253
816.526	28352
816.666	28139
816.807	28021
816.948	28059
817.089	28150
817.23	28017
817.371	28025
817.512	28086
817.653	27934
817.793	27892
817.934	27911
818.075	27987
818.216	27812
818.356	27907
818.497	27888
818.638	27743
818.778	27698
818.919	27545
819.06	27747
819.2	27797
819.341	27850
819.481	27918
819.622	27949
819.762	28090
819.903	28029
820.043	27945
820.184	28040
820.324	27880
820.465	27991
820.605	27960
820.746	27945
820.886	27808
821.026	27994
821.167	27987
821.307	27956
821.447	27857
821.588	27637
821.728	27557
821.868	27412
822.008	27241
822.149	27256
822.289	27291
822.429	27047
822.569	26933
822.709	26956
822.849	26735
822.99	26842
823.13	26727
823.27	26712
823.41	26450
823.55	26450
823.69	26598
823.83	26541
823.97	26651
824.11	26389
824.25	26237
824.389	26336
824.529	26442
824.669	26309
824.809	26320
824.949	26427
825.089	26347
825.228	26370
825.368	26062
825.508	26084
825.648	26317
825.787	26172
825.927	26168
826.067	26195
826.206	26145
826.346	26191
826.485	26278
826.625	26138
826.765	26237
826.904	26092
827.044	25822
827.183	25784
827.323	25723
827.462	25761
827.601	25818
827.741	25746
827.88	25776
828.02	25643
828.159	25655
828.298	25852
828.437	25830
828.577	25620
828.716	25906
828.855	25616
828.994	25525
829.134	25510
829.273	25411
829.412	25464
829.551	25377
829.69	25464
829.829	25426
829.968	25529
830.107	25510
830.246	25415
830.385	25354
830.524	25327
830.663	25145
830.802	25046
830.941	25034
831.08	24996
831.219	25126
831.357	24913
831.496	25198
831.635	25015
831.774	24783
831.913	24890
832.051	24795
832.19	24749
832.329	24745
832.467	24734
832.606	24585
832.744	24547
832.883	24608
833.022	24555
833.16	24566
833.299	24536
833.437	24650
833.576	24597
833.714	24654
833.852	24555
833.991	24715
834.129	24677
834.267	24639
834.406	24589
834.544	24547
834.682	24612
834.821	24509
834.959	24528
835.097	24441
835.235	24673
835.373	24673
835.511	24475
835.65	24308
835.788	24357
835.926	24197
836.064	24194
836.202	24235
836.34	24342
836.478	24429
836.615	24391
836.753	24323
836.891	24426
837.029	24296
837.167	24346
837.305	24213
837.443	24224
837.58	24209
837.718	24296
837.856	24182
837.993	24220
838.131	24174
838.269	24155
838.406	24186
838.544	24045
838.681	23912
838.819	23745
838.956	23623
839.094	23680
839.231	23737
839.369	23771
839.506	23988
839.643	23843
839.781	23680
839.918	23604
840.055	23493
840.193	23547
840.33	23436
840.467	23562
840.604	23699
840.742	23832
840.879	23322
841.016	23356
841.153	23440
841.29	23554
841.427	23509
841.564	23448
841.701	23455
841.838	23436
841.975	23455
842.112	23334
842.249	23147
842.385	23242
842.522	23376
842.659	23349
842.796	23143
842.933	23155
843.069	23250
843.206	23079
843.343	23315
843.479	23048
843.616	23223
843.752	22915
843.889	22866
844.025	23067
844.162	22930
844.298	22915
844.435	22862
844.571	22812
844.708	22934
844.844	23044
844.98	22976
845.117	22957
845.253	22752
845.389	22698
845.525	22748
845.661	22805
845.798	22569
845.934	22573
846.07	22649
846.206	22584
846.342	22660
846.478	22538
846.614	22443
846.75	22322
846.886	22272
847.022	22497
847.158	22405
847.294	22344
847.429	22367
847.565	22333
847.701	22485
847.837	21960
847.972	22048
848.108	22268
848.244	22105
848.379	21953
848.515	21895
848.65	21850
848.786	21888
848.921	21937
849.057	21968
849.192	22044
849.328	21899
849.463	21918
849.598	21755
849.734	21705
849.869	21686
850.004	21568
850.14	21644
850.275	21694
850.41	21561
850.545	21507
850.68	21629
850.815	21701
850.95	21526
851.085	21766
851.22	21637
851.355	21637
851.49	21606
851.625	21473
851.76	21583
851.895	21428
852.03	21462
852.165	21504
852.299	21648
852.434	21622
852.569	21629
852.703	21534
852.838	21637
852.973	21663
853.107	21667
853.242	21553
853.376	21344
853.511	21245
853.645	21416
853.78	21545
853.914	21408
854.048	21500
854.183	21397
854.317	21416
854.451	21538
854.585	21351
854.72	21355
854.854	21424
854.988	21332
855.122	21378
855.256	21169
855.39	21428
855.524	21496
855.658	21504
855.792	21336
855.926	21336
856.06	21496
856.194	21428
856.327	21431
856.461	21291
856.595	21226
856.729	21363
856.862	21393
856.996	21374
857.13	21458
857.263	21462
857.397	21519
857.53	21363
857.664	21272
857.797	21466
857.931	21511
858.064	21275
858.197	21526
858.331	21344
858.464	21374
858.597	21275
858.731	21439
858.864	21272
858.997	21378
859.13	21344
859.263	21249
859.396	21363
859.529	21260
859.662	21192
859.795	21165
859.928	21256
860.061	21424
860.194	21485
860.327	21302
860.46	21218
860.592	21401
860.725	21412
860.858	21378
860.99	21298
861.123	21123
861.256	21119
861.388	21264
861.521	21774
861.653	21203
861.786	21043
861.918	21222
862.05	21173
862.183	21279
862.315	21344
862.447	21389
862.58	21329
862.712	21085
862.844	21146
862.976	21165
863.108	20933
863.24	21317
863.372	20948
863.504	21020
863.636	21005
863.768	21089
863.9	20967
864.032	20876
864.164	20838
864.296	21081
864.428	21074
864.559	21085
864.691	21138
864.823	20990
864.954	20933
865.086	20971
865.217	20963
865.349	20853
865.48	20857
865.612	20876
865.743	21001
865.875	20929
866.006	20762
866.137	20910
866.269	20929
866.4	20944
866.531	20819
866.662	20800
866.793	20807
866.924	20754
867.055	20727
867.186	20796
867.317	20735
867.448	20720
867.579	20701
867.71	20712
867.841	20674
867.972	20861
868.103	20731
868.233	20807
868.364	20792
868.495	20944
868.625	21142
868.756	21085
868.886	20937
869.017	21013
869.147	21161
869.278	21135
869.408	21032
869.539	20937
869.669	21020
869.799	20963
869.929	21233
870.06	21100
870.19	21367
870.32	21344
870.45	21351
870.58	21378
870.71	21431
870.84	21507
870.97	21435
871.1	21389
871.23	21591
871.36	21530
871.489	21492
871.619	21511
871.749	21682
871.879	21671
872.008	21732
872.138	21542
872.267	21629
872.397	21492
872.526	21325
872.656	21378
872.785	21348
872.915	21660
873.044	21633
873.173	21656
873.303	21614
873.432	21568
873.561	21831
873.69	21770
873.819	21591
873.948	21705
874.077	21667
874.206	21557
874.335	21553
874.464	21797
874.593	21941
874.722	21911
874.851	21994
874.979	21941
875.108	21941
875.237	21819
875.365	21857
875.494	21869
875.623	21854
875.751	21861
875.88	21888
876.008	22093
876.136	22067
876.265	22394
876.393	22592
876.521	22344
876.65	22348
876.778	22181
876.906	22280
877.034	22181
877.162	22337
877.29	22093
877.418	22215
877.546	22188
877.674	22226
877.802	22097
877.93	22200
878.058	22154
878.185	22120
878.313	22192
878.441	22207
878.568	22109
878.696	21987
878.824	22310
878.951	22287
879.079	22356
879.206	22489
879.333	22306
879.461	22310
879.588	22421
879.715	22398
879.842	22485
879.97	22272
880.097	22029
880.224	21907
880.351	21998
880.478	22101
880.605	21998
880.732	22010
880.859	22242
880.986	22067
881.112	22025
881.239	21930
881.366	21774
881.493	21667
881.619	21694
881.746	21690
881.872	21641
881.999	21606
882.125	21762
882.252	21713
882.378	21618
882.505	21732
882.631	21523
882.757	21268
882.883	21370
883.01	21443
883.136	21340
883.262	21195
883.388	21184
883.514	21336
883.64	21321
883.766	21264
883.892	21093
884.018	21131
884.143	21279
884.269	21351
884.395	21150
884.52	20998
884.646	21043
884.772	20994
884.897	20864
885.023	20994
885.148	21093
885.274	21135
885.399	21116
885.524	20929
885.65	20975
885.775	21009
885.9	20876
886.025	21066
886.15	21001
886.275	21028
886.4	20971
886.525	20975
886.65	20948
886.775	20899
886.9	20994
887.025	21230
887.149	20864
887.274	20758
887.399	20746
887.523	20773
887.648	20644
887.773	20667
887.897	20788
888.021	20792
888.146	20644
888.27	20727
888.395	20819
888.519	20796
888.643	20785
888.767	20758
888.891	20750
889.015	20526
889.139	20549
889.263	20469
889.387	20667
889.511	20686
889.635	20659
889.759	20499
889.883	20454
890.006	20537
890.13	20522
890.254	20408
890.377	20438
890.501	20229
890.624	20336
890.748	20320
890.871	20081
890.995	20214
891.118	20062
891.241	20187
891.364	20081
891.488	20134
891.611	20027
891.734	20153
891.857	20172
891.98	20020
892.103	20161
892.226	20229
892.349	20016
892.471	19925
892.594	20050
892.717	20054
892.839	19963
892.962	20012
893.085	20054
893.207	19940
893.33	19894
893.452	19894
893.575	20008
893.697	19944
893.819	20138
893.941	20183
894.064	20065
894.186	19940
894.308	19913
894.43	20069
894.552	20107
894.674	20088
894.796	19887
894.918	19963
895.04	19909
895.161	20020
895.283	20115
895.405	19940
895.526	19997
895.648	19940
895.769	20084
895.891	19989
896.012	20001
896.134	20138
896.255	20153
896.376	20005
896.498	20092
896.619	20073
896.74	20111
896.861	20054
896.982	20408
897.103	20564
897.224	20366
897.345	20191
897.466	20259
897.587	20149
897.708	20396
897.828	20275
897.949	20180
898.07	19997
898.19	20126
898.311	20301
898.431	20157
898.552	20229
898.672	20244
898.792	20256
898.913	20199
899.033	19963
899.153	20043
899.273	19887
899.393	19799
899.513	19928
899.633	19818
899.753	19898
899.873	19932
899.993	19970
900.113	19734
900.232	19868
900.352	19871
900.472	19822
900.591	19624
900.711	19734
900.83	19693
900.95	19887
901.069	19837
901.189	19628
901.308	19472
901.427	19339
901.546	19293
901.665	19358
901.784	19247
901.904	19171
902.023	19015
902.141	18852
902.26	18852
902.379	18951
902.498	18878
902.617	18753
902.735	18772
902.854	18867
902.973	18730
903.091	18517
903.21	18525
903.328	18372
903.446	18388
903.565	18315
903.683	18273
903.801	18091
903.919	18235
904.038	18182
904.156	18106
904.274	18133
904.392	18114
904.51	18057
904.627	17984
904.745	18057
904.863	18114
904.981	17836
905.098	17703
905.216	17691
905.334	17756
905.451	17680
905.569	17649
905.686	17684
905.803	17615
905.921	17471
906.038	17551
906.155	17509
906.272	17398
906.389	17512
906.506	17155
906.623	17227
906.74	17159
906.857	17083
906.974	17086
907.091	17239
907.208	17288
907.324	17246
907.441	17143
907.557	17105
907.674	16968
907.79	16774
907.907	16835
908.023	16862
908.139	16744
908.256	16759
908.372	16755
908.488	16694
908.604	16622
908.72	16489
908.836	16508
908.952	16538
909.068	16538
909.184	16615
909.3	16584
909.415	16554
909.531	16466
909.647	16295
909.762	16207
909.878	16242
909.993	16261
910.108	16230
910.224	16063
910.339	16272
910.454	16147
910.57	16059
910.685	16010
910.8	16268
910.915	16242
911.03	16071
911.145	15865
911.259	15861
911.374	15728
911.489	15739
911.604	15739
911.718	15637
911.833	15671
911.947	15542
912.062	15405
912.176	15629
912.291	15599
912.405	15545
912.519	15774
912.633	15831
912.748	15587
912.862	15538
912.976	15408
913.09	15233
913.204	15397
913.318	15386
913.431	15469
913.545	15462
913.659	15431
913.772	15378
913.886	15298
914	15047
914.113	15233
914.226	15294
914.34	15241
914.453	15081
914.566	15146
914.68	15169
914.793	15062
914.906	14876
915.019	14762
915.132	14777
915.245	14712
915.358	14781
915.47	14807
915.583	14811
915.696	14899
915.809	14929
915.921	15009
916.034	14727
916.146	14746
916.259	14613
916.371	14705
916.483	14811
916.595	14648
916.708	14621
916.82	14670
916.932	14602
917.044	14625
917.156	14545
917.268	14530
917.38	14522
917.491	14484
917.603	14404
917.715	14613
917.826	14484
917.938	14427
918.049	14252
918.161	14465
918.272	14606
918.384	14514
918.495	14358
918.606	14305
918.717	14259
918.828	14256
918.939	14309
919.05	14256
919.161	14206
919.272	14134
919.383	14081
919.494	14309
919.604	14423
919.715	14256
919.826	14100
919.936	14176
920.047	14221
920.157	14202
920.267	14290
920.378	14229
920.488	14119
920.598	14252
920.708	14476
920.818	14362
920.928	14320
921.038	14480
921.148	14495
921.258	14126
921.368	14012
921.477	13947
921.587	13879
921.697	13868
921.806	13974
921.916	13715
922.025	13636
922.134	13529
922.244	13510
922.353	13559
922.462	13464
922.571	13377
922.68	13244
922.789	13187
922.898	13282
923.007	13206
923.116	13225
923.224	13129
923.333	13149
923.442	13107
923.55	13084
923.659	12981
923.767	13050
923.876	12985
923.984	13072
924.092	12848
924.201	12916
924.309	12939
924.417	13027
924.525	12897
924.633	12916
924.741	13674
924.849	12711
924.956	12753
925.064	12734
925.172	12585
925.279	12639
925.387	12536
925.494	12665
925.602	12810
925.709	12642
925.816	12547
925.924	12582
926.031	12673
926.138	12612
926.245	12612
926.352	12490
926.459	12631
926.566	12665
926.673	12563
926.779	12429
926.886	12350
926.993	12243
927.099	12239
927.206	12159
927.312	12239
927.419	12247
927.525	12258
927.631	12334
927.737	12072
927.843	12026
927.95	11946
928.056	12053
928.162	12060
928.267	12049
928.373	12734
928.479	12079
928.585	11874
928.69	11996
928.796	11977
928.901	11916
929.007	11824
929.112	11813
929.218	11828
929.323	11840
929.428	11710
929.533	11977
929.638	11653
929.743	11642
929.848	11752
929.953	11710
930.058	11570
930.163	11448
930.267	11444
930.372	11665
930.477	11459
930.581	11585
930.685	11505
930.79	11296
930.894	11364
930.998	11242
931.103	11448
931.207	11109
931.311	10953
931.415	10942
931.519	10812
931.623	10672
