Data from test_V78500241_3661.txt Node
Date: Fri Mar 25 16:07:09 CST 2022
User: usil
Spectrometer: V785-0024
Trigger mode: 0
Integration Time (sec): 4.000000E-1
Scans to average: 1
Nonlinearity correction enabled: false
Boxcar width: 0
Storing dark spectrum: false
XAxis mode: Wavelengths
Number of Pixels in Spectrum: 1024
>>>>>Begin Spectral Data<<<<<
801.071	28592
801.214	28531
801.356	28344
801.499	28337
801.641	28158
801.783	28249
801.926	28188
802.068	28268
802.211	28090
802.353	28150
802.496	27979
802.638	27888
802.78	27728
802.923	27819
803.065	27808
803.208	27869
803.35	27888
803.492	28006
803.635	28150
803.777	27903
803.919	28116
804.061	28299
804.204	28253
804.346	28067
804.488	28048
804.63	28135
804.773	28078
804.915	28284
805.057	28306
805.199	28192
805.341	28112
805.483	28242
805.626	28356
805.768	28253
805.91	28257
806.052	28147
806.194	28230
806.336	28379
806.478	28333
806.62	28257
806.762	28409
806.904	28603
807.046	28908
807.188	28721
807.33	28679
807.472	28771
807.614	28713
807.756	28603
807.898	28573
808.04	28443
808.182	28561
808.324	28493
808.465	28634
808.607	28782
808.749	28946
808.891	29010
809.033	29056
809.174	29124
809.316	29052
809.458	28946
809.6	28904
809.741	28927
809.883	29147
810.025	29273
810.166	29174
810.308	29170
810.45	29181
810.591	29159
810.733	29117
810.875	28987
811.016	28934
811.158	28877
811.299	29140
811.441	29216
811.582	29181
811.724	29109
811.865	28892
812.007	28949
812.148	28828
812.29	29060
812.431	29223
812.573	29303
812.714	29455
812.855	29501
812.997	29756
813.138	29668
813.279	29756
813.421	29577
813.562	29474
813.703	29288
813.845	29269
813.986	28957
814.127	28812
814.268	28683
814.41	28656
814.551	28717
814.692	28694
814.833	28767
814.974	28691
815.115	28759
815.256	28531
815.397	28451
815.539	28588
815.68	28478
815.821	28344
815.962	28474
816.103	28618
816.244	28348
816.385	28177
816.526	28337
816.666	28090
816.807	27991
816.948	28128
817.089	28090
817.23	27941
817.371	28051
817.512	27876
817.653	27956
817.793	27972
817.934	27979
818.075	27979
818.216	27972
818.356	28048
818.497	27914
818.638	27663
818.778	27854
818.919	27701
819.06	27835
819.2	27888
819.341	27884
819.481	27998
819.622	28192
819.762	28314
819.903	28337
820.043	28109
820.184	28040
820.324	28185
820.465	28246
820.605	28219
820.746	28097
820.886	27972
821.026	28032
821.167	28067
821.307	28116
821.447	27945
821.588	27911
821.728	27812
821.868	27682
822.008	27481
822.149	27576
822.289	27443
822.429	27272
822.569	27112
822.709	27218
822.849	26937
822.99	27093
823.13	26933
823.27	26864
823.41	26849
823.55	26674
823.69	26891
823.83	26815
823.97	26682
824.11	26655
824.25	26648
824.389	26568
824.529	26826
824.669	26659
824.809	26590
824.949	26800
825.089	26712
825.228	26575
825.368	26617
825.508	26492
825.648	26571
825.787	26442
825.927	26648
826.067	26461
826.206	26571
826.346	26434
826.485	26514
826.625	26537
826.765	26617
826.904	26590
827.044	26267
827.183	26343
827.323	26256
827.462	26210
827.601	26320
827.741	26130
827.88	26187
828.02	26100
828.159	26206
828.298	26107
828.437	26305
828.577	26229
828.716	26256
828.855	26233
828.994	25917
829.134	25890
829.273	26020
829.412	25875
829.551	25951
829.69	25822
829.829	26001
829.968	25936
830.107	25982
830.246	25700
830.385	25890
830.524	25811
830.663	25639
830.802	25674
830.941	25582
831.08	25487
831.219	25590
831.357	25696
831.496	25784
831.635	25544
831.774	25502
831.913	25434
832.051	25285
832.19	25354
832.329	25362
832.467	25202
832.606	25160
832.744	25221
832.883	25187
833.022	25179
833.16	25225
833.299	25396
833.437	25213
833.576	25331
833.714	25297
833.852	25301
833.991	25373
834.129	25369
834.267	25282
834.406	25259
834.544	25324
834.682	25236
834.821	25232
834.959	25441
835.097	25183
835.235	25346
835.373	25331
835.511	25057
835.65	25072
835.788	25099
835.926	24992
836.064	24939
836.202	24878
836.34	25118
836.478	25076
836.615	25000
836.753	25133
836.891	25156
837.029	25171
837.167	25019
837.305	24970
837.443	24871
837.58	24939
837.718	25034
837.856	25012
837.993	24833
838.131	24909
838.269	24810
838.406	24970
838.544	24608
838.681	24673
838.819	24711
838.956	24441
839.094	24509
839.231	24353
839.369	24642
839.506	24703
839.643	24692
839.781	24361
839.918	24323
840.055	24311
840.193	24304
840.33	24308
840.467	24292
840.604	24407
840.742	24661
840.879	24136
841.016	24285
841.153	24155
841.29	24353
841.427	24296
841.564	24296
841.701	24216
841.838	24350
841.975	24243
842.112	24155
842.249	24117
842.385	24026
842.522	24350
842.659	24079
842.796	23980
842.933	24102
843.069	24015
843.206	24155
843.343	24304
843.479	24007
843.616	23946
843.752	23748
843.889	23973
844.025	23988
844.162	23790
844.298	23775
844.435	23908
844.571	23828
844.708	23756
844.844	23916
844.98	24015
845.117	24087
845.253	23939
845.389	23668
845.525	23733
845.661	23684
845.798	23551
845.934	23554
846.07	23528
846.206	23608
846.342	23608
846.478	23505
846.614	23322
846.75	23204
846.886	23315
847.022	23345
847.158	23292
847.294	23220
847.429	23353
847.565	23288
847.701	23505
847.837	23006
847.972	22980
848.108	23083
848.244	23174
848.379	22949
848.515	22847
848.65	22892
848.786	22930
848.921	22999
849.057	22980
849.192	22942
849.328	22915
849.463	22946
849.598	22839
849.734	22679
849.869	22782
850.004	22645
850.14	22660
850.275	22618
850.41	22577
850.545	22637
850.68	22675
850.815	22573
850.95	22664
851.085	22717
851.22	22793
851.355	22634
851.49	22611
851.625	22687
851.76	22577
851.895	22607
852.03	22527
852.165	22519
852.299	22778
852.434	22767
852.569	22725
852.703	22649
852.838	22763
852.973	22843
853.107	22778
853.242	22622
853.376	22451
853.511	22287
853.645	22371
853.78	22557
853.914	22363
854.048	22424
854.183	22352
854.317	22417
854.451	22687
854.585	22478
854.72	22466
854.854	22550
854.988	22451
855.122	22550
855.256	22322
855.39	22519
855.524	22569
855.658	22462
855.792	22455
855.926	22382
856.06	22497
856.194	22561
856.327	22409
856.461	22276
856.595	22474
856.729	22405
856.862	22561
856.996	22428
857.13	22527
857.263	22497
857.397	22694
857.53	22386
857.664	22641
857.797	22615
857.931	22550
858.064	22592
858.197	22557
858.331	22542
858.464	22466
858.597	22424
858.731	22493
858.864	22443
858.997	22485
859.13	22512
859.263	22516
859.396	22615
859.529	22478
859.662	22382
859.795	22325
859.928	22478
860.061	22611
860.194	22637
860.327	22573
860.46	22565
860.592	22622
860.725	22653
860.858	22637
860.99	22497
861.123	22360
861.256	22478
861.388	22371
861.521	23258
861.653	22295
861.786	22249
861.918	22390
862.05	22356
862.183	22344
862.315	22417
862.447	22440
862.58	22500
862.712	22211
862.844	22097
862.976	22299
863.108	22257
863.24	22565
863.372	22090
863.504	22166
863.636	22246
863.768	22253
863.9	22196
864.032	22082
864.164	22314
864.296	22200
864.428	22402
864.559	22158
864.691	22223
864.823	22181
864.954	22154
865.086	22112
865.217	22010
865.349	21975
865.48	22101
865.612	21960
865.743	22234
865.875	22036
866.006	22109
866.137	22055
866.269	21949
866.4	22120
866.531	21918
866.662	21907
866.793	22025
866.924	21987
867.055	22131
867.186	22025
867.317	21911
867.448	21857
867.579	21937
867.71	21953
867.841	21922
867.972	21987
868.103	21949
868.233	21911
868.364	21960
868.495	22082
868.625	22154
868.756	22314
868.886	22101
869.017	22150
869.147	22253
869.278	22455
869.408	22181
869.539	22223
869.669	22280
869.799	22314
869.929	22459
870.06	22382
870.19	22630
870.32	22459
870.45	22603
870.58	22538
870.71	22645
870.84	22725
870.97	22672
871.1	22763
871.23	22767
871.36	22793
871.489	22725
871.619	22786
871.749	22828
871.879	22881
872.008	23041
872.138	22721
872.267	22927
872.397	22752
872.526	22656
872.656	22767
872.785	22816
872.915	22999
873.044	22911
873.173	22934
873.303	22889
873.432	22991
873.561	22930
873.69	22850
873.819	22824
873.948	22873
874.077	22786
874.206	22831
874.335	22877
874.464	22923
874.593	23041
874.722	23250
874.851	23075
874.979	23204
875.108	23124
875.237	23155
875.365	22949
875.494	22984
875.623	23067
875.751	22881
875.88	23098
876.008	23159
876.136	23269
876.265	23277
876.393	23410
876.521	23531
876.65	23501
876.778	23364
876.906	23330
877.034	23448
877.162	23383
877.29	23311
877.418	23490
877.546	23322
877.674	23372
877.802	23410
877.93	23349
878.058	23379
878.185	23261
878.313	23433
878.441	23429
878.568	23261
878.696	23383
878.824	23486
878.951	23512
879.079	23531
879.206	23646
879.333	23501
879.461	23493
879.588	23634
879.715	23505
879.842	23573
879.97	23444
880.097	23376
880.224	23212
880.351	23322
880.478	23212
880.605	23140
880.732	23246
880.859	23444
880.986	23239
881.112	23277
881.239	23102
881.366	23079
881.493	22850
881.619	22797
881.746	22774
881.872	22774
881.999	22706
882.125	22809
882.252	22774
882.378	22729
882.505	22839
882.631	22599
882.757	22474
882.883	22603
883.01	22356
883.136	22462
883.262	22421
883.388	22261
883.514	22569
883.64	22459
883.766	22310
883.892	22238
884.018	22325
884.143	22421
884.269	22504
884.395	21998
884.52	22090
884.646	21968
884.772	21956
884.897	22002
885.023	22185
885.148	22249
885.274	22173
885.399	22219
885.524	22105
885.65	22200
885.775	22082
885.9	22093
886.025	22223
886.15	22131
886.275	22010
886.4	21987
886.525	22063
886.65	22002
886.775	22032
886.9	22051
887.025	22272
887.149	21964
887.274	21850
887.399	21812
887.523	21949
887.648	21819
887.773	21732
887.897	21895
888.021	21850
888.146	21895
888.27	21972
888.395	21934
888.519	21861
888.643	21911
888.767	21907
888.891	21743
889.015	21705
889.139	21736
889.263	21660
889.387	21865
889.511	21759
889.635	21835
889.759	21614
889.883	21652
890.006	21644
890.13	21694
890.254	21580
890.377	21587
890.501	21424
890.624	21386
890.748	21237
890.871	21344
890.995	21165
891.118	21108
891.241	21222
891.364	21321
891.488	21321
891.611	21230
891.734	21283
891.857	21203
891.98	21119
892.103	21283
892.226	21135
892.349	21131
892.471	21089
892.594	21058
892.717	20994
892.839	21138
892.962	20952
893.085	21218
893.207	21047
893.33	20967
893.452	21043
893.575	21142
893.697	21112
893.819	21165
893.941	21237
894.064	21298
894.186	21135
894.308	20982
894.43	21184
894.552	21268
894.674	21218
894.796	21051
894.918	21017
895.04	20956
895.161	21055
895.283	21157
895.405	20948
895.526	21154
895.648	21066
895.769	21036
895.891	20944
896.012	21096
896.134	21077
896.255	20971
896.376	21009
896.498	21150
896.619	21093
896.74	21096
896.861	21104
896.982	21488
897.103	21511
897.224	21294
897.345	21241
897.466	21245
897.587	21165
897.708	21313
897.828	21214
897.949	21192
898.07	21165
898.19	21279
898.311	21249
898.431	21230
898.552	21256
898.672	21298
898.792	21310
898.913	21321
899.033	21096
899.153	21150
899.273	20975
899.393	20990
899.513	21024
899.633	21013
899.753	21081
899.873	20933
899.993	20941
900.113	20815
900.232	20979
900.352	20960
900.472	20697
900.591	20659
900.711	20842
900.83	20727
900.95	20941
901.069	20811
901.189	20678
901.308	20511
901.427	20393
901.546	20336
901.665	20427
901.784	20393
901.904	20180
902.023	20073
902.141	19909
902.26	19868
902.379	19868
902.498	19845
902.617	19791
902.735	19830
902.854	19788
902.973	19811
903.091	19483
903.21	19510
903.328	19472
903.446	19438
903.565	19381
903.683	19362
903.801	19206
903.919	19304
904.038	19164
904.156	19133
904.274	19110
904.392	19027
904.51	19065
904.627	19053
904.745	19080
904.863	19000
904.981	18894
905.098	18703
905.216	18738
905.334	18760
905.451	18703
905.569	18776
905.686	18745
905.803	18654
905.921	18563
906.038	18661
906.155	18620
906.272	18384
906.389	18353
906.506	18254
906.623	18239
906.74	18289
906.857	18167
906.974	18045
907.091	18433
907.208	18273
907.324	18235
907.441	18114
907.557	18011
907.674	17885
907.79	17828
907.907	17870
908.023	17984
908.139	17980
908.256	17935
908.372	17851
908.488	17855
908.604	17756
908.72	17543
908.836	17657
908.952	17665
909.068	17691
909.184	17699
909.3	17733
909.415	17786
909.531	17676
909.647	17459
909.762	17383
909.878	17288
909.993	17429
910.108	17341
910.224	17280
910.339	17280
910.454	17223
910.57	17159
910.685	17109
910.8	17277
910.915	17288
911.03	17265
911.145	17018
911.259	16934
911.374	16831
911.489	16828
911.604	16904
911.718	16721
911.833	16698
911.947	16550
912.062	16432
912.176	16653
912.291	16713
912.405	16675
912.519	16911
912.633	16862
912.748	16687
912.862	16596
912.976	16470
913.09	16390
913.204	16561
913.318	16535
913.431	16634
913.545	16584
913.659	16554
913.772	16413
913.886	16375
914	16322
914.113	16409
914.226	16287
914.34	16249
914.453	16162
914.566	16303
914.68	16246
914.793	16147
914.906	15998
915.019	15797
915.132	15797
915.245	15823
915.358	15945
915.47	15922
915.583	15876
915.696	15895
915.809	15975
915.921	15937
916.034	15854
916.146	15911
916.259	15854
916.371	15865
916.483	15835
916.595	15663
916.708	15618
916.82	15686
916.932	15656
917.044	15572
917.156	15599
917.268	15408
917.38	15526
917.491	15435
917.603	15462
917.715	15587
917.826	15625
917.938	15443
918.049	15325
918.161	15389
918.272	15614
918.384	15587
918.495	15447
918.606	15325
918.717	15237
918.828	15260
918.939	15313
919.05	15207
919.161	15161
919.272	14979
919.383	15047
919.494	15306
919.604	15367
919.715	15214
919.826	15135
919.936	15097
920.047	15207
920.157	15081
920.267	15355
920.378	15230
920.488	15150
920.598	15294
920.708	15428
920.818	15306
920.928	15207
921.038	15447
921.148	15397
921.258	15184
921.368	15032
921.477	14838
921.587	14895
921.697	14724
921.806	14918
921.916	14750
922.025	14587
922.134	14492
922.244	14507
922.353	14632
922.462	14400
922.571	14259
922.68	14229
922.789	14206
922.898	14142
923.007	14046
923.116	14126
923.224	14206
923.333	14164
923.442	13986
923.55	13928
923.659	14020
923.767	13989
923.876	13887
923.984	14054
924.092	13921
924.201	13944
924.309	13947
924.417	13917
924.525	13788
924.633	13795
924.741	14712
924.849	13643
924.956	13757
925.064	13643
925.172	13548
925.279	13537
925.387	13575
925.494	13567
925.602	13674
925.709	13575
925.816	13396
925.924	13468
926.031	13533
926.138	13567
926.245	13483
926.352	13472
926.459	13468
926.566	13575
926.673	13373
926.779	13316
926.886	13240
926.993	13168
927.099	13088
927.206	13023
927.312	12985
927.419	13179
927.525	13084
927.631	13110
927.737	12977
927.843	12943
927.95	12939
928.056	12871
928.162	12935
928.267	12905
928.373	13567
928.479	13000
928.585	12760
928.69	12905
928.796	12878
928.901	12711
929.007	12551
929.112	12791
929.218	12741
929.323	12707
929.428	12494
929.533	12753
929.638	12540
929.743	12547
929.848	12688
929.953	12536
930.058	12452
930.163	12315
930.267	12353
930.372	12350
930.477	12251
930.581	12467
930.685	12361
930.79	12106
930.894	12243
930.998	12152
931.103	12285
931.207	11961
931.311	11805
931.415	11764
931.519	11642
931.623	11573
