Data from test_V78500241_3157.txt Node
Date: Fri Mar 25 16:03:40 CST 2022
User: usil
Spectrometer: V785-0024
Trigger mode: 0
Integration Time (sec): 4.000000E-1
Scans to average: 1
Nonlinearity correction enabled: false
Boxcar width: 0
Storing dark spectrum: false
XAxis mode: Wavelengths
Number of Pixels in Spectrum: 1024
>>>>>Begin Spectral Data<<<<<
801.071	28523
801.214	28451
801.356	28238
801.499	28158
801.641	28105
801.783	28082
801.926	28261
802.068	28314
802.211	28147
802.353	27987
802.496	27873
802.638	27770
802.78	27911
802.923	27705
803.065	27732
803.208	27705
803.35	27838
803.492	27812
803.635	28059
803.777	28017
803.919	28154
804.061	28371
804.204	28128
804.346	28017
804.488	27918
804.63	28002
804.773	27854
804.915	28090
805.057	28166
805.199	28128
805.341	28059
805.483	28348
805.626	28207
805.768	28246
805.91	28162
806.052	28192
806.194	28120
806.336	28310
806.478	28348
806.62	28230
806.762	28462
806.904	28512
807.046	28786
807.188	28660
807.33	28565
807.472	28569
807.614	28615
807.756	28577
807.898	28519
808.04	28371
808.182	28466
808.324	28740
808.465	28538
808.607	28687
808.749	28923
808.891	28991
809.033	28995
809.174	28953
809.316	28869
809.458	28881
809.6	28850
809.741	29022
809.883	28873
810.025	29299
810.166	29162
810.308	29185
810.45	29048
810.591	29060
810.733	28965
810.875	28896
811.016	28759
811.158	28869
811.299	28987
811.441	29048
811.582	29048
811.724	28965
811.865	28911
812.007	28831
812.148	28873
812.29	28968
812.431	29052
812.573	29200
812.714	29448
812.855	29452
812.997	29562
813.138	29764
813.279	29562
813.421	29463
813.562	29391
813.703	29379
813.845	29090
813.986	28866
814.127	28618
814.268	28641
814.41	28527
814.551	28519
814.692	28634
814.833	28512
814.974	28584
815.115	28698
815.256	28584
815.397	28485
815.539	28569
815.68	28447
815.821	28371
815.962	28413
816.103	28489
816.244	28143
816.385	28253
816.526	28207
816.666	28055
816.807	27880
816.948	27998
817.089	28017
817.23	27987
817.371	27945
817.512	27956
817.653	27960
817.793	27751
817.934	27884
818.075	27930
818.216	27968
818.356	28006
818.497	27869
818.638	27667
818.778	27576
818.919	27743
819.06	27812
819.2	27835
819.341	27899
819.481	28021
819.622	28181
819.762	28291
819.903	28036
820.043	28226
820.184	28131
820.324	28040
820.465	28032
820.605	28006
820.746	28131
820.886	27941
821.026	28025
821.167	27899
821.307	28120
821.447	27968
821.588	27918
821.728	27694
821.868	27568
822.008	27424
822.149	27294
822.289	27389
822.429	27211
822.569	27127
822.709	27123
822.849	27070
822.99	26979
823.13	26910
823.27	26963
823.41	26811
823.55	26541
823.69	26663
823.83	26811
823.97	26602
824.11	26583
824.25	26514
824.389	26442
824.529	26682
824.669	26659
824.809	26720
824.949	26648
825.089	26663
825.228	26518
825.368	26408
825.508	26332
825.648	26541
825.787	26484
825.927	26495
826.067	26412
826.206	26434
826.346	26518
826.485	26701
826.625	26450
826.765	26556
826.904	26484
827.044	26229
827.183	26240
827.323	26206
827.462	26294
827.601	26149
827.741	26126
827.88	26161
828.02	26126
828.159	26252
828.298	26206
828.437	26290
828.577	26096
828.716	26317
828.855	25970
828.994	25837
829.134	25837
829.273	25970
829.412	25833
829.551	25788
829.69	25868
829.829	25875
829.968	25955
830.107	25917
830.246	25940
830.385	25860
830.524	25757
830.663	25567
830.802	25521
830.941	25529
831.08	25381
831.219	25594
831.357	25567
831.496	25731
831.635	25491
831.774	25521
831.913	25445
832.051	25331
832.19	25240
832.329	25187
832.467	25240
832.606	25091
832.744	25034
832.883	25183
833.022	25110
833.16	25190
833.299	25247
833.437	25217
833.576	25152
833.714	25251
833.852	25171
833.991	25206
834.129	25491
834.267	25316
834.406	25225
834.544	25217
834.682	25225
834.821	25240
834.959	25388
835.097	25171
835.235	25441
835.373	25221
835.511	25259
835.65	25213
835.788	25137
835.926	24859
836.064	24871
836.202	24810
836.34	25091
836.478	25107
836.615	25065
836.753	25027
836.891	25015
837.029	25107
837.167	24981
837.305	24966
837.443	25000
837.58	24806
837.718	24951
837.856	24905
837.993	24787
838.131	24890
838.269	24715
838.406	24776
838.544	24684
838.681	24486
838.819	24418
838.956	24369
839.094	24311
839.231	24353
839.369	24483
839.506	24726
839.643	24547
839.781	24365
839.918	24323
840.055	24342
840.193	24262
840.33	24251
840.467	24292
840.604	24350
840.742	24494
840.879	24091
841.016	24201
841.153	24190
841.29	24289
841.427	24174
841.564	24270
841.701	24258
841.838	24125
841.975	24140
842.112	24114
842.249	24125
842.385	24167
842.522	24235
842.659	24125
842.796	23961
842.933	23939
843.069	24022
843.206	23980
843.343	24079
843.479	23973
843.616	23999
843.752	23764
843.889	23863
844.025	23809
844.162	23726
844.298	23866
844.435	23783
844.571	23767
844.708	23695
844.844	23893
844.98	23939
845.117	23984
845.253	23745
845.389	23661
845.525	23653
845.661	23714
845.798	23585
845.934	23638
846.07	23524
846.206	23570
846.342	23592
846.478	23395
846.614	23265
846.75	23216
846.886	23121
847.022	23368
847.158	23284
847.294	23239
847.429	23280
847.565	23181
847.701	23524
847.837	22911
847.972	22835
848.108	23071
848.244	23155
848.379	22843
848.515	22927
848.65	22774
848.786	22824
848.921	22873
849.057	22957
849.192	22812
849.328	22824
849.463	22858
849.598	22892
849.734	22771
849.869	22740
850.004	22569
850.14	22702
850.275	22729
850.41	22588
850.545	22516
850.68	22626
850.815	22710
850.95	22554
851.085	22805
851.22	22641
851.355	22618
851.49	22565
851.625	22531
851.76	22481
851.895	22413
852.03	22459
852.165	22622
852.299	22656
852.434	22672
852.569	22656
852.703	22542
852.838	22679
852.973	22816
853.107	22656
853.242	22481
853.376	22379
853.511	22398
853.645	22398
853.78	22508
853.914	22417
854.048	22356
854.183	22382
854.317	22436
854.451	22675
854.585	22478
854.72	22436
854.854	22596
854.988	22200
855.122	22481
855.256	22352
855.39	22440
855.524	22493
855.658	22474
855.792	22409
855.926	22417
856.06	22656
856.194	22519
856.327	22436
856.461	22314
856.595	22268
856.729	22432
856.862	22538
856.996	22402
857.13	22519
857.263	22390
857.397	22459
857.53	22344
857.664	22386
857.797	22504
857.931	22497
858.064	22409
858.197	22538
858.331	22508
858.464	22409
858.597	22295
858.731	22356
858.864	22462
858.997	22344
859.13	22432
859.263	22523
859.396	22516
859.529	22512
859.662	22352
859.795	22519
859.928	22402
860.061	22596
860.194	22672
860.327	22565
860.46	22405
860.592	22565
860.725	22557
860.858	22561
860.99	22500
861.123	22303
861.256	22360
861.388	22363
861.521	23121
861.653	22299
861.786	22211
861.918	22215
862.05	22310
862.183	22363
862.315	22333
862.447	22394
862.58	22272
862.712	22135
862.844	22120
862.976	22090
863.108	22242
863.24	22516
863.372	22082
863.504	22150
863.636	22154
863.768	22158
863.9	22086
864.032	21949
864.164	22116
864.296	22017
864.428	22337
864.559	22196
864.691	22139
864.823	21979
864.954	22109
865.086	22188
865.217	22055
865.349	21983
865.48	22025
865.612	22055
865.743	22112
865.875	22055
866.006	21941
866.137	21922
866.269	21907
866.4	21964
866.531	22025
866.662	21892
866.793	21934
866.924	21949
867.055	21930
867.186	21884
867.317	21895
867.448	21694
867.579	21865
867.71	21861
867.841	21991
867.972	22055
868.103	21842
868.233	21892
868.364	21903
868.495	22036
868.625	22204
868.756	22238
868.886	22249
869.017	22090
869.147	22344
869.278	22268
869.408	22188
869.539	22147
869.669	22215
869.799	22154
869.929	22295
870.06	22276
870.19	22455
870.32	22455
870.45	22508
870.58	22523
870.71	22630
870.84	22694
870.97	22565
871.1	22618
871.23	22698
871.36	22771
871.489	22675
871.619	22725
871.749	22816
871.879	22889
872.008	22869
872.138	22877
872.267	22869
872.397	22752
872.526	22519
872.656	22702
872.785	22538
872.915	22812
873.044	22866
873.173	22763
873.303	22805
873.432	22835
873.561	22774
873.69	22953
873.819	22801
873.948	22793
874.077	22687
874.206	22691
874.335	22911
874.464	22759
874.593	23003
874.722	23029
874.851	22976
874.979	23003
875.108	23079
875.237	22896
875.365	22949
875.494	22999
875.623	23162
875.751	22991
875.88	23105
876.008	23227
876.136	23185
876.265	23406
876.393	23619
876.521	23402
876.65	23482
876.778	23376
876.906	23341
877.034	23368
877.162	23463
877.29	23284
877.418	23356
877.546	23360
877.674	23258
877.802	23311
877.93	23414
878.058	23315
878.185	23090
878.313	23414
878.441	23387
878.568	23155
878.696	23299
878.824	23292
878.951	23459
879.079	23471
879.206	23577
879.333	23600
879.461	23391
879.588	23455
879.715	23417
879.842	23646
879.97	23414
880.097	23189
880.224	23220
880.351	23235
880.478	23197
880.605	23071
880.732	23223
880.859	23398
880.986	23185
881.112	23208
881.239	23124
881.366	22927
881.493	22816
881.619	22752
881.746	22805
881.872	22649
881.999	22729
882.125	22736
882.252	22694
882.378	22649
882.505	22816
882.631	22672
882.757	22451
882.883	22622
883.01	22451
883.136	22390
883.262	22257
883.388	22291
883.514	22344
883.64	22436
883.766	22272
883.892	22207
884.018	22246
884.143	22344
884.269	22402
884.395	22109
884.52	21975
884.646	22017
884.772	22006
884.897	21941
885.023	22109
885.148	22200
885.274	22219
885.399	22090
885.524	22139
885.65	21968
885.775	22013
885.9	22032
886.025	22280
886.15	22150
886.275	22036
886.4	21850
886.525	22040
886.65	21907
886.775	21892
886.9	22185
887.025	22268
887.149	21998
887.274	21903
887.399	21797
887.523	21903
887.648	21739
887.773	21724
887.897	21922
888.021	21911
888.146	21781
888.27	21918
888.395	21911
888.519	21759
888.643	21774
888.767	21808
888.891	21656
889.015	21587
889.139	21641
889.263	21633
889.387	21606
889.511	21717
889.635	21538
889.759	21622
889.883	21603
890.006	21603
890.13	21724
890.254	21469
890.377	21542
890.501	21424
890.624	21332
890.748	21367
890.871	21272
890.995	21195
891.118	20979
891.241	21123
891.364	21317
891.488	21264
891.611	21260
891.734	21157
891.857	21157
891.98	21222
892.103	21112
892.226	21104
892.349	21123
892.471	20925
892.594	20937
892.717	21108
892.839	20948
892.962	21047
893.085	21150
893.207	21001
893.33	20842
893.452	20929
893.575	20998
893.697	21123
893.819	21230
893.941	21298
894.064	21089
894.186	20872
894.308	20925
894.43	21157
894.552	21081
894.674	21070
894.796	20819
894.918	21070
895.04	20925
895.161	21176
895.283	21036
895.405	20975
895.526	20944
895.648	20876
895.769	21089
895.891	20994
896.012	21077
896.134	21024
896.255	21009
896.376	20933
896.498	20967
896.619	21062
896.74	20876
896.861	21104
896.982	21222
897.103	21412
897.224	21272
897.345	21298
897.466	21184
897.587	21241
897.708	21260
897.828	21195
897.949	21058
898.07	21032
898.19	21203
898.311	21310
898.431	21150
898.552	21275
898.672	21313
898.792	21245
898.913	21294
899.033	21176
899.153	20914
899.273	20872
899.393	20887
899.513	21024
899.633	21036
899.753	20838
899.873	20861
899.993	20986
900.113	20792
900.232	20960
900.352	20781
900.472	20834
900.591	20644
900.711	20727
900.83	20674
900.95	20887
901.069	20804
901.189	20617
901.308	20324
901.427	20183
901.546	20332
901.665	20305
901.784	20271
901.904	20168
902.023	20054
902.141	19761
902.26	19811
902.379	19833
902.498	19727
902.617	19780
902.735	19799
902.854	19662
902.973	19772
903.091	19434
903.21	19480
903.328	19586
903.446	19422
903.565	19244
903.683	19293
903.801	19088
903.919	19316
904.038	19171
904.156	18996
904.274	19027
904.392	18977
904.51	18954
904.627	19019
904.745	18947
904.863	19053
904.981	18757
905.098	18574
905.216	18726
905.334	18612
905.451	18684
905.569	18578
905.686	18703
905.803	18692
905.921	18429
906.038	18665
906.155	18403
906.272	18251
906.389	18403
906.506	18201
906.623	18209
906.74	18190
906.857	18174
906.974	18148
907.091	18186
907.208	18277
907.324	18254
907.441	18155
907.557	18083
907.674	17893
907.79	17764
907.907	17939
908.023	17874
908.139	17935
908.256	17855
908.372	17710
908.488	17676
908.604	17676
908.72	17573
908.836	17532
908.952	17657
909.068	17573
909.184	17775
909.3	17707
909.415	17684
909.531	17608
909.647	17398
909.762	17265
909.878	17269
909.993	17284
910.108	17337
910.224	17273
910.339	17353
910.454	17208
910.57	17048
910.685	17060
910.8	17288
910.915	17273
911.03	17181
911.145	16984
911.259	16984
911.374	16854
911.489	16797
911.604	16664
911.718	16565
911.833	16584
911.947	16561
912.062	16459
912.176	16618
912.291	16725
912.405	16607
912.519	16801
912.633	16786
912.748	16618
912.862	16721
912.976	16325
913.09	16341
913.204	16390
913.318	16421
913.431	16500
913.545	16497
913.659	16535
913.772	16329
913.886	16150
914	16253
914.113	16379
914.226	16382
914.34	16268
914.453	16185
914.566	16306
914.68	16090
914.793	16135
914.906	15861
915.019	15819
915.132	15854
915.245	15797
915.358	15941
915.47	15804
915.583	15838
915.696	15884
915.809	15972
915.921	16013
916.034	15781
916.146	15595
916.259	15724
916.371	15732
916.483	15732
916.595	15667
916.708	15584
916.82	15614
916.932	15618
917.044	15603
917.156	15534
917.268	15450
917.38	15378
917.491	15454
917.603	15408
917.715	15481
917.826	15568
917.938	15336
918.049	15264
918.161	15435
918.272	15485
918.384	15473
918.495	15329
918.606	15287
918.717	15112
918.828	15176
918.939	15230
919.05	15089
919.161	15207
919.272	14990
919.383	15062
919.494	15135
919.604	15329
919.715	15188
919.826	14967
919.936	15074
920.047	15150
920.157	15173
920.267	15393
920.378	15165
920.488	15093
920.598	15275
920.708	15370
920.818	15325
920.928	15211
921.038	15340
921.148	15393
921.258	15081
921.368	15047
921.477	14868
921.587	14887
921.697	14716
921.806	14914
921.916	14743
922.025	14488
922.134	14587
922.244	14381
922.353	14484
922.462	14370
922.571	14305
922.68	14123
922.789	14138
922.898	14199
923.007	14062
923.116	14221
923.224	14142
923.333	14084
923.442	14084
923.55	13978
923.659	13868
923.767	14043
923.876	13982
923.984	14001
924.092	13750
924.201	13860
924.309	13807
924.417	13807
924.525	13753
924.633	13776
924.741	14541
924.849	13586
924.956	13727
925.064	13582
925.172	13441
925.279	13449
925.387	13518
925.494	13559
925.602	13578
925.709	13540
925.816	13403
925.924	13438
926.031	13544
926.138	13499
926.245	13544
926.352	13331
926.459	13491
926.566	13533
926.673	13263
926.779	13240
926.886	13247
926.993	13053
927.099	13168
927.206	12897
927.312	12916
927.419	13179
927.525	13012
927.631	13133
927.737	12878
927.843	12897
927.95	12863
928.056	12856
928.162	12935
928.267	12916
928.373	13495
928.479	12951
928.585	12677
928.69	12829
928.796	12787
928.901	12673
929.007	12654
929.112	12741
929.218	12658
929.323	12627
929.428	12486
929.533	12738
929.638	12490
929.743	12479
929.848	12551
929.953	12540
930.058	12407
930.163	12239
930.267	12254
930.372	12456
930.477	12178
930.581	12532
930.685	12395
930.79	12053
930.894	12171
930.998	12121
931.103	12243
931.207	11859
931.311	11847
931.415	11688
931.519	11558
931.623	11406
