Data from test_V78500241_2681.txt Node
Date: Fri Mar 25 16:00:22 CST 2022
User: usil
Spectrometer: V785-0024
Trigger mode: 0
Integration Time (sec): 4.000000E-1
Scans to average: 1
Nonlinearity correction enabled: false
Boxcar width: 0
Storing dark spectrum: false
XAxis mode: Wavelengths
Number of Pixels in Spectrum: 1024
>>>>>Begin Spectral Data<<<<<
801.071	28904
801.214	28672
801.356	28394
801.499	28341
801.641	28215
801.783	28280
801.926	28226
802.068	28265
802.211	28188
802.353	28181
802.496	28059
802.638	27945
802.78	27972
802.923	27831
803.065	27884
803.208	27884
803.35	28044
803.492	28200
803.635	28226
803.777	28036
803.919	28200
804.061	28459
804.204	28276
804.346	28154
804.488	27964
804.63	28265
804.773	28253
804.915	28470
805.057	28360
805.199	28223
805.341	28268
805.483	28447
805.626	28398
805.768	28371
805.91	28333
806.052	28478
806.194	28322
806.336	28481
806.478	28379
806.62	28390
806.762	28466
806.904	28687
807.046	28877
807.188	28744
807.33	28786
807.472	28888
807.614	28896
807.756	28892
807.898	28687
808.04	28713
808.182	28580
808.324	28664
808.465	28755
808.607	28923
808.749	28976
808.891	29117
809.033	29273
809.174	29212
809.316	29086
809.458	29022
809.6	28980
809.741	29052
809.883	29223
810.025	29448
810.166	29296
810.308	29360
810.45	29356
810.591	29220
810.733	29159
810.875	29037
811.016	29003
811.158	29018
811.299	29162
811.441	29185
811.582	29242
811.724	29143
811.865	29067
812.007	28968
812.148	29227
812.29	29105
812.431	29208
812.573	29490
812.714	29429
812.855	29642
812.997	29752
813.138	29828
813.279	29649
813.421	29547
813.562	29554
813.703	29444
813.845	29227
813.986	29170
814.127	28927
814.268	28923
814.41	28801
814.551	28698
814.692	28691
814.833	28797
814.974	28698
815.115	28862
815.256	28759
815.397	28656
815.539	28660
815.68	28569
815.821	28508
815.962	28470
816.103	28615
816.244	28398
816.385	28421
816.526	28565
816.666	28261
816.807	27998
816.948	28082
817.089	28257
817.23	28166
817.371	28162
817.512	28112
817.653	28082
817.793	28070
817.934	28044
818.075	28116
818.216	28147
818.356	27998
818.497	27945
818.638	27819
818.778	27789
818.919	27827
819.06	27895
819.2	28070
819.341	28040
819.481	28215
819.622	28348
819.762	28466
819.903	28440
820.043	28280
820.184	28211
820.324	28280
820.465	28333
820.605	28234
820.746	28246
820.886	28101
821.026	28124
821.167	28150
821.307	28261
821.447	28215
821.588	28051
821.728	27945
821.868	27743
822.008	27500
822.149	27435
822.289	27629
822.429	27348
822.569	27294
822.709	27249
822.849	27195
822.99	27150
823.13	26982
823.27	27096
823.41	26868
823.55	26746
823.69	26876
823.83	26952
823.97	26872
824.11	26659
824.25	26708
824.389	26838
824.529	27047
824.669	26594
824.809	26815
824.949	26944
825.089	26804
825.228	26788
825.368	26651
825.508	26587
825.648	26697
825.787	26689
825.927	26697
826.067	26621
826.206	26621
826.346	26758
826.485	26762
826.625	26655
826.765	26663
826.904	26678
827.044	26564
827.183	26355
827.323	26419
827.462	26461
827.601	26431
827.741	26408
827.88	26320
828.02	26244
828.159	26400
828.298	26377
828.437	26438
828.577	26393
828.716	26320
828.855	26305
828.994	26031
829.134	26062
829.273	26058
829.412	26058
829.551	25959
829.69	26077
829.829	25970
829.968	26008
830.107	26157
830.246	26103
830.385	26012
830.524	26043
830.663	25845
830.802	25742
830.941	25674
831.08	25662
831.219	25841
831.357	25849
831.496	25890
831.635	25666
831.774	25685
831.913	25525
832.051	25575
832.19	25419
832.329	25502
832.467	25377
832.606	25137
832.744	25209
832.883	25289
833.022	25282
833.16	25369
833.299	25373
833.437	25430
833.576	25468
833.714	25449
833.852	25331
833.991	25441
834.129	25377
834.267	25392
834.406	25415
834.544	25476
834.682	25365
834.821	25335
834.959	25464
835.097	25339
835.235	25377
835.373	25365
835.511	25377
835.65	25209
835.788	25358
835.926	25015
836.064	24989
836.202	25031
836.34	25148
836.478	25270
836.615	25232
836.753	25225
836.891	25274
837.029	25240
837.167	25129
837.305	25050
837.443	25091
837.58	25012
837.718	25061
837.856	25050
837.993	24973
838.131	25023
838.269	24856
838.406	25019
838.544	24817
838.681	24738
838.819	24757
838.956	24559
839.094	24525
839.231	24578
839.369	24623
839.506	24920
839.643	24764
839.781	24464
839.918	24433
840.055	24365
840.193	24437
840.33	24388
840.467	24502
840.604	24471
840.742	24661
840.879	24281
841.016	24350
841.153	24289
841.29	24502
841.427	24384
841.564	24441
841.701	24342
841.838	24296
841.975	24254
842.112	24327
842.249	24262
842.385	24152
842.522	24403
842.659	24308
842.796	24171
842.933	24091
843.069	24190
843.206	24072
843.343	24251
843.479	24197
843.616	24197
843.752	23912
843.889	23904
844.025	24057
844.162	23939
844.298	24038
844.435	23977
844.571	23775
844.708	23996
844.844	23973
844.98	24190
845.117	24015
845.253	23817
845.389	23790
845.525	23794
845.661	23775
845.798	23813
845.934	23847
846.07	23668
846.206	23703
846.342	23684
846.478	23695
846.614	23391
846.75	23395
846.886	23349
847.022	23353
847.158	23410
847.294	23368
847.429	23482
847.565	23360
847.701	23646
847.837	23246
847.972	23113
848.108	23162
848.244	23170
848.379	23098
848.515	22972
848.65	22892
848.786	22953
848.921	23067
849.057	23056
849.192	23132
849.328	23056
849.463	22934
849.598	22911
849.734	22927
849.869	22752
850.004	22805
850.14	22771
850.275	22740
850.41	22687
850.545	22630
850.68	22691
850.815	22778
850.95	22736
851.085	22850
851.22	22915
851.355	22790
851.49	22725
851.625	22664
851.76	22763
851.895	22755
852.03	22702
852.165	22664
852.299	22744
852.434	22809
852.569	22782
852.703	22725
852.838	22596
852.973	22812
853.107	22706
853.242	22691
853.376	22675
853.511	22440
853.645	22542
853.78	22710
853.914	22656
854.048	22645
854.183	22645
854.317	22615
854.451	22523
854.585	22459
854.72	22527
854.854	22626
854.988	22504
855.122	22512
855.256	22504
855.39	22535
855.524	22649
855.658	22630
855.792	22527
855.926	22615
856.06	22626
856.194	22672
856.327	22546
856.461	22538
856.595	22390
856.729	22535
856.862	22721
856.996	22573
857.13	22611
857.263	22672
857.397	22698
857.53	22516
857.664	22637
857.797	22599
857.931	22675
858.064	22577
858.197	22656
858.331	22512
858.464	22489
858.597	22432
858.731	22615
858.864	22421
858.997	22565
859.13	22637
859.263	22561
859.396	22672
859.529	22409
859.662	22569
859.795	22455
859.928	22512
860.061	22721
860.194	22748
860.327	22485
860.46	22554
860.592	22683
860.725	22626
860.858	22615
860.99	22618
861.123	22508
861.256	22443
861.388	22584
861.521	23239
861.653	22413
861.786	22348
861.918	22204
862.05	22470
862.183	22451
862.315	22382
862.447	22554
862.58	22485
862.712	22306
862.844	22272
862.976	22379
863.108	22192
863.24	22771
863.372	22204
863.504	22253
863.636	22249
863.768	22421
863.9	22352
864.032	22200
864.164	22207
864.296	22246
864.428	22379
864.559	22318
864.691	22284
864.823	22325
864.954	22238
865.086	22188
865.217	22219
865.349	22067
865.48	22074
865.612	22109
865.743	22112
865.875	22162
866.006	22013
866.137	22135
866.269	22207
866.4	22086
866.531	22078
866.662	22025
866.793	22078
866.924	22082
867.055	22093
867.186	22074
867.317	22078
867.448	22044
867.579	22017
867.71	21998
867.841	21899
867.972	22109
868.103	22040
868.233	22070
868.364	22051
868.495	22226
868.625	22402
868.756	22398
868.886	22276
869.017	22268
869.147	22466
869.278	22390
869.408	22478
869.539	22333
869.669	22424
869.799	22249
869.929	22443
870.06	22409
870.19	22599
870.32	22538
870.45	22615
870.58	22683
870.71	22820
870.84	22729
870.97	22660
871.1	22698
871.23	22839
871.36	22927
871.489	22809
871.619	22858
871.749	22946
871.879	23003
872.008	22953
872.138	22938
872.267	22816
872.397	22843
872.526	22774
872.656	22854
872.785	22778
872.915	22862
873.044	23044
873.173	22934
873.303	22911
873.432	23121
873.561	22995
873.69	23006
873.819	22896
873.948	23056
874.077	22904
874.206	22873
874.335	22843
874.464	22965
874.593	23090
874.722	23143
874.851	23174
874.979	23037
875.108	23143
875.237	23014
875.365	23124
875.494	23048
875.623	23189
875.751	23132
875.88	23090
876.008	23265
876.136	23341
876.265	23391
876.393	23710
876.521	23585
876.65	23646
876.778	23592
876.906	23551
877.034	23436
877.162	23406
877.29	23417
877.418	23520
877.546	23448
877.674	23402
877.802	23425
877.93	23421
878.058	23448
878.185	23383
878.313	23531
878.441	23467
878.568	23322
878.696	23258
878.824	23543
878.951	23535
879.079	23646
879.206	23783
879.333	23577
879.461	23581
879.588	23444
879.715	23676
879.842	23726
879.97	23539
880.097	23334
880.224	23223
880.351	23345
880.478	23337
880.605	23185
880.732	23318
880.859	23566
880.986	23330
881.112	23364
881.239	23151
881.366	23075
881.493	22953
881.619	22771
881.746	22934
881.872	22900
881.999	22797
882.125	22820
882.252	22927
882.378	22793
882.505	22805
882.631	22759
882.757	22561
882.883	22653
883.01	22607
883.136	22481
883.262	22386
883.388	22382
883.514	22584
883.64	22569
883.766	22447
883.892	22306
884.018	22234
884.143	22421
884.269	22637
884.395	22238
884.52	22230
884.646	22032
884.772	22150
884.897	22013
885.023	22150
885.148	22196
885.274	22329
885.399	22287
885.524	22185
885.65	22211
885.775	22230
885.9	22112
886.025	22329
886.15	22333
886.275	22154
886.4	22097
886.525	21998
886.65	22067
886.775	22097
886.9	22253
887.025	22246
887.149	22131
887.274	21911
887.399	21884
887.523	21888
887.648	21747
887.773	21785
887.897	22002
888.021	21888
888.146	21884
888.27	21998
888.395	22029
888.519	21994
888.643	21865
888.767	22013
888.891	21724
889.015	21831
889.139	21675
889.263	21766
889.387	21819
889.511	21930
889.635	21888
889.759	21656
889.883	21656
890.006	21675
890.13	21762
890.254	21629
890.377	21686
890.501	21348
890.624	21401
890.748	21500
890.871	21291
890.995	21287
891.118	21233
891.241	21207
891.364	21340
891.488	21355
891.611	21245
891.734	21260
891.857	21283
891.98	21317
892.103	21302
892.226	21256
892.349	21188
892.471	21093
892.594	21192
892.717	21100
892.839	21142
892.962	21203
893.085	21214
893.207	21146
893.33	21051
893.452	21043
893.575	21222
893.697	21180
893.819	21195
893.941	21329
894.064	21233
894.186	21051
894.308	21112
894.43	21157
894.552	21218
894.674	21154
894.796	21032
894.918	21214
895.04	20998
895.161	21211
895.283	21199
895.405	21123
895.526	21127
895.648	21199
895.769	21055
895.891	21058
896.012	21123
896.134	21214
896.255	21070
896.376	21112
896.498	21173
896.619	21131
896.74	21123
896.861	21135
896.982	21439
897.103	21485
897.224	21298
897.345	21294
897.466	21119
897.587	21195
897.708	21447
897.828	21351
897.949	21154
898.07	21157
898.19	21233
898.311	21454
898.431	21199
898.552	21249
898.672	21401
898.792	21401
898.913	21340
899.033	21249
899.153	21062
899.273	20902
899.393	21096
899.513	21112
899.633	21066
899.753	20963
899.873	20914
899.993	21089
900.113	20933
900.232	21127
900.352	20872
900.472	20883
900.591	20769
900.711	20807
900.83	20834
900.95	20902
901.069	20902
901.189	20769
901.308	20552
901.427	20377
901.546	20370
901.665	20465
901.784	20461
901.904	20221
902.023	20214
902.141	19940
902.26	19875
902.379	20024
902.498	19940
902.617	19753
902.735	19852
902.854	19951
902.973	19841
903.091	19544
903.21	19392
903.328	19476
903.446	19518
903.565	19354
903.683	19350
903.801	19244
903.919	19255
904.038	19331
904.156	19171
904.274	19103
904.392	19088
904.51	19213
904.627	19023
904.745	19183
904.863	19152
904.981	18810
905.098	18783
905.216	18753
905.334	18795
905.451	18829
905.569	18711
905.686	18719
905.803	18837
905.921	18509
906.038	18631
906.155	18540
906.272	18376
906.389	18342
906.506	18285
906.623	18311
906.74	18224
906.857	18117
906.974	18308
907.091	18376
907.208	18418
907.324	18300
907.441	18216
907.557	18011
907.674	18060
907.79	17908
907.907	17954
908.023	18072
908.139	18121
908.256	17999
908.372	17931
908.488	17840
908.604	17794
908.72	17691
908.836	17756
908.952	17722
909.068	17661
909.184	17847
909.3	17646
909.415	17646
909.531	17649
909.647	17482
909.762	17444
909.878	17452
909.993	17376
910.108	17448
910.224	17337
910.339	17486
910.454	17185
910.57	17189
910.685	17075
910.8	17398
910.915	17280
911.03	17162
911.145	17037
911.259	16953
911.374	16946
911.489	16927
911.604	16801
911.718	16733
911.833	16812
911.947	16592
912.062	16717
912.176	16736
912.291	16683
912.405	16668
912.519	16930
912.633	16847
912.748	16702
912.862	16691
912.976	16535
913.09	16440
913.204	16497
913.318	16500
913.431	16569
913.545	16626
913.659	16694
913.772	16474
913.886	16344
914	16261
914.113	16322
914.226	16394
914.34	16360
914.453	16147
914.566	16280
914.68	16158
914.793	16166
914.906	16029
915.019	15964
915.132	15895
915.245	15953
915.358	15926
915.47	15846
915.583	15797
915.696	15911
915.809	15975
915.921	16067
916.034	15831
916.146	15819
916.259	15789
916.371	15842
916.483	15808
916.595	15755
916.708	15663
916.82	15743
916.932	15606
917.044	15614
917.156	15557
917.268	15515
917.38	15511
917.491	15481
917.603	15496
917.715	15500
917.826	15595
917.938	15477
918.049	15283
918.161	15393
918.272	15576
918.384	15526
918.495	15462
918.606	15325
918.717	15245
918.828	15291
918.939	15344
919.05	15169
919.161	15233
919.272	15055
919.383	15100
919.494	15283
919.604	15370
919.715	15237
919.826	15108
919.936	15157
920.047	15321
920.157	15256
920.267	15370
920.378	15226
920.488	15245
920.598	15340
920.708	15428
920.818	15344
920.928	15306
921.038	15538
921.148	15458
921.258	15119
921.368	15062
921.477	14929
921.587	14872
921.697	14735
921.806	14880
921.916	14735
922.025	14613
922.134	14636
922.244	14484
922.353	14507
922.462	14431
922.571	14355
922.68	14153
922.789	14267
922.898	14206
923.007	14161
923.116	14210
923.224	14199
923.333	14096
923.442	14084
923.55	13944
923.659	14176
923.767	14046
923.876	14107
923.984	13974
924.092	13936
924.201	13947
924.309	13947
924.417	13860
924.525	13833
924.633	13830
924.741	14792
924.849	13605
924.956	13750
925.064	13605
925.172	13476
925.279	13613
925.387	13590
925.494	13518
925.602	13712
925.709	13590
925.816	13441
925.924	13537
926.031	13738
926.138	13483
926.245	13510
926.352	13419
926.459	13514
926.566	13632
926.673	13578
926.779	13377
926.886	13327
926.993	13206
927.099	13133
927.206	13171
927.312	13031
927.419	13114
927.525	13084
927.631	13164
927.737	13012
927.843	12901
927.95	12886
928.056	12882
928.162	12875
928.267	12993
928.373	13449
928.479	13012
928.585	12749
928.69	12837
928.796	12905
928.901	12700
929.007	12696
929.112	12753
929.218	12768
929.323	12722
929.428	12646
929.533	12840
929.638	12574
929.743	12528
929.848	12654
929.953	12544
930.058	12498
930.163	12422
930.267	12426
930.372	12490
930.477	12270
930.581	12452
930.685	12376
930.79	12213
930.894	12171
930.998	12144
931.103	12319
931.207	12003
931.311	11870
931.415	11767
931.519	11634
931.623	11455
