Data from test_V78500241_83.txt Node
Date: Fri Mar 25 15:42:22 CST 2022
User: usil
Spectrometer: V785-0024
Trigger mode: 0
Integration Time (sec): 4.000000E-1
Scans to average: 1
Nonlinearity correction enabled: false
Boxcar width: 0
Storing dark spectrum: false
XAxis mode: Wavelengths
Number of Pixels in Spectrum: 1024
>>>>>Begin Spectral Data<<<<<
801.071	30072
801.214	29916
801.356	29726
801.499	29570
801.641	29493
801.783	29528
801.926	29646
802.068	29417
802.211	29467
802.353	29315
802.496	29189
802.638	29143
802.78	29014
802.923	29003
803.065	28888
803.208	29018
803.35	29239
803.492	29326
803.635	29364
803.777	29136
803.919	29296
804.061	29509
804.204	29372
804.346	29181
804.488	29235
804.63	29273
804.773	29003
804.915	29273
805.057	29398
805.199	29185
805.341	29254
805.483	29414
805.626	29471
805.768	29280
805.91	29326
806.052	29406
806.194	29284
806.336	29452
806.478	29528
806.62	29368
806.762	29501
806.904	29687
807.046	29973
807.188	29809
807.33	29657
807.472	29726
807.614	29783
807.756	29878
807.898	29638
808.04	29436
808.182	29505
808.324	29668
808.465	29524
808.607	29783
808.749	29923
808.891	30045
809.033	30171
809.174	30007
809.316	29927
809.458	29999
809.6	29946
809.741	30034
809.883	30068
810.025	30144
810.166	30144
810.308	30232
810.45	30064
810.591	30110
810.733	29969
810.875	30018
811.016	29931
811.158	29775
811.299	30018
811.441	30163
811.582	30125
811.724	29893
811.865	29954
812.007	29862
812.148	29828
812.29	29809
812.431	30057
812.573	30273
812.714	30258
812.855	30327
812.997	30498
813.138	30650
813.279	30471
813.421	30353
813.562	30304
813.703	30228
813.845	29996
813.986	29794
814.127	29653
814.268	29528
814.41	29501
814.551	29368
814.692	29558
814.833	29474
814.974	29497
815.115	29543
815.256	29421
815.397	29337
815.539	29360
815.68	29121
815.821	29094
815.962	29220
816.103	29220
816.244	29113
816.385	28888
816.526	28949
816.666	28702
816.807	28630
816.948	28660
817.089	28866
817.23	28782
817.371	28443
817.512	28592
817.653	28497
817.793	28508
817.934	28550
818.075	28630
818.216	28615
818.356	28497
818.497	28443
818.638	28303
818.778	28287
818.919	28432
819.06	28421
819.2	28512
819.341	28424
819.481	28413
819.622	28615
819.762	28835
819.903	28934
820.043	28702
820.184	28653
820.324	28599
820.465	28622
820.605	28736
820.746	28618
820.886	28523
821.026	28546
821.167	28474
821.307	28664
821.447	28656
821.588	28360
821.728	28337
821.868	28025
822.008	28002
822.149	27975
822.289	27838
822.429	27755
822.569	27549
822.709	27778
822.849	27351
822.99	27386
823.13	27443
823.27	27218
823.41	27173
823.55	27123
823.69	27287
823.83	27146
823.97	27211
824.11	27096
824.25	26910
824.389	26918
824.529	27104
824.669	26937
824.809	27157
824.949	27142
825.089	27112
825.228	26937
825.368	26834
825.508	26632
825.648	26906
825.787	26788
825.927	26952
826.067	26830
826.206	26864
826.346	26902
826.485	26815
826.625	26853
826.765	26861
826.904	26838
827.044	26434
827.183	26362
827.323	26343
827.462	26408
827.601	26469
827.741	26370
827.88	26590
828.02	26309
828.159	26370
828.298	26446
828.437	26492
828.577	26434
828.716	26556
828.855	26473
828.994	26027
829.134	26119
829.273	25993
829.412	25974
829.551	25883
829.69	26145
829.829	26107
829.968	26195
830.107	26024
830.246	26043
830.385	26031
830.524	25909
830.663	25856
830.802	25746
830.941	25674
831.08	25582
831.219	25761
831.357	25658
831.496	25807
831.635	25750
831.774	25563
831.913	25495
832.051	25324
832.19	25339
832.329	25571
832.467	25381
832.606	25251
832.744	25198
832.883	25304
833.022	25187
833.16	25236
833.299	25232
833.437	25236
833.576	25251
833.714	25213
833.852	25304
833.991	25312
834.129	25514
834.267	25411
834.406	25198
834.544	25255
834.682	25213
834.821	25221
834.959	25324
835.097	25179
835.235	25285
835.373	25209
835.511	25343
835.65	24973
835.788	24943
835.926	24894
836.064	24840
836.202	24905
836.34	24947
836.478	25133
836.615	24920
836.753	25042
836.891	25038
837.029	25110
837.167	24939
837.305	24932
837.443	25069
837.58	24840
837.718	24852
837.856	24852
837.993	24787
838.131	24852
838.269	24749
838.406	24578
838.544	24665
838.681	24483
838.819	24365
838.956	24296
839.094	24289
839.231	24319
839.369	24433
839.506	24665
839.643	24498
839.781	24277
839.918	24117
840.055	24224
840.193	24228
840.33	24098
840.467	24087
840.604	24197
840.742	24426
840.879	24049
841.016	24121
841.153	23973
841.29	24194
841.427	24235
841.564	24136
841.701	24209
841.838	23969
841.975	23996
842.112	23950
842.249	23859
842.385	23855
842.522	24136
842.659	23885
842.796	23809
842.933	23916
843.069	23676
843.206	23764
843.343	23843
843.479	23737
843.616	23783
843.752	23577
843.889	23509
844.025	23657
844.162	23444
844.298	23520
844.435	23463
844.571	23444
844.708	23539
844.844	23665
844.98	23623
845.117	23573
845.253	23448
845.389	23292
845.525	23471
845.661	23417
845.798	23254
845.934	23178
846.07	23102
846.206	23379
846.342	23307
846.478	23326
846.614	22999
846.75	22862
846.886	22942
847.022	22991
847.158	22900
847.294	22919
847.429	23022
847.565	22889
847.701	23136
847.837	22584
847.972	22519
848.108	22736
848.244	22691
848.379	22588
848.515	22413
848.65	22436
848.786	22508
848.921	22485
849.057	22596
849.192	22565
849.328	22519
849.463	22489
849.598	22478
849.734	22303
849.869	22238
850.004	22268
850.14	22181
850.275	22223
850.41	22192
850.545	22059
850.68	22173
850.815	22166
850.95	22086
851.085	22352
851.22	22356
851.355	22109
851.49	22131
851.625	22154
851.76	22086
851.895	22116
852.03	22173
852.165	22154
852.299	22219
852.434	22310
852.569	22200
852.703	22249
852.838	22238
852.973	22257
853.107	22200
853.242	22082
853.376	21903
853.511	21895
853.645	21937
853.78	22177
853.914	22021
854.048	21876
854.183	21880
854.317	21934
854.451	22166
854.585	21911
854.72	21892
854.854	22055
854.988	21880
855.122	21972
855.256	21785
855.39	21865
855.524	21850
855.658	22025
855.792	21964
855.926	21926
856.06	21915
856.194	22006
856.327	21915
856.461	21823
856.595	21800
856.729	21915
856.862	22048
856.996	21956
857.13	21861
857.263	22051
857.397	21991
857.53	21930
857.664	21983
857.797	21964
857.931	22078
858.064	22010
858.197	21945
858.331	21861
858.464	21816
858.597	21797
858.731	21812
858.864	21854
858.997	21793
859.13	21800
859.263	21903
859.396	21922
859.529	21861
859.662	21975
859.795	21842
859.928	21831
860.061	21998
860.194	22055
860.327	21850
860.46	21934
860.592	21930
860.725	21953
860.858	21937
860.99	21770
861.123	21831
861.256	21770
861.388	21812
861.521	22386
861.653	21755
861.786	21686
861.918	21713
862.05	21781
862.183	21895
862.315	21918
862.447	21983
862.58	21934
862.712	21595
862.844	21633
862.976	21648
863.108	21698
863.24	21808
863.372	21534
863.504	21599
863.636	21564
863.768	21542
863.9	21603
864.032	21428
864.164	21492
864.296	21507
864.428	21667
864.559	21515
864.691	21629
864.823	21469
864.954	21561
865.086	21450
865.217	21511
865.349	21397
865.48	21359
865.612	21412
865.743	21435
865.875	21454
866.006	21378
866.137	21378
866.269	21450
866.4	21431
866.531	21363
866.662	21272
866.793	21203
866.924	21447
867.055	21439
867.186	21485
867.317	21211
867.448	21260
867.579	21329
867.71	21313
867.841	21252
867.972	21348
868.103	21260
868.233	21325
868.364	21393
868.495	21344
868.625	21572
868.756	21671
868.886	21382
869.017	21675
869.147	21717
869.278	21701
869.408	21603
869.539	21523
869.669	21618
869.799	21496
869.929	21747
870.06	21701
870.19	21930
870.32	21751
870.45	21850
870.58	21907
870.71	22124
870.84	21918
870.97	22051
871.1	21987
871.23	22234
871.36	22310
871.489	22036
871.619	22093
871.749	22082
871.879	22303
872.008	22261
872.138	22162
872.267	22154
872.397	22097
872.526	22040
872.656	22048
872.785	22051
872.915	22223
873.044	22211
873.173	22082
873.303	22265
873.432	22150
873.561	22234
873.69	22223
873.819	22177
873.948	22154
874.077	22344
874.206	22173
874.335	22173
874.464	22265
874.593	22421
874.722	22417
874.851	22428
874.979	22531
875.108	22565
875.237	22428
875.365	22287
875.494	22352
875.623	22489
875.751	22421
875.88	22466
876.008	22672
876.136	22569
876.265	22717
876.393	22942
876.521	22877
876.65	22786
876.778	22755
876.906	22763
877.034	22713
877.162	22889
877.29	22626
877.418	22801
877.546	22672
877.674	22771
877.802	22786
877.93	22744
878.058	22664
878.185	22611
878.313	22729
878.441	22611
878.568	22675
878.696	22664
878.824	22896
878.951	22820
879.079	22900
879.206	22984
879.333	23060
879.461	22797
879.588	22828
879.715	22896
879.842	23056
879.97	22797
880.097	22679
880.224	22485
880.351	22504
880.478	22565
880.605	22504
880.732	22523
880.859	22908
880.986	22611
881.112	22611
881.239	22485
881.366	22253
881.493	22150
881.619	22367
881.746	22188
881.872	22192
881.999	22048
882.125	22116
882.252	22188
882.378	22211
882.505	22265
882.631	22097
882.757	21865
882.883	22021
883.01	21759
883.136	21800
883.262	21918
883.388	21641
883.514	21930
883.64	21945
883.766	21888
883.892	21606
884.018	21523
884.143	21861
884.269	21835
884.395	21504
884.52	21542
884.646	21530
884.772	21466
884.897	21405
885.023	21466
885.148	21618
885.274	21713
885.399	21671
885.524	21526
885.65	21462
885.775	21519
885.9	21428
886.025	21724
886.15	21553
886.275	21382
886.4	21329
886.525	21515
886.65	21382
886.775	21370
886.9	21625
887.025	21545
887.149	21401
887.274	21302
887.399	21207
887.523	21218
887.648	21180
887.773	21077
887.897	21291
888.021	21218
888.146	21104
888.27	21374
888.395	21218
888.519	21119
888.643	21230
888.767	21226
888.891	21264
889.015	21017
889.139	21108
889.263	20891
889.387	21096
889.511	21028
889.635	21180
889.759	20956
889.883	20998
890.006	21020
890.13	20982
890.254	21028
890.377	20979
890.501	20705
890.624	20655
890.748	20758
890.871	20575
890.995	20587
891.118	20461
891.241	20541
891.364	20514
891.488	20571
891.611	20549
891.734	20556
891.857	20530
891.98	20583
892.103	20621
892.226	20518
892.349	20465
892.471	20324
892.594	20511
892.717	20389
892.839	20533
892.962	20552
893.085	20522
893.207	20324
893.33	20317
893.452	20473
893.575	20556
893.697	20434
893.819	20594
893.941	20560
894.064	20556
894.186	20358
894.308	20320
894.43	20480
894.552	20530
894.674	20598
894.796	20450
894.918	20294
895.04	20393
895.161	20533
895.283	20530
895.405	20374
895.526	20461
895.648	20423
895.769	20408
895.891	20526
896.012	20651
896.134	20507
896.255	20552
896.376	20408
896.498	20499
896.619	20663
896.74	20415
896.861	20507
896.982	20868
897.103	21058
897.224	20785
897.345	20765
897.466	20754
897.587	20823
897.708	20819
897.828	20659
897.949	20617
898.07	20530
898.19	20564
898.311	20697
898.431	20480
898.552	20716
898.672	20670
898.792	20617
898.913	20708
899.033	20495
899.153	20412
899.273	20263
899.393	20415
899.513	20415
899.633	20415
899.753	20347
899.873	20290
899.993	20336
900.113	20130
900.232	20313
900.352	20282
900.472	20214
900.591	20138
900.711	20157
900.83	20065
900.95	20149
901.069	20290
901.189	20035
901.308	19814
901.427	19700
901.546	19685
901.665	19681
901.784	19708
901.904	19544
902.023	19457
902.141	19392
902.26	19232
902.379	19228
902.498	19240
902.617	19190
902.735	19156
902.854	19168
902.973	19141
903.091	18905
903.21	18745
903.328	18776
903.446	18779
903.565	18711
903.683	18677
903.801	18536
903.919	18734
904.038	18623
904.156	18536
904.274	18646
904.392	18300
904.51	18441
904.627	18445
904.745	18384
904.863	18521
904.981	18254
905.098	18068
905.216	18041
905.334	18095
905.451	18178
905.569	18072
905.686	18087
905.803	17961
905.921	17893
906.038	17882
906.155	17855
906.272	17840
906.389	17699
906.506	17630
906.623	17703
906.74	17524
906.857	17467
906.974	17554
907.091	17657
907.208	17756
907.324	17630
907.441	17604
907.557	17254
907.674	17334
907.79	17212
907.907	17216
908.023	17212
908.139	17337
908.256	17208
908.372	17204
908.488	17094
908.604	17010
908.72	16965
908.836	17003
908.952	16984
909.068	16972
909.184	16999
909.3	17033
909.415	16942
909.531	16938
909.647	16542
909.762	16691
909.878	16558
909.993	16713
910.108	16531
910.224	16645
910.339	16649
910.454	16440
910.57	16493
910.685	16371
910.8	16653
910.915	16577
911.03	16322
911.145	16162
911.259	16135
911.374	16169
911.489	16166
911.604	16036
911.718	15960
911.833	15987
911.947	15892
912.062	15857
912.176	15979
912.291	15964
912.405	16002
912.519	16078
912.633	16238
912.748	15922
912.862	15922
912.976	15736
913.09	15614
913.204	15861
913.318	15739
913.431	15823
913.545	15827
913.659	15911
913.772	15686
913.886	15614
914	15603
914.113	15622
914.226	15701
914.34	15622
914.453	15424
914.566	15618
914.68	15443
914.793	15340
914.906	15275
915.019	15157
915.132	15131
915.245	15077
915.358	15176
915.47	15207
915.583	15142
915.696	15230
915.809	15344
915.921	15317
916.034	15074
916.146	15036
916.259	15051
916.371	15150
916.483	15131
916.595	14994
916.708	14941
916.82	14994
916.932	14902
917.044	14956
917.156	14868
917.268	14842
917.38	14826
917.491	14788
917.603	14800
917.715	14807
917.826	14948
917.938	14705
918.049	14712
918.161	14876
918.272	14895
918.384	14925
918.495	14689
918.606	14556
918.717	14503
918.828	14568
918.939	14625
919.05	14469
919.161	14484
919.272	14313
919.383	14396
919.494	14590
919.604	14667
919.715	14560
919.826	14488
919.936	14465
920.047	14564
920.157	14415
920.267	14636
920.378	14587
920.488	14511
920.598	14636
920.708	14746
920.818	14629
920.928	14651
921.038	14758
921.148	14800
921.258	14446
921.368	14320
921.477	14248
921.587	14096
921.697	14062
921.806	14233
921.916	14020
922.025	13921
922.134	13890
922.244	13742
922.353	13811
922.462	13719
922.571	13571
922.68	13472
922.789	13468
922.898	13476
923.007	13464
923.116	13514
923.224	13384
923.333	13312
923.442	13331
923.55	13266
923.659	13270
923.767	13312
923.876	13171
923.984	13236
924.092	13164
924.201	13244
924.309	13301
924.417	13217
924.525	13156
924.633	13145
924.741	14031
924.849	12886
924.956	13069
925.064	12958
925.172	12798
925.279	12856
925.387	12905
925.494	12806
925.602	13103
925.709	12958
925.816	12817
925.924	12848
926.031	12954
926.138	12867
926.245	12837
926.352	12772
926.459	12821
926.566	12856
926.673	12776
926.779	12604
926.886	12662
926.993	12399
927.099	12452
927.206	12342
927.312	12502
927.419	12536
927.525	12376
927.631	12456
927.737	12365
927.843	12323
927.95	12232
928.056	12262
928.162	12232
928.267	12289
928.373	12913
928.479	12372
928.585	12072
928.69	12220
928.796	12232
928.901	12148
929.007	11984
929.112	12045
929.218	12114
929.323	11946
929.428	11992
929.533	12144
929.638	11969
929.743	11931
929.848	12022
929.953	11897
930.058	11817
930.163	11665
930.267	11733
930.372	11851
930.477	11646
930.581	11855
930.685	11710
930.79	11512
930.894	11547
930.998	11505
931.103	11657
931.207	11193
931.311	11174
931.415	11117
931.519	10957
931.623	10850
