Data from test_V78500241_1915.txt Node
Date: Fri Mar 25 15:55:04 CST 2022
User: usil
Spectrometer: V785-0024
Trigger mode: 0
Integration Time (sec): 4.000000E-1
Scans to average: 1
Nonlinearity correction enabled: false
Boxcar width: 0
Storing dark spectrum: false
XAxis mode: Wavelengths
Number of Pixels in Spectrum: 1024
>>>>>Begin Spectral Data<<<<<
801.071	28687
801.214	28580
801.356	28303
801.499	28215
801.641	28177
801.783	28230
801.926	28325
802.068	28261
802.211	28280
802.353	28234
802.496	27953
802.638	27945
802.78	27865
802.923	27949
803.065	27895
803.208	27892
803.35	27979
803.492	28082
803.635	28223
803.777	28059
803.919	28173
804.061	28554
804.204	28200
804.346	28109
804.488	28143
804.63	28147
804.773	28173
804.915	28238
805.057	28401
805.199	28257
805.341	28238
805.483	28360
805.626	28325
805.768	28341
805.91	28306
806.052	28367
806.194	28246
806.336	28459
806.478	28371
806.62	28405
806.762	28565
806.904	28656
807.046	28942
807.188	28896
807.33	28862
807.472	28881
807.614	28767
807.756	28896
807.898	28660
808.04	28725
808.182	28497
808.324	28561
808.465	28771
808.607	28942
808.749	29025
808.891	29079
809.033	29273
809.174	29090
809.316	28854
809.458	28953
809.6	28976
809.741	29083
809.883	29117
810.025	29307
810.166	29318
810.308	29235
810.45	29181
810.591	29166
810.733	29121
810.875	28999
811.016	29018
811.158	28980
811.299	29178
811.441	29318
811.582	29197
811.724	29098
811.865	29140
812.007	29025
812.148	29102
812.29	29136
812.431	29128
812.573	29360
812.714	29524
812.855	29623
812.997	29760
813.138	29893
813.279	29573
813.421	29570
813.562	29501
813.703	29334
813.845	29223
813.986	29033
814.127	28946
814.268	28713
814.41	28809
814.551	28717
814.692	28873
814.833	28843
814.974	28752
815.115	28820
815.256	28702
815.397	28557
815.539	28618
815.68	28535
815.821	28550
815.962	28546
816.103	28542
816.244	28577
816.385	28428
816.526	28276
816.666	28284
816.807	28120
816.948	28059
817.089	28196
817.23	27930
817.371	27953
817.512	27991
817.653	28124
817.793	28010
817.934	28055
818.075	28215
818.216	28078
818.356	28032
818.497	28010
818.638	27869
818.778	27842
818.919	28013
819.06	27941
819.2	27857
819.341	28013
819.481	28017
819.622	28128
819.762	28379
819.903	28363
820.043	28287
820.184	28192
820.324	28318
820.465	28261
820.605	28090
820.746	28162
820.886	28143
821.026	28242
821.167	28154
821.307	28348
821.447	28234
821.588	28116
821.728	27846
821.868	27736
822.008	27633
822.149	27462
822.289	27599
822.429	27485
822.569	27135
822.709	27211
822.849	27032
822.99	27089
823.13	26887
823.27	27001
823.41	26887
823.55	26933
823.69	26918
823.83	27013
823.97	26906
824.11	26659
824.25	26705
824.389	26651
824.529	26705
824.669	26579
824.809	26735
824.949	26872
825.089	26861
825.228	26682
825.368	26674
825.508	26636
825.648	26663
825.787	26571
825.927	26693
826.067	26507
826.206	26583
826.346	26621
826.485	26625
826.625	26609
826.765	26651
826.904	26705
827.044	26446
827.183	26389
827.323	26317
827.462	26355
827.601	26267
827.741	26400
827.88	26332
828.02	26172
828.159	26339
828.298	26252
828.437	26332
828.577	26180
828.716	26453
828.855	26286
828.994	25913
829.134	25868
829.273	26035
829.412	25818
829.551	25887
829.69	25986
829.829	25947
829.968	26149
830.107	26054
830.246	25928
830.385	25947
830.524	25849
830.663	25837
830.802	25658
830.941	25567
831.08	25537
831.219	25681
831.357	25655
831.496	25799
831.635	25487
831.774	25537
831.913	25537
832.051	25449
832.19	25316
832.329	25441
832.467	25289
832.606	25282
832.744	25213
832.883	25293
833.022	25168
833.16	25266
833.299	25312
833.437	25209
833.576	25441
833.714	25468
833.852	25441
833.991	25362
834.129	25377
834.267	25343
834.406	25324
834.544	25289
834.682	25282
834.821	25225
834.959	25411
835.097	25236
835.235	25339
835.373	25339
835.511	25327
835.65	25270
835.788	25228
835.926	25027
836.064	24932
836.202	25008
836.34	25057
836.478	25156
836.615	25088
836.753	25160
836.891	25160
837.029	25221
837.167	25057
837.305	24996
837.443	24996
837.58	25061
837.718	25099
837.856	25072
837.993	25065
838.131	24905
838.269	24939
838.406	24863
838.544	24970
838.681	24642
838.819	24646
838.956	24433
839.094	24521
839.231	24528
839.369	24635
839.506	24837
839.643	24677
839.781	24483
839.918	24532
840.055	24369
840.193	24407
840.33	24300
840.467	24384
840.604	24304
840.742	24620
840.879	24125
841.016	24152
841.153	24323
841.29	24547
841.427	24281
841.564	24403
841.701	24277
841.838	24262
841.975	24194
842.112	24247
842.249	24095
842.385	23961
842.522	24323
842.659	24251
842.796	24129
842.933	24106
843.069	24053
843.206	24087
843.343	24178
843.479	24133
843.616	24144
843.752	23889
843.889	23859
844.025	24034
844.162	23809
844.298	23855
844.435	23866
844.571	23802
844.708	23961
844.844	23977
844.98	24076
845.117	24064
845.253	23798
845.389	23733
845.525	23767
845.661	23676
845.798	23551
845.934	23638
846.07	23562
846.206	23748
846.342	23668
846.478	23592
846.614	23512
846.75	23334
846.886	23193
847.022	23406
847.158	23391
847.294	23372
847.429	23356
847.565	23277
847.701	23638
847.837	23162
847.972	23018
848.108	23197
848.244	23216
848.379	22862
848.515	22984
848.65	22873
848.786	22949
848.921	22946
849.057	23003
849.192	23018
849.328	22980
849.463	23018
849.598	22881
849.734	22847
849.869	22847
850.004	22740
850.14	22782
850.275	22767
850.41	22569
850.545	22596
850.68	22481
850.815	22679
850.95	22694
851.085	22843
851.22	22850
851.355	22668
851.49	22710
851.625	22626
851.76	22706
851.895	22653
852.03	22607
852.165	22557
852.299	22641
852.434	22717
852.569	22729
852.703	22740
852.838	22687
852.973	22744
853.107	22755
853.242	22607
853.376	22542
853.511	22474
853.645	22531
853.78	22679
853.914	22637
854.048	22447
854.183	22546
854.317	22584
854.451	22615
854.585	22542
854.72	22561
854.854	22516
854.988	22382
855.122	22516
855.256	22341
855.39	22405
855.524	22500
855.658	22497
855.792	22565
855.926	22596
856.06	22527
856.194	22577
856.327	22512
856.461	22352
856.595	22489
856.729	22474
856.862	22675
856.996	22504
857.13	22557
857.263	22603
857.397	22569
857.53	22542
857.664	22557
857.797	22596
857.931	22786
858.064	22516
858.197	22599
858.331	22371
858.464	22462
858.597	22268
858.731	22538
858.864	22466
858.997	22542
859.13	22466
859.263	22565
859.396	22538
859.529	22447
859.662	22443
859.795	22485
859.928	22557
860.061	22694
860.194	22618
860.327	22588
860.46	22440
860.592	22691
860.725	22580
860.858	22550
860.99	22512
861.123	22462
861.256	22459
861.388	22474
861.521	23296
861.653	22371
861.786	22280
861.918	22299
862.05	22314
862.183	22402
862.315	22474
862.447	22459
862.58	22382
862.712	22143
862.844	22086
862.976	22291
863.108	22318
863.24	22752
863.372	22158
863.504	22124
863.636	22207
863.768	22200
863.9	22295
864.032	22097
864.164	22284
864.296	22238
864.428	22200
864.559	22360
864.691	22261
864.823	22226
864.954	22173
865.086	22299
865.217	22169
865.349	22002
865.48	21994
865.612	22010
865.743	22169
865.875	22101
866.006	21975
866.137	22097
866.269	22078
866.4	22086
866.531	21937
866.662	22025
866.793	22021
866.924	22017
867.055	22002
867.186	21994
867.317	21934
867.448	21960
867.579	21964
867.71	21979
867.841	21918
867.972	22093
868.103	22021
868.233	22048
868.364	21975
868.495	22101
868.625	22257
868.756	22253
868.886	22150
869.017	22093
869.147	22375
869.278	22284
869.408	22230
869.539	22204
869.669	22299
869.799	22306
869.929	22314
870.06	22409
870.19	22443
870.32	22497
870.45	22607
870.58	22675
870.71	22759
870.84	22778
870.97	22691
871.1	22580
871.23	22786
871.36	22889
871.489	22713
871.619	22748
871.749	22698
871.879	22809
872.008	23037
872.138	23037
872.267	22847
872.397	22771
872.526	22706
872.656	22675
872.785	22565
872.915	22968
873.044	22930
873.173	22843
873.303	22862
873.432	22904
873.561	23044
873.69	22839
873.819	22881
873.948	22919
874.077	22771
874.206	22843
874.335	22942
874.464	22972
874.593	23041
874.722	22961
874.851	23105
874.979	23117
875.108	23121
875.237	23048
875.365	22892
875.494	23132
875.623	23140
875.751	23014
875.88	22999
876.008	23220
876.136	23288
876.265	23482
876.393	23592
876.521	23497
876.65	23577
876.778	23497
876.906	23414
877.034	23364
877.162	23482
877.29	23334
877.418	23395
877.546	23318
877.674	23372
877.802	23490
877.93	23436
878.058	23311
878.185	23231
878.313	23239
878.441	23376
878.568	23265
878.696	23269
878.824	23448
878.951	23425
879.079	23581
879.206	23680
879.333	23417
879.461	23425
879.588	23497
879.715	23570
879.842	23794
879.97	23600
880.097	23185
880.224	23296
880.351	23395
880.478	23242
880.605	23181
880.732	23265
880.859	23383
880.986	23162
881.112	23170
881.239	23033
881.366	22976
881.493	22927
881.619	22812
881.746	22877
881.872	22850
881.999	22843
882.125	22717
882.252	22839
882.378	22793
882.505	22873
882.631	22565
882.757	22489
882.883	22596
883.01	22459
883.136	22421
883.262	22382
883.388	22295
883.514	22440
883.64	22565
883.766	22470
883.892	22314
884.018	22303
884.143	22348
884.269	22356
884.395	22322
884.52	22017
884.646	22101
884.772	22120
884.897	21956
885.023	22105
885.148	22188
885.274	22322
885.399	22287
885.524	22192
885.65	22074
885.775	22063
885.9	22147
886.025	22177
886.15	22215
886.275	22067
886.4	21945
886.525	21956
886.65	22086
886.775	22017
886.9	22230
887.025	22291
887.149	21945
887.274	21949
887.399	21937
887.523	21861
887.648	21797
887.773	21884
887.897	21964
888.021	21850
888.146	21785
888.27	21930
888.395	22017
888.519	21945
888.643	21835
888.767	21842
888.891	21694
889.015	21641
889.139	21682
889.263	21652
889.387	21766
889.511	21884
889.635	21766
889.759	21675
889.883	21770
890.006	21701
890.13	21728
890.254	21599
890.377	21515
890.501	21450
890.624	21260
890.748	21386
890.871	21363
890.995	21173
891.118	21081
891.241	21207
891.364	21195
891.488	21294
891.611	21188
891.734	21222
891.857	21260
891.98	21245
892.103	21264
892.226	21131
892.349	21039
892.471	21081
892.594	21142
892.717	21119
892.839	21070
892.962	21043
893.085	21329
893.207	21085
893.33	21062
893.452	21055
893.575	21058
893.697	21005
893.819	21218
893.941	21401
894.064	21207
894.186	21032
894.308	20891
894.43	21218
894.552	21119
894.674	21138
894.796	20857
894.918	21123
895.04	21096
895.161	21173
895.283	21169
895.405	21028
895.526	21055
895.648	20967
895.769	21104
895.891	21066
896.012	21096
896.134	21074
896.255	21176
896.376	21077
896.498	21047
896.619	21066
896.74	21100
896.861	21085
896.982	21431
897.103	21599
897.224	21348
897.345	21374
897.466	21184
897.587	21302
897.708	21298
897.828	21351
897.949	21207
898.07	21081
898.19	21135
898.311	21359
898.431	21188
898.552	21195
898.672	21279
898.792	21298
898.913	21298
899.033	21066
899.153	21081
899.273	20979
899.393	21043
899.513	20998
899.633	21066
899.753	21093
899.873	21017
899.993	20975
900.113	21047
900.232	20967
900.352	20853
900.472	20788
900.591	20792
900.711	20857
900.83	20636
900.95	20781
901.069	20876
901.189	20724
901.308	20450
901.427	20267
901.546	20282
901.665	20332
901.784	20389
901.904	20161
902.023	20031
902.141	19925
902.26	19978
902.379	19852
902.498	19784
902.617	19734
902.735	19921
902.854	19791
902.973	19818
903.091	19544
903.21	19384
903.328	19590
903.446	19373
903.565	19301
903.683	19343
903.801	19198
903.919	19236
904.038	19145
904.156	18993
904.274	19156
904.392	18920
904.51	18935
904.627	18932
904.745	19148
904.863	19145
904.981	18886
905.098	18715
905.216	18688
905.334	18646
905.451	18719
905.569	18753
905.686	18711
905.803	18661
905.921	18544
906.038	18623
906.155	18620
906.272	18445
906.389	18445
906.506	18361
906.623	18319
906.74	18205
906.857	18064
906.974	18186
907.091	18350
907.208	18414
907.324	18357
907.441	18064
907.557	18022
907.674	17996
907.79	17965
907.907	17931
908.023	17973
908.139	17961
908.256	17980
908.372	17866
908.488	17828
908.604	17718
908.72	17558
908.836	17615
908.952	17649
909.068	17836
909.184	17824
909.3	17661
909.415	17665
909.531	17668
909.647	17372
909.762	17421
909.878	17318
909.993	17273
910.108	17360
910.224	17277
910.339	17322
910.454	17273
910.57	17170
910.685	17102
910.8	17288
910.915	17212
911.03	17151
911.145	16949
911.259	16824
911.374	16919
911.489	16847
911.604	16866
911.718	16656
911.833	16664
911.947	16607
912.062	16584
912.176	16713
912.291	16660
912.405	16653
912.519	16930
912.633	16854
912.748	16748
912.862	16618
912.976	16489
913.09	16375
913.204	16478
913.318	16470
913.431	16599
913.545	16531
913.659	16588
913.772	16531
913.886	16348
914	16246
914.113	16428
914.226	16424
914.34	16287
914.453	16211
914.566	16272
914.68	16188
914.793	16120
914.906	15892
915.019	15888
915.132	15865
915.245	15884
915.358	15823
915.47	15842
915.583	15850
915.696	15884
915.809	15934
915.921	15926
916.034	15816
916.146	15800
916.259	15781
916.371	15755
916.483	15743
916.595	15743
916.708	15637
916.82	15622
916.932	15618
917.044	15591
917.156	15603
917.268	15431
917.38	15496
917.491	15393
917.603	15443
917.715	15534
917.826	15568
917.938	15477
918.049	15443
918.161	15401
918.272	15622
918.384	15496
918.495	15329
918.606	15260
918.717	15256
918.828	15268
918.939	15283
919.05	15195
919.161	15207
919.272	14982
919.383	15176
919.494	15252
919.604	15389
919.715	15142
919.826	15138
919.936	15226
920.047	15294
920.157	15195
920.267	15283
920.378	15207
920.488	15104
920.598	15351
920.708	15507
920.818	15313
920.928	15264
921.038	15523
921.148	15424
921.258	15055
921.368	14998
921.477	14887
921.587	14838
921.697	14762
921.806	14872
921.916	14746
922.025	14648
922.134	14541
922.244	14454
922.353	14575
922.462	14446
922.571	14362
922.68	14351
922.789	14180
922.898	14176
923.007	14100
923.116	14271
923.224	14111
923.333	14058
923.442	14027
923.55	14054
923.659	14001
923.767	14024
923.876	13978
923.984	13993
924.092	13868
924.201	13875
924.309	13909
924.417	13909
924.525	13807
924.633	13868
924.741	14727
924.849	13685
924.956	13712
925.064	13567
925.172	13521
925.279	13521
925.387	13533
925.494	13514
925.602	13643
925.709	13540
925.816	13483
925.924	13518
926.031	13578
926.138	13544
926.245	13491
926.352	13373
926.459	13525
926.566	13567
926.673	13384
926.779	13320
926.886	13259
926.993	13164
927.099	13160
927.206	13122
927.312	13015
927.419	13103
927.525	13084
927.631	13160
927.737	12993
927.843	13015
927.95	12779
928.056	12973
928.162	12951
928.267	12966
928.373	13567
928.479	13000
928.585	12783
928.69	12886
928.796	12954
928.901	12806
929.007	12677
929.112	12768
929.218	12802
929.323	12684
929.428	12703
929.533	12768
929.638	12604
929.743	12620
929.848	12673
929.953	12563
930.058	12521
930.163	12319
930.267	12369
930.372	12452
930.477	12429
930.581	12471
930.685	12357
930.79	12220
930.894	12243
930.998	12155
931.103	12258
931.207	12053
931.311	11836
931.415	11775
931.519	11570
931.623	11604
