Data from test_V78500241_1865.txt Node
Date: Fri Mar 25 15:54:43 CST 2022
User: usil
Spectrometer: V785-0024
Trigger mode: 0
Integration Time (sec): 4.000000E-1
Scans to average: 1
Nonlinearity correction enabled: false
Boxcar width: 0
Storing dark spectrum: false
XAxis mode: Wavelengths
Number of Pixels in Spectrum: 1024
>>>>>Begin Spectral Data<<<<<
801.071	28626
801.214	28519
801.356	28341
801.499	28371
801.641	28166
801.783	28086
801.926	28280
802.068	28051
802.211	28112
802.353	28067
802.496	27983
802.638	27907
802.78	27922
802.923	27934
803.065	27698
803.208	27899
803.35	27800
803.492	28010
803.635	27994
803.777	27880
803.919	28032
804.061	28554
804.204	28067
804.346	27979
804.488	28097
804.63	28036
804.773	27972
804.915	28082
805.057	28207
805.199	28169
805.341	28265
805.483	28257
805.626	28291
805.768	28211
805.91	28375
806.052	28325
806.194	28261
806.336	28333
806.478	28401
806.62	28268
806.762	28367
806.904	28375
807.046	28873
807.188	28683
807.33	28634
807.472	28797
807.614	28759
807.756	28596
807.898	28603
808.04	28466
808.182	28337
808.324	28500
808.465	28698
808.607	28736
808.749	28911
808.891	29102
809.033	29022
809.174	28976
809.316	28980
809.458	28961
809.6	28885
809.741	29090
809.883	29098
810.025	29265
810.166	29280
810.308	29136
810.45	29185
810.591	29006
810.733	28881
810.875	28881
811.016	28866
811.158	28786
811.299	28968
811.441	29102
811.582	29109
811.724	28991
811.865	28797
812.007	28831
812.148	28854
812.29	28987
812.431	29208
812.573	29261
812.714	29349
812.855	29398
812.997	29627
813.138	29756
813.279	29497
813.421	29421
813.562	29520
813.703	29334
813.845	29128
813.986	28980
814.127	28778
814.268	28656
814.41	28622
814.551	28675
814.692	28721
814.833	28706
814.974	28531
815.115	28687
815.256	28523
815.397	28607
815.539	28535
815.68	28459
815.821	28310
815.962	28478
816.103	28375
816.244	28322
816.385	28219
816.526	28211
816.666	28067
816.807	27892
816.948	28101
817.089	28040
817.23	28131
817.371	27994
817.512	27842
817.653	27861
817.793	27838
817.934	27884
818.075	28082
818.216	28067
818.356	27778
818.497	27690
818.638	27663
818.778	27720
818.919	27614
819.06	27709
819.2	27739
819.341	27972
819.481	28105
819.622	28162
819.762	28341
819.903	28192
820.043	28139
820.184	28002
820.324	28048
820.465	28348
820.605	28002
820.746	28002
820.886	27934
821.026	28063
821.167	27903
821.307	28135
821.447	28131
821.588	27907
821.728	27797
821.868	27637
822.008	27363
822.149	27443
822.289	27370
822.429	27195
822.569	27211
822.709	27203
822.849	26838
822.99	26960
823.13	27154
823.27	26864
823.41	26682
823.55	26514
823.69	26796
823.83	26689
823.97	26575
824.11	26724
824.25	26636
824.389	26549
824.529	26625
824.669	26686
824.809	26735
824.949	26693
825.089	26746
825.228	26621
825.368	26385
825.508	26393
825.648	26659
825.787	26465
825.927	26495
826.067	26507
826.206	26480
826.346	26507
826.485	26564
826.625	26473
826.765	26556
826.904	26549
827.044	26252
827.183	26259
827.323	26191
827.462	26149
827.601	26225
827.741	26195
827.88	26180
828.02	26168
828.159	26210
828.298	26130
828.437	26202
828.577	25966
828.716	26157
828.855	26065
828.994	25765
829.134	25807
829.273	25902
829.412	25890
829.551	25742
829.69	25890
829.829	25788
829.968	25772
830.107	25898
830.246	25871
830.385	25818
830.524	25871
830.663	25666
830.802	25586
830.941	25499
831.08	25369
831.219	25476
831.357	25575
831.496	25655
831.635	25403
831.774	25346
831.913	25343
832.051	25327
832.19	25244
832.329	25209
832.467	25293
832.606	25183
832.744	25148
832.883	25213
833.022	25057
833.16	25194
833.299	25133
833.437	25244
833.576	25194
833.714	25160
833.852	25278
833.991	25194
834.129	25312
834.267	25282
834.406	25362
834.544	25187
834.682	25194
834.821	25095
834.959	25419
835.097	25168
835.235	25198
835.373	25129
835.511	25145
835.65	25065
835.788	25118
835.926	25027
836.064	24795
836.202	24951
836.34	25027
836.478	25164
836.615	25023
836.753	25012
836.891	25198
837.029	24962
837.167	24985
837.305	24852
837.443	24833
837.58	24943
837.718	24928
837.856	24913
837.993	24757
838.131	24897
838.269	24825
838.406	24631
838.544	24563
838.681	24563
838.819	24540
838.956	24281
839.094	24292
839.231	24232
839.369	24369
839.506	24559
839.643	24650
839.781	24384
839.918	24220
840.055	24319
840.193	24319
840.33	24262
840.467	24197
840.604	24205
840.742	24505
840.879	24076
841.016	24235
841.153	24022
841.29	24239
841.427	24239
841.564	24133
841.701	24220
841.838	24273
841.975	24079
842.112	24117
842.249	24034
842.385	24114
842.522	24167
842.659	24018
842.796	23901
842.933	23958
843.069	23950
843.206	24083
843.343	24026
843.479	23912
843.616	23931
843.752	23745
843.889	23920
844.025	23942
844.162	23668
844.298	23847
844.435	23878
844.571	23627
844.708	23802
844.844	23889
844.98	23950
845.117	23863
845.253	23703
845.389	23577
845.525	23760
845.661	23566
845.798	23592
845.934	23486
846.07	23410
846.206	23615
846.342	23680
846.478	23604
846.614	23349
846.75	23197
846.886	23216
847.022	23261
847.158	23117
847.294	23292
847.429	23193
847.565	23292
847.701	23402
847.837	22885
847.972	22908
848.108	23086
848.244	23006
848.379	22786
848.515	22904
848.65	22687
848.786	22664
848.921	22816
849.057	22972
849.192	22824
849.328	22805
849.463	22805
849.598	22660
849.734	22573
849.869	22622
850.004	22649
850.14	22615
850.275	22611
850.41	22523
850.545	22519
850.68	22447
850.815	22531
850.95	22577
851.085	22721
851.22	22881
851.355	22660
851.49	22462
851.625	22485
851.76	22588
851.895	22436
852.03	22542
852.165	22588
852.299	22679
852.434	22618
852.569	22744
852.703	22542
852.838	22706
852.973	22679
853.107	22664
853.242	22470
853.376	22455
853.511	22242
853.645	22295
853.78	22436
853.914	22363
854.048	22413
854.183	22470
854.317	22295
854.451	22485
854.585	22394
854.72	22451
854.854	22451
854.988	22249
855.122	22295
855.256	22268
855.39	22436
855.524	22580
855.658	22390
855.792	22409
855.926	22436
856.06	22360
856.194	22550
856.327	22280
856.461	22322
856.595	22417
856.729	22291
856.862	22588
856.996	22363
857.13	22428
857.263	22394
857.397	22424
857.53	22371
857.664	22405
857.797	22363
857.931	22459
858.064	22356
858.197	22409
858.331	22280
858.464	22291
858.597	22268
858.731	22390
858.864	22253
858.997	22284
859.13	22455
859.263	22303
859.396	22432
859.529	22367
859.662	22405
859.795	22329
859.928	22413
860.061	22527
860.194	22580
860.327	22500
860.46	22360
860.592	22527
860.725	22554
860.858	22531
860.99	22390
861.123	22238
861.256	22257
861.388	22405
861.521	23239
861.653	22242
861.786	22139
861.918	22265
862.05	22310
862.183	22253
862.315	22265
862.447	22310
862.58	22314
862.712	22158
862.844	22025
862.976	22158
863.108	22158
863.24	22668
863.372	22086
863.504	22120
863.636	22044
863.768	22051
863.9	21994
864.032	22013
864.164	22162
864.296	22097
864.428	22246
864.559	22135
864.691	22177
864.823	22055
864.954	22070
865.086	22078
865.217	21953
865.349	21884
865.48	21941
865.612	22002
865.743	22249
865.875	21956
866.006	21945
866.137	22029
866.269	21968
866.4	21918
866.531	21964
866.662	21854
866.793	21930
866.924	21983
867.055	21865
867.186	21937
867.317	21911
867.448	21941
867.579	21865
867.71	21778
867.841	21865
867.972	21846
868.103	21762
868.233	21987
868.364	21835
868.495	21903
868.625	22036
868.756	22226
868.886	21975
869.017	22116
869.147	22238
869.278	22325
869.408	22162
869.539	22109
869.669	22226
869.799	22204
869.929	22173
870.06	22215
870.19	22424
870.32	22390
870.45	22615
870.58	22584
870.71	22535
870.84	22493
870.97	22485
871.1	22512
871.23	22656
871.36	22687
871.489	22596
871.619	22664
871.749	22691
871.879	22713
872.008	22782
872.138	22694
872.267	22767
872.397	22786
872.526	22630
872.656	22573
872.785	22512
872.915	22763
873.044	22733
873.173	22698
873.303	22755
873.432	22778
873.561	22847
873.69	22721
873.819	22702
873.948	22717
874.077	22683
874.206	22675
874.335	22664
874.464	22869
874.593	22953
874.722	22816
874.851	22946
874.979	23094
875.108	23155
875.237	23003
875.365	22816
875.494	22854
875.623	23056
875.751	22995
875.88	22934
876.008	23071
876.136	23170
876.265	23341
876.393	23509
876.521	23337
876.65	23395
876.778	23326
876.906	23273
877.034	23318
877.162	23235
877.29	23349
877.418	23303
877.546	23250
877.674	23284
877.802	23223
877.93	23181
878.058	23159
878.185	23079
878.313	23269
878.441	23258
878.568	23094
878.696	23254
878.824	23280
878.951	23410
879.079	23482
879.206	23619
879.333	23360
879.461	23334
879.588	23379
879.715	23581
879.842	23497
879.97	23356
880.097	23208
880.224	23162
880.351	23083
880.478	23181
880.605	23060
880.732	23044
880.859	23296
880.986	23170
881.112	23075
881.239	22984
881.366	22968
881.493	22755
881.619	22729
881.746	22672
881.872	22611
881.999	22626
882.125	22531
882.252	22744
882.378	22550
882.505	22786
882.631	22649
882.757	22238
882.883	22508
883.01	22325
883.136	22360
883.262	22238
883.388	22226
883.514	22344
883.64	22382
883.766	22246
883.892	22181
884.018	22166
884.143	22242
884.269	22219
884.395	22002
884.52	21953
884.646	22063
884.772	21956
884.897	21880
885.023	22090
885.148	22044
885.274	22135
885.399	22196
885.524	21869
885.65	21930
885.775	21945
885.9	21869
886.025	22124
886.15	22010
886.275	22002
886.4	21800
886.525	21941
886.65	21895
886.775	21903
886.9	22048
887.025	22196
887.149	21968
887.274	21743
887.399	21778
887.523	21751
887.648	21739
887.773	21766
887.897	21690
888.021	21724
888.146	21603
888.27	21865
888.395	21873
888.519	21755
888.643	21755
888.767	21717
888.891	21648
889.015	21492
889.139	21542
889.263	21458
889.387	21545
889.511	21766
889.635	21675
889.759	21500
889.883	21492
890.006	21583
890.13	21564
890.254	21428
890.377	21519
890.501	21389
890.624	21173
890.748	21268
890.871	21135
890.995	21108
891.118	21127
891.241	21058
891.364	21138
891.488	21184
891.611	21142
891.734	21070
891.857	21195
891.98	21142
892.103	21203
892.226	21047
892.349	21043
892.471	20906
892.594	21096
892.717	21028
892.839	21001
892.962	20960
893.085	21096
893.207	21032
893.33	20804
893.452	20811
893.575	21043
893.697	21036
893.819	21066
893.941	21207
894.064	21165
894.186	20982
894.308	20937
894.43	21131
894.552	21188
894.674	21066
894.796	20853
894.918	20910
895.04	20864
895.161	20948
895.283	20979
895.405	20952
895.526	21013
895.648	20883
895.769	21005
895.891	20994
896.012	21100
896.134	21036
896.255	21013
896.376	20975
896.498	20937
896.619	20895
896.74	20967
896.861	21077
896.982	21291
897.103	21481
897.224	21195
897.345	21135
897.466	21184
897.587	21214
897.708	21218
897.828	21268
897.949	21138
898.07	20979
898.19	21146
898.311	21237
898.431	21058
898.552	21131
898.672	21138
898.792	21317
898.913	21116
899.033	21028
899.153	20933
899.273	20853
899.393	20880
899.513	21074
899.633	20963
899.753	20971
899.873	20773
899.993	20982
900.113	20838
900.232	20887
900.352	20686
900.472	20796
900.591	20689
900.711	20568
900.83	20533
900.95	20727
901.069	20823
901.189	20598
901.308	20294
901.427	20214
901.546	20362
901.665	20214
901.784	20332
901.904	20191
902.023	19959
902.141	19860
902.26	19731
902.379	19750
902.498	19795
902.617	19723
902.735	19757
902.854	19677
902.973	19624
903.091	19350
903.21	19308
903.328	19381
903.446	19285
903.565	19171
903.683	19247
903.801	19061
903.919	19099
904.038	19129
904.156	19057
904.274	18970
904.392	18920
904.51	18935
904.627	18909
904.745	18894
904.863	19004
904.981	18734
905.098	18654
905.216	18597
905.334	18639
905.451	18658
905.569	18642
905.686	18601
905.803	18684
905.921	18475
906.038	18559
906.155	18353
906.272	18365
906.389	18285
906.506	18224
906.623	18174
906.74	18140
906.857	18049
906.974	18057
907.091	18182
907.208	18292
907.324	18011
907.441	18011
907.557	17973
907.674	17828
907.79	17790
907.907	17878
908.023	17885
908.139	17885
908.256	17821
908.372	17775
908.488	17741
908.604	17619
908.72	17524
908.836	17585
908.952	17429
909.068	17691
909.184	17783
909.3	17566
909.415	17497
909.531	17463
909.647	17307
909.762	17231
909.878	17258
909.993	17239
910.108	17345
910.224	17174
910.339	17204
910.454	17132
910.57	17128
910.685	16957
910.8	17296
910.915	17162
911.03	16980
911.145	16812
911.259	16793
911.374	16839
911.489	16831
911.604	16698
911.718	16493
911.833	16615
911.947	16508
912.062	16466
912.176	16603
912.291	16615
912.405	16599
912.519	16858
912.633	16755
912.748	16694
912.862	16558
912.976	16386
913.09	16272
913.204	16386
913.318	16337
913.431	16386
913.545	16519
913.659	16455
913.772	16341
913.886	16306
914	16120
914.113	16181
914.226	16322
914.34	16192
914.453	16040
914.566	16181
914.68	16112
914.793	16017
914.906	15956
915.019	15770
915.132	15698
915.245	15720
915.358	15800
915.47	15766
915.583	15747
915.696	15732
915.809	15903
915.921	15918
916.034	15709
916.146	15682
916.259	15709
916.371	15701
916.483	15743
916.595	15599
916.708	15614
916.82	15591
916.932	15492
917.044	15534
917.156	15450
917.268	15389
917.38	15496
917.491	15336
917.603	15397
917.715	15496
917.826	15488
917.938	15211
918.049	15230
918.161	15424
918.272	15507
918.384	15412
918.495	15287
918.606	15237
918.717	15077
918.828	15195
918.939	15184
919.05	15142
919.161	15237
919.272	14902
919.383	15089
919.494	15214
919.604	15317
919.715	15237
919.826	15138
919.936	15157
920.047	15241
920.157	15112
920.267	15317
920.378	15066
920.488	15066
920.598	15317
920.708	15393
920.818	15188
920.928	15245
921.038	15408
921.148	15378
921.258	15116
921.368	14963
921.477	14891
921.587	14826
921.697	14769
921.806	14838
921.916	14746
922.025	14575
922.134	14537
922.244	14476
922.353	14480
922.462	14427
922.571	14427
922.68	14248
922.789	14183
922.898	14153
923.007	14062
923.116	14138
923.224	14157
923.333	14092
923.442	13921
923.55	13955
923.659	14069
923.767	14012
923.876	13830
923.984	13997
924.092	13769
924.201	13830
924.309	13936
924.417	13864
924.525	13788
924.633	13708
924.741	14507
924.849	13689
924.956	13765
925.064	13559
925.172	13480
925.279	13563
925.387	13525
925.494	13464
925.602	13658
925.709	13597
925.816	13460
925.924	13392
926.031	13578
926.138	13483
926.245	13480
926.352	13358
926.459	13544
926.566	13506
926.673	13483
926.779	13221
926.886	13206
926.993	13179
927.099	12989
927.206	12993
927.312	13023
927.419	13137
927.525	12985
927.631	13080
927.737	12852
927.843	12848
927.95	12814
928.056	12882
928.162	12913
928.267	12920
928.373	13616
928.479	12977
928.585	12673
928.69	12825
928.796	12856
928.901	12768
929.007	12677
929.112	12696
929.218	12631
929.323	12658
929.428	12540
929.533	12627
929.638	12521
929.743	12563
929.848	12582
929.953	12547
930.058	12372
930.163	12235
930.267	12232
930.372	12460
930.477	12175
930.581	12433
930.685	12209
930.79	12140
930.894	12182
930.998	12072
931.103	12216
931.207	11821
931.311	11802
931.415	11771
931.519	11440
931.623	11486
