Data from test_V78500241_821.txt Node
Date: Fri Mar 25 15:47:29 CST 2022
User: usil
Spectrometer: V785-0024
Trigger mode: 0
Integration Time (sec): 4.000000E-1
Scans to average: 1
Nonlinearity correction enabled: false
Boxcar width: 0
Storing dark spectrum: false
XAxis mode: Wavelengths
Number of Pixels in Spectrum: 1024
>>>>>Begin Spectral Data<<<<<
801.071	28169
801.214	28006
801.356	27880
801.499	27648
801.641	27663
801.783	27568
801.926	27728
802.068	27603
802.211	27424
802.353	27500
802.496	27218
802.638	27272
802.78	27237
802.923	27264
803.065	27017
803.208	27146
803.35	27275
803.492	27195
803.635	27317
803.777	27382
803.919	27481
804.061	27823
804.204	27561
804.346	27367
804.488	27382
804.63	27351
804.773	27298
804.915	27435
805.057	27549
805.199	27580
805.341	27496
805.483	27751
805.626	27682
805.768	27427
805.91	27568
806.052	27641
806.194	27523
806.336	27732
806.478	27622
806.62	27439
806.762	27637
806.904	28044
807.046	28128
807.188	28021
807.33	28055
807.472	28002
807.614	27934
807.756	28162
807.898	27888
808.04	27918
808.182	27949
808.324	27968
808.465	28017
808.607	28147
808.749	28169
808.891	28299
809.033	28527
809.174	28455
809.316	28268
809.458	28329
809.6	28204
809.741	28470
809.883	28413
810.025	28516
810.166	28557
810.308	28523
810.45	28504
810.591	28523
810.733	28360
810.875	28249
811.016	28280
811.158	28200
811.299	28382
811.441	28561
811.582	28405
811.724	28306
811.865	28291
812.007	28394
812.148	28306
812.29	28367
812.431	28584
812.573	28622
812.714	28748
812.855	28850
812.997	28908
813.138	28816
813.279	28812
813.421	29086
813.562	28850
813.703	28573
813.845	28512
813.986	28154
814.127	28276
814.268	27964
814.41	28036
814.551	27865
814.692	28166
814.833	28006
814.974	27899
815.115	27968
815.256	27941
815.397	27945
815.539	27827
815.68	27770
815.821	27743
815.962	27865
816.103	27728
816.244	27633
816.385	27614
816.526	27576
816.666	27458
816.807	27348
816.948	27378
817.089	27412
817.23	27291
817.371	27260
817.512	27302
817.653	27184
817.793	27283
817.934	27264
818.075	27180
818.216	27332
818.356	27237
818.497	27203
818.638	26990
818.778	27032
818.919	27081
819.06	27032
819.2	27211
819.341	27241
819.481	27329
819.622	27374
819.762	27633
819.903	27504
820.043	27393
820.184	27363
820.324	27321
820.465	27538
820.605	27511
820.746	27412
820.886	27135
821.026	27275
821.167	27332
821.307	27466
821.447	27287
821.588	27386
821.728	27192
821.868	26982
822.008	26906
822.149	26849
822.289	26785
822.429	26476
822.569	26434
822.709	26507
822.849	26218
822.99	26370
823.13	26161
823.27	26225
823.41	26092
823.55	26012
823.69	26088
823.83	26100
823.97	25978
824.11	25890
824.25	25868
824.389	25898
824.529	26031
824.669	25955
824.809	26084
824.949	25966
825.089	26054
825.228	25917
825.368	25803
825.508	25753
825.648	25791
825.787	25864
825.927	25871
826.067	25852
826.206	25765
826.346	25860
826.485	25791
826.625	25818
826.765	25788
826.904	25837
827.044	25567
827.183	25453
827.323	25605
827.462	25445
827.601	25422
827.741	25350
827.88	25552
828.02	25438
828.159	25460
828.298	25601
828.437	25521
828.577	25426
828.716	25620
828.855	25457
828.994	25198
829.134	25190
829.273	25247
829.412	25251
829.551	25076
829.69	25095
829.829	25156
829.968	25346
830.107	25187
830.246	25137
830.385	25209
830.524	25103
830.663	25019
830.802	24970
830.941	24848
831.08	24734
831.219	24890
831.357	24901
831.496	25072
831.635	24928
831.774	24544
831.913	24681
832.051	24650
832.19	24669
832.329	24582
832.467	24528
832.606	24376
832.744	24441
832.883	24448
833.022	24311
833.16	24452
833.299	24471
833.437	24486
833.576	24528
833.714	24407
833.852	24544
833.991	24661
834.129	24642
834.267	24700
834.406	24582
834.544	24467
834.682	24563
834.821	24505
834.959	24631
835.097	24414
835.235	24734
835.373	24471
835.511	24388
835.65	24407
835.788	24311
835.926	24296
836.064	24243
836.202	24174
836.34	24414
836.478	24437
836.615	24285
836.753	24334
836.891	24376
837.029	24353
837.167	24311
837.305	24178
837.443	24254
837.58	24224
837.718	24155
837.856	24258
837.993	24174
838.131	24076
838.269	24079
838.406	24129
838.544	24003
838.681	23851
838.819	23870
838.956	23668
839.094	23649
839.231	23836
839.369	23863
839.506	23973
839.643	23950
839.781	23642
839.918	23627
840.055	23703
840.193	23570
840.33	23566
840.467	23665
840.604	23608
840.742	23893
840.879	23376
841.016	23531
841.153	23573
841.29	23566
841.427	23627
841.564	23695
841.701	23440
841.838	23570
841.975	23531
842.112	23509
842.249	23421
842.385	23425
842.522	23581
842.659	23341
842.796	23299
842.933	23337
843.069	23258
843.206	23250
843.343	23318
843.479	23402
843.616	23383
843.752	23071
843.889	23159
844.025	23239
844.162	23094
844.298	23284
844.435	23185
844.571	23132
844.708	23151
844.844	23417
844.98	23307
845.117	23170
845.253	23136
845.389	22900
845.525	23071
845.661	23006
845.798	22862
845.934	22938
846.07	22869
846.206	22881
846.342	23064
846.478	22961
846.614	22561
846.75	22394
846.886	22584
847.022	22675
847.158	22440
847.294	22485
847.429	22577
847.565	22485
847.701	22752
847.837	22295
847.972	22363
848.108	22394
848.244	22394
848.379	22276
848.515	22169
848.65	22166
848.786	22029
848.921	22166
849.057	22291
849.192	22246
849.328	22242
849.463	22211
849.598	22078
849.734	22181
849.869	22021
850.004	21960
850.14	22101
850.275	21915
850.41	21751
850.545	21835
850.68	21888
850.815	21926
850.95	21865
851.085	22139
851.22	22013
851.355	21979
851.49	21827
851.625	21918
851.76	21819
851.895	21884
852.03	21895
852.165	22006
852.299	21964
852.434	21991
852.569	22006
852.703	21888
852.838	21930
852.973	22029
853.107	21968
853.242	21907
853.376	21823
853.511	21599
853.645	21728
853.78	21884
853.914	21842
854.048	21667
854.183	21713
854.317	21785
854.451	21979
854.585	21755
854.72	21709
854.854	21846
854.988	21686
855.122	21705
855.256	21641
855.39	21682
855.524	21816
855.658	21827
855.792	21751
855.926	21797
856.06	21667
856.194	21781
856.327	21717
856.461	21698
856.595	21774
856.729	21641
856.862	21899
856.996	21850
857.13	21682
857.263	21846
857.397	21770
857.53	21629
857.664	21880
857.797	21808
857.931	21846
858.064	21762
858.197	21819
858.331	21808
858.464	21660
858.597	21637
858.731	21781
858.864	21709
858.997	21610
859.13	21759
859.263	21561
859.396	21679
859.529	21686
859.662	21644
859.795	21770
859.928	21679
860.061	21907
860.194	21873
860.327	21732
860.46	21747
860.592	21892
860.725	21953
860.858	21949
860.99	21812
861.123	21774
861.256	21671
861.388	21774
861.521	22325
861.653	21690
861.786	21504
861.918	21500
862.05	21637
862.183	21576
862.315	21785
862.447	21778
862.58	21720
862.712	21485
862.844	21485
862.976	21622
863.108	21507
863.24	21865
863.372	21412
863.504	21458
863.636	21450
863.768	21526
863.9	21439
864.032	21397
864.164	21477
864.296	21447
864.428	21572
864.559	21534
864.691	21587
864.823	21469
864.954	21458
865.086	21481
865.217	21340
865.349	21264
865.48	21214
865.612	21283
865.743	21382
865.875	21367
866.006	21272
866.137	21256
866.269	21428
866.4	21393
866.531	21195
866.662	21249
866.793	21264
866.924	21245
867.055	21317
867.186	21230
867.317	21195
867.448	21211
867.579	21142
867.71	21218
867.841	21222
867.972	21260
868.103	21237
868.233	21279
868.364	21241
868.495	21272
868.625	21466
868.756	21637
868.886	21477
869.017	21545
869.147	21553
869.278	21599
869.408	21622
869.539	21447
869.669	21641
869.799	21519
869.929	21625
870.06	21675
870.19	21937
870.32	21838
870.45	21873
870.58	21888
870.71	22078
870.84	22158
870.97	21956
871.1	21975
871.23	22101
871.36	22219
871.489	22040
871.619	22166
871.749	22116
871.879	22219
872.008	22128
872.138	22177
872.267	22063
872.397	22105
872.526	22048
872.656	21949
872.785	21991
872.915	22265
873.044	22287
873.173	22196
873.303	22253
873.432	22204
873.561	22200
873.69	22238
873.819	22109
873.948	22177
874.077	22093
874.206	22162
874.335	22268
874.464	22242
874.593	22493
874.722	22295
874.851	22481
874.979	22421
875.108	22497
875.237	22356
875.365	22291
875.494	22352
875.623	22474
875.751	22459
875.88	22375
876.008	22379
876.136	22535
876.265	22763
876.393	22949
876.521	22820
876.65	22809
876.778	22725
876.906	22797
877.034	22752
877.162	22702
877.29	22702
877.418	22782
877.546	22713
877.674	22580
877.802	22801
877.93	22653
878.058	22683
878.185	22557
878.313	22744
878.441	22771
878.568	22432
878.696	22683
878.824	22744
878.951	22687
879.079	22934
879.206	22976
879.333	22809
879.461	22812
879.588	22866
879.715	22908
879.842	22908
879.97	22866
880.097	22637
880.224	22523
880.351	22557
880.478	22542
880.605	22577
880.732	22432
880.859	22828
880.986	22546
881.112	22531
881.239	22462
881.366	22242
881.493	22211
881.619	22105
881.746	22280
881.872	22150
881.999	21983
882.125	22017
882.252	22215
882.378	22059
882.505	22166
882.631	21846
882.757	21850
882.883	21895
883.01	21717
883.136	21831
883.262	21743
883.388	21667
883.514	21835
883.64	21854
883.766	21720
883.892	21572
884.018	21701
884.143	21781
884.269	21804
884.395	21523
884.52	21488
884.646	21523
884.772	21431
884.897	21329
885.023	21568
885.148	21473
885.274	21572
885.399	21557
885.524	21378
885.65	21439
885.775	21511
885.9	21370
886.025	21530
886.15	21553
886.275	21393
886.4	21363
886.525	21485
886.65	21291
886.775	21374
886.9	21591
887.025	21595
887.149	21382
887.274	21313
887.399	21093
887.523	21150
887.648	21161
887.773	21020
887.897	21294
888.021	21298
888.146	21028
888.27	21275
888.395	21161
888.519	21249
888.643	21272
888.767	21298
888.891	21104
889.015	21104
889.139	21020
889.263	20960
889.387	21123
889.511	21218
889.635	21218
889.759	20960
889.883	21081
890.006	20990
890.13	21207
890.254	20910
890.377	20819
890.501	20724
890.624	20750
890.748	20686
890.871	20758
890.995	20613
891.118	20484
891.241	20674
891.364	20663
891.488	20689
891.611	20583
891.734	20552
891.857	20617
891.98	20590
892.103	20644
892.226	20545
892.349	20560
892.471	20419
892.594	20423
892.717	20533
892.839	20457
892.962	20465
893.085	20632
893.207	20431
893.33	20343
893.452	20484
893.575	20446
893.697	20396
893.819	20731
893.941	20765
894.064	20583
894.186	20427
894.308	20385
894.43	20609
894.552	20651
894.674	20571
894.796	20370
894.918	20389
895.04	20336
895.161	20625
895.283	20541
895.405	20514
895.526	20434
895.648	20381
895.769	20488
895.891	20446
896.012	20442
896.134	20434
896.255	20530
896.376	20324
896.498	20488
896.619	20522
896.74	20507
896.861	20495
896.982	20823
897.103	20925
897.224	20708
897.345	20796
897.466	20659
897.587	20724
897.708	20773
897.828	20765
897.949	20632
898.07	20590
898.19	20606
898.311	20765
898.431	20678
898.552	20590
898.672	20686
898.792	20804
898.913	20648
899.033	20632
899.153	20396
899.273	20419
899.393	20507
899.513	20419
899.633	20480
899.753	20488
899.873	20320
899.993	20465
900.113	20309
900.232	20351
900.352	20324
900.472	20252
900.591	20122
900.711	20244
900.83	20206
900.95	20278
901.069	20309
901.189	20092
901.308	19845
901.427	19803
901.546	19814
901.665	19670
901.784	19921
901.904	19544
902.023	19506
902.141	19354
902.26	19350
902.379	19362
902.498	19244
902.617	19297
902.735	19339
902.854	19228
902.973	19236
903.091	18993
903.21	19012
903.328	18966
903.446	18848
903.565	18852
903.683	18707
903.801	18707
903.919	18673
904.038	18559
904.156	18452
904.274	18517
904.392	18585
904.51	18578
904.627	18494
904.745	18566
904.863	18616
904.981	18361
905.098	18319
905.216	18167
905.334	18136
905.451	18205
905.569	18159
905.686	18209
905.803	18148
905.921	18110
906.038	18038
906.155	17973
906.272	17851
906.389	17946
906.506	17798
906.623	17794
906.74	17786
906.857	17634
906.974	17638
907.091	17752
907.208	17870
907.324	17760
907.441	17657
907.557	17535
907.674	17444
907.79	17402
907.907	17379
908.023	17490
908.139	17455
908.256	17410
908.372	17326
908.488	17269
908.604	17261
908.72	17197
908.836	17147
908.952	17018
909.068	17162
909.184	17296
909.3	17136
909.415	17174
909.531	17124
909.647	16904
909.762	16869
909.878	16934
909.993	16824
910.108	16896
910.224	16850
910.339	16793
910.454	16752
910.57	16706
910.685	16615
910.8	16816
910.915	16744
911.03	16649
911.145	16459
911.259	16398
911.374	16382
911.489	16306
911.604	16299
911.718	16185
911.833	16181
911.947	16093
912.062	16120
912.176	16219
912.291	16261
912.405	16177
912.519	16447
912.633	16272
912.748	16215
912.862	16147
912.976	16040
913.09	15869
913.204	16002
913.318	15945
913.431	16013
913.545	16017
913.659	16082
913.772	15884
913.886	15789
914	15766
914.113	15850
914.226	15842
914.34	15903
914.453	15660
914.566	15835
914.68	15663
914.793	15618
914.906	15462
915.019	15367
915.132	15332
915.245	15439
915.358	15351
915.47	15321
915.583	15401
915.696	15370
915.809	15466
915.921	15564
916.034	15378
916.146	15306
916.259	15237
916.371	15408
916.483	15389
916.595	15275
916.708	15241
916.82	15329
916.932	15184
917.044	15146
917.156	15157
917.268	14994
917.38	15108
917.491	14937
917.603	15192
917.715	15097
917.826	15093
917.938	14975
918.049	14796
918.161	14933
918.272	15131
918.384	15062
918.495	14914
918.606	14868
918.717	14731
918.828	14838
918.939	14857
919.05	14765
919.161	14739
919.272	14621
919.383	14587
919.494	14804
919.604	15036
919.715	14670
919.826	14689
919.936	14705
920.047	14811
920.157	14705
920.267	14925
920.378	14785
920.488	14701
920.598	14910
920.708	15032
920.818	14853
920.928	14788
921.038	14960
921.148	15005
921.258	14693
921.368	14549
921.477	14438
921.587	14457
921.697	14370
921.806	14461
921.916	14309
922.025	14233
922.134	14123
922.244	14062
922.353	14214
922.462	14062
922.571	13913
922.68	13784
922.789	13738
922.898	13841
923.007	13689
923.116	13860
923.224	13750
923.333	13772
923.442	13594
923.55	13586
923.659	13590
923.767	13719
923.876	13495
923.984	13620
924.092	13441
924.201	13521
924.309	13518
924.417	13499
924.525	13350
924.633	13430
924.741	14339
924.849	13171
924.956	13236
925.064	13198
925.172	13164
925.279	13095
925.387	13225
925.494	13179
925.602	13247
925.709	13209
925.816	13061
925.924	13137
926.031	13244
926.138	13152
926.245	13149
926.352	13065
926.459	13175
926.566	13133
926.673	13000
926.779	12882
926.886	12859
926.993	12711
927.099	12673
927.206	12631
927.312	12612
927.419	12760
927.525	12719
927.631	12681
927.737	12627
927.843	12574
927.95	12410
928.056	12559
928.162	12502
928.267	12601
928.373	13259
928.479	12604
928.585	12388
928.69	12437
928.796	12601
928.901	12479
929.007	12262
929.112	12418
929.218	12433
929.323	12251
929.428	12224
929.533	12388
929.638	12190
929.743	12144
929.848	12197
929.953	12247
930.058	12140
930.163	11939
930.267	11939
930.372	12079
930.477	11942
930.581	12178
930.685	12064
930.79	11863
930.894	11866
930.998	11813
931.103	11904
931.207	11627
931.311	11490
931.415	11417
931.519	11166
931.623	11170
