Data from test_V78500241_2298.txt Node
Date: Fri Mar 25 15:57:43 CST 2022
User: usil
Spectrometer: V785-0024
Trigger mode: 0
Integration Time (sec): 4.000000E-1
Scans to average: 1
Nonlinearity correction enabled: false
Boxcar width: 0
Storing dark spectrum: false
XAxis mode: Wavelengths
Number of Pixels in Spectrum: 1024
>>>>>Begin Spectral Data<<<<<
801.071	29121
801.214	29159
801.356	28843
801.499	28896
801.641	28611
801.783	28763
801.926	28809
802.068	28713
802.211	28694
802.353	28622
802.496	28504
802.638	28432
802.78	28417
802.923	28352
803.065	28363
803.208	28409
803.35	28481
803.492	28569
803.635	28675
803.777	28679
803.919	28519
804.061	28942
804.204	28790
804.346	28622
804.488	28500
804.63	28660
804.773	28611
804.915	28710
805.057	28862
805.199	28736
805.341	28675
805.483	28938
805.626	28850
805.768	28767
805.91	28790
806.052	28881
806.194	28793
806.336	29022
806.478	28904
806.62	28873
806.762	29060
806.904	29128
807.046	29368
807.188	29296
807.33	29318
807.472	29383
807.614	29242
807.756	29250
807.898	29151
808.04	29113
808.182	29056
808.324	29185
808.465	29299
808.607	29482
808.749	29741
808.891	29665
809.033	29657
809.174	29680
809.316	29577
809.458	29528
809.6	29512
809.741	29752
809.883	29627
810.025	29798
810.166	29817
810.308	29836
810.45	29775
810.591	29832
810.733	29543
810.875	29581
811.016	29642
811.158	29520
811.299	29684
811.441	29764
811.582	29779
811.724	29623
811.865	29490
812.007	29547
812.148	29520
812.29	29672
812.431	29813
812.573	29992
812.714	30098
812.855	30155
812.997	30262
813.138	30334
813.279	30213
813.421	30152
813.562	30072
813.703	29965
813.845	29882
813.986	29638
814.127	29482
814.268	29159
814.41	29356
814.551	29341
814.692	29429
814.833	29231
814.974	29235
815.115	29277
815.256	29303
815.397	29231
815.539	29231
815.68	29067
815.821	28984
815.962	29113
816.103	29132
816.244	29037
816.385	28972
816.526	28809
816.666	28763
816.807	28653
816.948	28702
817.089	28873
817.23	28611
817.371	28672
817.512	28569
817.653	28721
817.793	28656
817.934	28660
818.075	28717
818.216	28683
818.356	28546
818.497	28489
818.638	28428
818.778	28417
818.919	28379
819.06	28436
819.2	28531
819.341	28698
819.481	28801
819.622	28778
819.762	29044
819.903	28987
820.043	29048
820.184	28729
820.324	28782
820.465	28805
820.605	28748
820.746	28824
820.886	28683
821.026	28668
821.167	28740
821.307	28752
821.447	28630
821.588	28462
821.728	28405
821.868	28303
822.008	28150
822.149	28169
822.289	28238
822.429	27804
822.569	27819
822.709	27781
822.849	27808
822.99	27660
823.13	27686
823.27	27637
823.41	27447
823.55	27363
823.69	27462
823.83	27469
823.97	27530
824.11	27393
824.25	27283
824.389	27332
824.529	27443
824.669	27363
824.809	27332
824.949	27382
825.089	27416
825.228	27325
825.368	27154
825.508	27207
825.648	27222
825.787	27203
825.927	27203
826.067	27112
826.206	27313
826.346	27268
826.485	27226
826.625	27237
826.765	27256
826.904	27218
827.044	27055
827.183	26990
827.323	26906
827.462	26963
827.601	26906
827.741	27070
827.88	26990
828.02	26834
828.159	26902
828.298	26876
828.437	26979
828.577	26705
828.716	27024
828.855	26830
828.994	26549
829.134	26594
829.273	26693
829.412	26518
829.551	26590
829.69	26644
829.829	26511
829.968	26689
830.107	26678
830.246	26743
830.385	26511
830.524	26579
830.663	26396
830.802	26298
830.941	26355
831.08	26301
831.219	26313
831.357	26210
831.496	26552
831.635	26252
831.774	26134
831.913	26058
832.051	25989
832.19	26024
832.329	26077
832.467	25902
832.606	25837
832.744	25632
832.883	25791
833.022	25955
833.16	25830
833.299	25955
833.437	26012
833.576	25970
833.714	25894
833.852	26073
833.991	26100
834.129	25928
834.267	25944
834.406	25845
834.544	25997
834.682	25833
834.821	25913
834.959	26119
835.097	25894
835.235	25974
835.373	25852
835.511	25955
835.65	25826
835.788	25791
835.926	25601
836.064	25616
836.202	25616
836.34	25753
836.478	25761
836.615	25742
836.753	25841
836.891	25799
837.029	25696
837.167	25628
837.305	25613
837.443	25788
837.58	25586
837.718	25662
837.856	25601
837.993	25457
838.131	25552
838.269	25445
838.406	25567
838.544	25411
838.681	25259
838.819	25232
838.956	25069
839.094	25019
839.231	25046
839.369	25156
839.506	25400
839.643	25221
839.781	25061
839.918	24985
840.055	25027
840.193	25061
840.33	24928
840.467	24924
840.604	25015
840.742	25221
840.879	24776
841.016	24981
841.153	24730
841.29	25042
841.427	25061
841.564	24871
841.701	24958
841.838	24749
841.975	24882
842.112	24958
842.249	24749
842.385	24738
842.522	24913
842.659	24814
842.796	24593
842.933	24798
843.069	24654
843.206	24669
843.343	24768
843.479	24635
843.616	24528
843.752	24433
843.889	24563
844.025	24677
844.162	24395
844.298	24551
844.435	24422
844.571	24342
844.708	24407
844.844	24654
844.98	24540
845.117	24570
845.253	24319
845.389	24399
845.525	24304
845.661	24319
845.798	24247
845.934	24201
846.07	24254
846.206	24239
846.342	24285
846.478	24201
846.614	23931
846.75	23931
846.886	23874
847.022	23912
847.158	24022
847.294	23863
847.429	23904
847.565	23969
847.701	24072
847.837	23668
847.972	23657
848.108	23805
848.244	23786
848.379	23474
848.515	23425
848.65	23459
848.786	23512
848.921	23562
849.057	23596
849.192	23512
849.328	23505
849.463	23505
849.598	23474
849.734	23474
849.869	23307
850.004	23334
850.14	23330
850.275	23204
850.41	23117
850.545	23334
850.68	23288
850.815	23227
850.95	23189
851.085	23395
851.22	23318
851.355	23181
851.49	23242
851.625	23193
851.76	23140
851.895	23136
852.03	23204
852.165	23200
852.299	23242
852.434	23402
852.569	23246
852.703	23174
852.838	23318
852.973	23406
853.107	23246
853.242	23299
853.376	23174
853.511	23124
853.645	23003
853.78	23083
853.914	23200
854.048	23075
854.183	23200
854.317	23086
854.451	23273
854.585	23003
854.72	22953
854.854	23174
854.988	23003
855.122	22987
855.256	22976
855.39	23083
855.524	23006
855.658	23090
855.792	23098
855.926	22999
856.06	23029
856.194	23231
856.327	23003
856.461	23071
856.595	22984
856.729	23117
856.862	23102
856.996	23010
857.13	23136
857.263	23159
857.397	23090
857.53	23105
857.664	23029
857.797	23044
857.931	23200
858.064	23113
858.197	23155
858.331	23056
858.464	23075
858.597	22900
858.731	23010
858.864	22976
858.997	23098
859.13	23006
859.263	23022
859.396	23143
859.529	23029
859.662	22923
859.795	23071
859.928	23022
860.061	23242
860.194	23288
860.327	23193
860.46	23128
860.592	23140
860.725	23277
860.858	23208
860.99	23083
861.123	22896
861.256	23105
861.388	23170
861.521	23729
861.653	22987
861.786	22850
861.918	22877
862.05	22828
862.183	23022
862.315	22968
862.447	22968
862.58	22980
862.712	22710
862.844	22759
862.976	22892
863.108	22797
863.24	23200
863.372	22710
863.504	22816
863.636	22759
863.768	22637
863.9	22706
864.032	22755
864.164	22626
864.296	22831
864.428	22816
864.559	22831
864.691	22744
864.823	22748
864.954	22793
865.086	22820
865.217	22656
865.349	22603
865.48	22554
865.612	22611
865.743	22866
865.875	22713
866.006	22622
866.137	22550
866.269	22592
866.4	22596
866.531	22569
866.662	22474
866.793	22580
866.924	22565
867.055	22538
867.186	22580
867.317	22516
867.448	22474
867.579	22466
867.71	22489
867.841	22424
867.972	22550
868.103	22584
868.233	22577
868.364	22535
868.495	22641
868.625	22885
868.756	22881
868.886	22782
869.017	22755
869.147	22847
869.278	22866
869.408	22759
869.539	22797
869.669	22908
869.799	22850
869.929	22980
870.06	22942
870.19	23079
870.32	23090
870.45	23170
870.58	23098
870.71	23349
870.84	23288
870.97	23113
871.1	23178
871.23	23318
871.36	23474
871.489	23216
871.619	23379
871.749	23406
871.879	23490
872.008	23452
872.138	23376
872.267	23410
872.397	23364
872.526	23189
872.656	23307
872.785	23273
872.915	23345
873.044	23615
873.173	23402
873.303	23406
873.432	23433
873.561	23467
873.69	23322
873.819	23417
873.948	23493
874.077	23337
874.206	23296
874.335	23368
874.464	23448
874.593	23642
874.722	23570
874.851	23668
874.979	23653
875.108	23699
875.237	23520
875.365	23535
875.494	23695
875.623	23646
875.751	23699
875.88	23729
876.008	23764
876.136	23821
876.265	23999
876.393	24235
876.521	24178
876.65	24038
876.778	24026
876.906	23908
877.034	23901
877.162	23977
877.29	23878
877.418	24045
877.546	23980
877.674	24034
877.802	23878
877.93	23954
878.058	23908
878.185	23779
878.313	23927
878.441	23847
878.568	23695
878.696	23843
878.824	23961
878.951	23927
879.079	24106
879.206	24391
879.333	24148
879.461	23958
879.588	23973
879.715	24186
879.842	24140
879.97	23927
880.097	23824
880.224	23805
880.351	23821
880.478	23748
880.605	23737
880.732	23870
880.859	24060
880.986	23718
881.112	23783
881.239	23657
881.366	23471
881.493	23421
881.619	23356
881.746	23410
881.872	23391
881.999	23356
882.125	23151
882.252	23341
882.378	23330
882.505	23235
882.631	23204
882.757	23033
882.883	23094
883.01	22934
883.136	22843
883.262	22847
883.388	22835
883.514	23037
883.64	23083
883.766	22923
883.892	22820
884.018	22904
884.143	22824
884.269	22965
884.395	22637
884.52	22538
884.646	22618
884.772	22508
884.897	22508
885.023	22656
885.148	22649
885.274	22679
885.399	22744
885.524	22706
885.65	22584
885.775	22618
885.9	22523
886.025	22702
886.15	22653
886.275	22592
886.4	22478
886.525	22516
886.65	22443
886.775	22421
886.9	22752
887.025	22778
887.149	22485
887.274	22561
887.399	22310
887.523	22386
887.648	22291
887.773	22158
887.897	22375
888.021	22409
888.146	22375
888.27	22508
888.395	22443
888.519	22462
888.643	22455
888.767	22421
888.891	22344
889.015	22109
889.139	22234
889.263	21991
889.387	22185
889.511	22356
889.635	22204
889.759	22082
889.883	22169
890.006	22169
890.13	22287
890.254	22044
890.377	22070
890.501	21930
890.624	21953
890.748	22002
890.871	21827
890.995	21606
891.118	21720
891.241	21675
891.364	21652
891.488	21789
891.611	21694
891.734	21625
891.857	21743
891.98	21682
892.103	21751
892.226	21686
892.349	21663
892.471	21530
892.594	21599
892.717	21549
892.839	21637
892.962	21682
893.085	21644
893.207	21469
893.33	21370
893.452	21424
893.575	21637
893.697	21561
893.819	21473
893.941	21808
894.064	21671
894.186	21561
894.308	21538
894.43	21793
894.552	21778
894.674	21637
894.796	21313
894.918	21462
895.04	21545
895.161	21606
895.283	21637
895.405	21526
895.526	21504
895.648	21428
895.769	21378
895.891	21553
896.012	21542
896.134	21625
896.255	21538
896.376	21614
896.498	21481
896.619	21564
896.74	21458
896.861	21599
896.982	21778
897.103	21899
897.224	21892
897.345	21694
897.466	21622
897.587	21728
897.708	21949
897.828	21770
897.949	21641
898.07	21583
898.19	21671
898.311	21850
898.431	21667
898.552	21789
898.672	21671
898.792	21819
898.913	21682
899.033	21599
899.153	21515
899.273	21447
899.393	21447
899.513	21454
899.633	21420
899.753	21447
899.873	21530
899.993	21507
900.113	21416
900.232	21386
900.352	21405
900.472	21226
900.591	21184
900.711	21233
900.83	21142
900.95	21283
901.069	21332
901.189	20994
901.308	20986
901.427	20807
901.546	20864
901.665	20758
901.784	20807
901.904	20609
902.023	20499
902.141	20271
902.26	20294
902.379	20484
902.498	20233
902.617	20221
902.735	20328
902.854	20225
902.973	20016
903.091	20039
903.21	19955
903.328	19951
903.446	19852
903.565	19685
903.683	19746
903.801	19487
903.919	19590
904.038	19708
904.156	19415
904.274	19537
904.392	19480
904.51	19468
904.627	19468
904.745	19567
904.863	19514
904.981	19324
905.098	19160
905.216	19133
905.334	19122
905.451	19183
905.569	19110
905.686	19122
905.803	19069
905.921	18951
906.038	19042
906.155	18875
906.272	18848
906.389	18856
906.506	18719
906.623	18745
906.74	18585
906.857	18525
906.974	18585
907.091	18722
907.208	18817
907.324	18635
907.441	18502
907.557	18479
907.674	18296
907.79	18251
907.907	18258
908.023	18486
908.139	18365
908.256	18296
908.372	18205
908.488	18186
908.604	18155
908.72	18030
908.836	18201
908.952	17935
909.068	18007
909.184	18163
909.3	18091
909.415	18015
909.531	18171
909.647	17798
909.762	17927
909.878	17783
909.993	17813
910.108	17676
910.224	17665
910.339	17745
910.454	17642
910.57	17600
910.685	17524
910.8	17760
910.915	17714
911.03	17520
911.145	17478
911.259	17436
911.374	17303
911.489	17166
911.604	17227
911.718	17025
911.833	16999
911.947	16968
912.062	16858
912.176	17102
912.291	17151
912.405	17006
912.519	17242
912.633	17303
912.748	17109
912.862	17022
912.976	16850
913.09	16797
913.204	16759
913.318	16778
913.431	16991
913.545	17048
913.659	17045
913.772	16759
913.886	16694
914	16577
914.113	16649
914.226	16763
914.34	16691
914.453	16561
914.566	16679
914.68	16615
914.793	16470
914.906	16261
915.019	16192
915.132	16287
915.245	16265
915.358	16295
915.47	16223
915.583	16226
915.696	16329
915.809	16219
915.921	16257
916.034	16192
916.146	16261
916.259	16158
916.371	16135
916.483	16150
916.595	16051
916.708	16093
916.82	15975
916.932	15987
917.044	16109
917.156	15956
917.268	15907
917.38	15918
917.491	15835
917.603	15823
917.715	15892
917.826	15915
917.938	15823
918.049	15614
918.161	15816
918.272	15865
918.384	15895
918.495	15663
918.606	15595
918.717	15511
918.828	15633
918.939	15599
919.05	15374
919.161	15549
919.272	15359
919.383	15469
919.494	15595
919.604	15781
919.715	15545
919.826	15389
919.936	15519
920.047	15599
920.157	15606
920.267	15717
920.378	15526
920.488	15428
920.598	15606
920.708	15804
920.818	15614
920.928	15599
921.038	15816
921.148	15720
921.258	15408
921.368	15382
921.477	15283
921.587	15173
921.697	15131
921.806	15283
921.916	15169
922.025	14880
922.134	14842
922.244	14792
922.353	14845
922.462	14731
922.571	14587
922.68	14594
922.789	14560
922.898	14533
923.007	14526
923.116	14511
923.224	14461
923.333	14465
923.442	14442
923.55	14195
923.659	14374
923.767	14404
923.876	14286
923.984	14347
924.092	14195
924.201	14153
924.309	14168
924.417	14111
924.525	14119
924.633	14123
924.741	14994
924.849	13902
924.956	14054
925.064	13868
925.172	13902
925.279	13849
925.387	13932
925.494	13890
925.602	13894
925.709	13898
925.816	13807
925.924	13723
926.031	13841
926.138	13757
926.245	13833
926.352	13655
926.459	13845
926.566	13940
926.673	13601
926.779	13563
926.886	13575
926.993	13434
927.099	13415
927.206	13278
927.312	13354
927.419	13480
927.525	13426
927.631	13434
927.737	13289
927.843	13232
927.95	13145
928.056	13259
928.162	13244
928.267	13190
928.373	13799
928.479	13190
928.585	12962
928.69	13103
928.796	13194
928.901	13042
929.007	12840
929.112	13080
929.218	13034
929.323	12916
929.428	12890
929.533	13023
929.638	12859
929.743	12939
929.848	12905
929.953	12848
930.058	12604
930.163	12517
930.267	12593
930.372	12620
930.477	12570
930.581	12711
930.685	12635
930.79	12426
930.894	12388
930.998	12433
931.103	12559
931.207	12171
931.311	12106
931.415	12041
931.519	11882
931.623	11813
