Data from test_V78500241_2320.txt Node
Date: Fri Mar 25 15:57:52 CST 2022
User: usil
Spectrometer: V785-0024
Trigger mode: 0
Integration Time (sec): 4.000000E-1
Scans to average: 1
Nonlinearity correction enabled: false
Boxcar width: 0
Storing dark spectrum: false
XAxis mode: Wavelengths
Number of Pixels in Spectrum: 1024
>>>>>Begin Spectral Data<<<<<
801.071	28850
801.214	28752
801.356	28493
801.499	28390
801.641	28272
801.783	28371
801.926	28333
802.068	28284
802.211	28394
802.353	28204
802.496	28067
802.638	28120
802.78	27975
802.923	27918
803.065	27911
803.208	27975
803.35	28029
803.492	28063
803.635	28333
803.777	27968
803.919	28265
804.061	28721
804.204	28424
804.346	28219
804.488	28226
804.63	28246
804.773	28188
804.915	28417
805.057	28386
805.199	28272
805.341	28390
805.483	28314
805.626	28390
805.768	28341
805.91	28440
806.052	28421
806.194	28382
806.336	28462
806.478	28440
806.62	28447
806.762	28500
806.904	28752
807.046	28843
807.188	28694
807.33	28835
807.472	28942
807.614	28816
807.756	28812
807.898	28679
808.04	28565
808.182	28763
808.324	28706
808.465	28793
808.607	28896
808.749	29086
808.891	29162
809.033	29052
809.174	29132
809.316	29109
809.458	29109
809.6	29067
809.741	29155
809.883	29277
810.025	29277
810.166	29417
810.308	29467
810.45	29391
810.591	29231
810.733	29086
810.875	29151
811.016	29098
811.158	29117
811.299	29227
811.441	29235
811.582	29273
811.724	29121
811.865	29006
812.007	29067
812.148	29079
812.29	29231
812.431	29383
812.573	29402
812.714	29581
812.855	29608
812.997	29798
813.138	29767
813.279	29828
813.421	29566
813.562	29585
813.703	29531
813.845	29387
813.986	29170
814.127	28976
814.268	28862
814.41	28835
814.551	28866
814.692	28862
814.833	28748
814.974	28752
815.115	28828
815.256	28729
815.397	28767
815.539	28752
815.68	28607
815.821	28535
815.962	28763
816.103	28729
816.244	28398
816.385	28508
816.526	28592
816.666	28139
816.807	28226
816.948	28242
817.089	28257
817.23	28105
817.371	28173
817.512	28223
817.653	28093
817.793	28002
817.934	28124
818.075	28226
818.216	28025
818.356	28013
818.497	28112
818.638	27774
818.778	27842
818.919	27945
819.06	28017
819.2	28097
819.341	28162
819.481	28173
819.622	28314
819.762	28546
819.903	28523
820.043	28284
820.184	28238
820.324	28314
820.465	28401
820.605	28382
820.746	28318
820.886	28135
821.026	28230
821.167	28322
821.307	28284
821.447	28188
821.588	28173
821.728	28013
821.868	27899
822.008	27580
822.149	27629
822.289	27656
822.429	27386
822.569	27199
822.709	27279
822.849	27195
822.99	27165
823.13	27055
823.27	27131
823.41	26921
823.55	26754
823.69	27013
823.83	27001
823.97	26895
824.11	26697
824.25	26815
824.389	26686
824.529	26876
824.669	26819
824.809	26910
824.949	26982
825.089	26754
825.228	26796
825.368	26686
825.508	26773
825.648	26682
825.787	26659
825.927	26743
826.067	26667
826.206	26663
826.346	26823
826.485	26773
826.625	26522
826.765	26708
826.904	26746
827.044	26450
827.183	26374
827.323	26393
827.462	26465
827.601	26275
827.741	26355
827.88	26362
828.02	26244
828.159	26358
828.298	26465
828.437	26431
828.577	26259
828.716	26381
828.855	26317
828.994	26065
829.134	25982
829.273	26077
829.412	25925
829.551	25909
829.69	25955
829.829	26027
829.968	26050
830.107	26115
830.246	26119
830.385	25963
830.524	26149
830.663	25944
830.802	25670
830.941	25746
831.08	25677
831.219	25830
831.357	25719
831.496	25917
831.635	25742
831.774	25620
831.913	25643
832.051	25449
832.19	25476
832.329	25392
832.467	25324
832.606	25426
832.744	25354
832.883	25118
833.022	25285
833.16	25403
833.299	25396
833.437	25415
833.576	25430
833.714	25362
833.852	25518
833.991	25502
834.129	25419
834.267	25441
834.406	25415
834.544	25499
834.682	25369
834.821	25263
834.959	25521
835.097	25350
835.235	25483
835.373	25297
835.511	25236
835.65	25358
835.788	25293
835.926	25141
836.064	25107
836.202	25023
836.34	25278
836.478	25232
836.615	25179
836.753	25171
836.891	25316
837.029	25270
837.167	25198
837.305	25095
837.443	25118
837.58	25004
837.718	25179
837.856	25080
837.993	24867
838.131	25099
838.269	24932
838.406	24924
838.544	24909
838.681	24749
838.819	24764
838.956	24582
839.094	24486
839.231	24505
839.369	24810
839.506	24875
839.643	24604
839.781	24498
839.918	24475
840.055	24540
840.193	24460
840.33	24426
840.467	24471
840.604	24479
840.742	24665
840.879	24353
841.016	24391
841.153	24258
841.29	24513
841.427	24467
841.564	24532
841.701	24414
841.838	24426
841.975	24319
842.112	24304
842.249	24277
842.385	24152
842.522	24277
842.659	24216
842.796	24129
842.933	24159
843.069	24125
843.206	24163
843.343	24186
843.479	24064
843.616	24144
843.752	23893
843.889	23999
844.025	24129
844.162	23916
844.298	24133
844.435	23859
844.571	23851
844.708	23973
844.844	23992
844.98	24064
845.117	24034
845.253	23912
845.389	23847
845.525	23775
845.661	23764
845.798	23592
845.934	23703
846.07	23619
846.206	23710
846.342	23714
846.478	23802
846.614	23414
846.75	23265
846.886	23235
847.022	23414
847.158	23493
847.294	23334
847.429	23448
847.565	23353
847.701	23638
847.837	23143
847.972	23250
848.108	23174
848.244	23102
848.379	23052
848.515	23109
848.65	22949
848.786	22930
848.921	23143
849.057	23159
849.192	23041
849.328	22908
849.463	22995
849.598	22911
849.734	22854
849.869	22683
850.004	22748
850.14	22710
850.275	22786
850.41	22592
850.545	22755
850.68	22771
850.815	22782
850.95	22736
851.085	23025
851.22	22911
851.355	22782
851.49	22721
851.625	22729
851.76	22744
851.895	22622
852.03	22672
852.165	22660
852.299	22664
852.434	22755
852.569	22771
852.703	22736
852.838	22809
852.973	22923
853.107	22733
853.242	22710
853.376	22603
853.511	22618
853.645	22538
853.78	22736
853.914	22588
854.048	22672
854.183	22554
854.317	22531
854.451	22679
854.585	22611
854.72	22462
854.854	22577
854.988	22489
855.122	22630
855.256	22485
855.39	22554
855.524	22668
855.658	22531
855.792	22603
855.926	22516
856.06	22573
856.194	22672
856.327	22546
856.461	22500
856.595	22417
856.729	22554
856.862	22713
856.996	22634
857.13	22691
857.263	22733
857.397	22577
857.53	22478
857.664	22561
857.797	22653
857.931	22592
858.064	22649
858.197	22687
858.331	22557
858.464	22535
858.597	22451
858.731	22455
858.864	22493
858.997	22660
859.13	22573
859.263	22554
859.396	22660
859.529	22641
859.662	22577
859.795	22508
859.928	22554
860.061	22733
860.194	22710
860.327	22615
860.46	22538
860.592	22771
860.725	22649
860.858	22744
860.99	22668
861.123	22554
861.256	22516
861.388	22459
861.521	23261
861.653	22516
861.786	22322
861.918	22284
862.05	22386
862.183	22478
862.315	22493
862.447	22489
862.58	22561
862.712	22219
862.844	22261
862.976	22215
863.108	22382
863.24	22782
863.372	22154
863.504	22371
863.636	22196
863.768	22287
863.9	22306
864.032	22109
864.164	22204
864.296	22238
864.428	22386
864.559	22268
864.691	22188
864.823	22223
864.954	22447
865.086	22257
865.217	22109
865.349	22082
865.48	22116
865.612	22223
865.743	22246
865.875	22238
866.006	22131
866.137	22093
866.269	22200
866.4	22158
866.531	22185
866.662	22074
866.793	22112
866.924	22097
867.055	22059
867.186	22036
867.317	21983
867.448	21922
867.579	21979
867.71	22029
867.841	21972
867.972	22166
868.103	22215
868.233	22238
868.364	22063
868.495	22150
868.625	22325
868.756	22405
868.886	22284
869.017	22390
869.147	22432
869.278	22489
869.408	22375
869.539	22363
869.669	22470
869.799	22329
869.929	22436
870.06	22356
870.19	22675
870.32	22577
870.45	22573
870.58	22752
870.71	22862
870.84	22774
870.97	22641
871.1	22725
871.23	22911
871.36	22930
871.489	22824
871.619	22923
871.749	22915
871.879	22968
872.008	22862
872.138	22961
872.267	22869
872.397	22809
872.526	22786
872.656	22656
872.785	22698
872.915	22885
873.044	22968
873.173	22889
873.303	22995
873.432	22976
873.561	23060
873.69	22858
873.819	22847
873.948	22991
874.077	22904
874.206	22927
874.335	22889
874.464	23029
874.593	23105
874.722	23132
874.851	23128
874.979	23064
875.108	23288
875.237	23143
875.365	23056
875.494	23159
875.623	23147
875.751	23208
875.88	23170
876.008	23159
876.136	23334
876.265	23554
876.393	23501
876.521	23680
876.65	23718
876.778	23581
876.906	23482
877.034	23433
877.162	23345
877.29	23311
877.418	23440
877.546	23528
877.674	23459
877.802	23512
877.93	23421
878.058	23417
878.185	23414
878.313	23398
878.441	23448
878.568	23379
878.696	23395
878.824	23509
878.951	23482
879.079	23703
879.206	23760
879.333	23707
879.461	23570
879.588	23467
879.715	23581
879.842	23752
879.97	23516
880.097	23383
880.224	23345
880.351	23387
880.478	23254
880.605	23273
880.732	23261
880.859	23452
880.986	23220
881.112	23261
881.239	23121
881.366	23014
881.493	22892
881.619	22949
881.746	22919
881.872	22721
881.999	22923
882.125	22786
882.252	22919
882.378	22736
882.505	22839
882.631	22755
882.757	22599
882.883	22592
883.01	22481
883.136	22478
883.262	22386
883.388	22325
883.514	22398
883.64	22660
883.766	22459
883.892	22367
884.018	22207
884.143	22470
884.269	22508
884.395	22249
884.52	22230
884.646	22211
884.772	22143
884.897	22097
885.023	22234
885.148	22196
885.274	22276
885.399	22306
885.524	22124
885.65	22253
885.775	22257
885.9	22162
886.025	22211
886.15	22333
886.275	22177
886.4	21972
886.525	21975
886.65	22078
886.775	22109
886.9	22276
887.025	22367
887.149	22093
887.274	22006
887.399	21888
887.523	22013
887.648	21907
887.773	21918
887.897	21983
888.021	21987
888.146	21831
888.27	22090
888.395	21930
888.519	21987
888.643	21884
888.767	21873
888.891	21797
889.015	21778
889.139	21903
889.263	21660
889.387	21800
889.511	21941
889.635	21778
889.759	21812
889.883	21701
890.006	21667
890.13	21736
890.254	21625
890.377	21690
890.501	21454
890.624	21370
890.748	21561
890.871	21424
890.995	21222
891.118	21211
891.241	21359
891.364	21268
891.488	21340
891.611	21283
891.734	21211
891.857	21279
891.98	21260
892.103	21211
892.226	21154
892.349	21237
892.471	21009
892.594	21211
892.717	21085
892.839	21131
892.962	21055
893.085	21256
893.207	21005
893.33	21066
893.452	20956
893.575	21169
893.697	21116
893.819	21256
893.941	21370
894.064	21336
894.186	21043
894.308	21047
894.43	21218
894.552	21199
894.674	21165
894.796	21112
894.918	20986
895.04	21066
895.161	21077
895.283	21203
895.405	21001
895.526	21157
895.648	21024
895.769	21264
895.891	21157
896.012	21157
896.134	21135
896.255	21089
896.376	21123
896.498	21207
896.619	21096
896.74	21154
896.861	21245
896.982	21401
897.103	21618
897.224	21367
897.345	21313
897.466	21249
897.587	21325
897.708	21481
897.828	21367
897.949	21241
898.07	21157
898.19	21302
898.311	21336
898.431	21294
898.552	21355
898.672	21435
898.792	21389
898.913	21268
899.033	21275
899.153	21169
899.273	21020
899.393	21005
899.513	21108
899.633	21062
899.753	21074
899.873	20963
899.993	21173
900.113	21005
900.232	21039
900.352	20941
900.472	20762
900.591	20674
900.711	20712
900.83	20796
900.95	20944
901.069	20925
901.189	20697
901.308	20396
901.427	20442
901.546	20381
901.665	20317
901.784	20415
901.904	20298
902.023	20058
902.141	19883
902.26	20058
902.379	20065
902.498	19871
902.617	19868
902.735	19890
902.854	19932
902.973	19719
903.091	19575
903.21	19609
903.328	19685
903.446	19476
903.565	19301
903.683	19358
903.801	19247
903.919	19206
904.038	19259
904.156	19076
904.274	19141
904.392	19042
904.51	19137
904.627	19076
904.745	19148
904.863	19202
904.981	18970
905.098	18753
905.216	18776
905.334	18837
905.451	18776
905.569	18734
905.686	18779
905.803	18871
905.921	18574
906.038	18757
906.155	18570
906.272	18433
906.389	18464
906.506	18426
906.623	18270
906.74	18270
906.857	18167
906.974	18277
907.091	18292
907.208	18407
907.324	18315
907.441	18178
907.557	18083
907.674	18102
907.79	18057
907.907	17851
908.023	18057
908.139	17927
908.256	17923
908.372	17893
908.488	17920
908.604	17824
908.72	17794
908.836	17741
908.952	17668
909.068	17657
909.184	17863
909.3	17767
909.415	17809
909.531	17733
909.647	17452
909.762	17395
909.878	17463
909.993	17398
910.108	17395
910.224	17395
910.339	17356
910.454	17376
910.57	17220
910.685	17174
910.8	17490
910.915	17318
911.03	17341
911.145	16987
911.259	16980
911.374	17079
911.489	16949
911.604	16774
911.718	16725
911.833	16698
911.947	16672
912.062	16565
912.176	16748
912.291	16710
912.405	16691
912.519	16953
912.633	16965
912.748	16793
912.862	16721
912.976	16535
913.09	16527
913.204	16550
913.318	16512
913.431	16554
913.545	16558
913.659	16626
913.772	16561
913.886	16333
914	16402
914.113	16268
914.226	16375
914.34	16402
914.453	16287
914.566	16363
914.68	16253
914.793	16097
914.906	15994
915.019	15941
915.132	15945
915.245	15892
915.358	15949
915.47	15998
915.583	15937
915.696	15899
915.809	16090
915.921	15941
916.034	15869
916.146	15838
916.259	15838
916.371	15838
916.483	15781
916.595	15671
916.708	15713
916.82	15663
916.932	15679
917.044	15652
917.156	15648
917.268	15587
917.38	15515
917.491	15549
917.603	15523
917.715	15553
917.826	15675
917.938	15462
918.049	15329
918.161	15473
918.272	15667
918.384	15481
918.495	15435
918.606	15287
918.717	15237
918.828	15233
918.939	15256
919.05	15169
919.161	15157
919.272	14998
919.383	15192
919.494	15298
919.604	15443
919.715	15329
919.826	15100
919.936	15245
920.047	15302
920.157	15317
920.267	15359
920.378	15222
920.488	15188
920.598	15359
920.708	15481
920.818	15420
920.928	15249
921.038	15534
921.148	15431
921.258	15112
921.368	15119
921.477	14971
921.587	14902
921.697	14777
921.806	14952
921.916	14765
922.025	14579
922.134	14537
922.244	14556
922.353	14545
922.462	14526
922.571	14400
922.68	14267
922.789	14225
922.898	14191
923.007	14123
923.116	14180
923.224	14225
923.333	14149
923.442	14103
923.55	13997
923.659	14039
923.767	14096
923.876	13936
923.984	14069
924.092	13959
924.201	13986
924.309	13894
924.417	13928
924.525	13902
924.633	13852
924.741	14811
924.849	13639
924.956	13799
925.064	13658
925.172	13521
925.279	13594
925.387	13453
925.494	13575
925.602	13693
925.709	13620
925.816	13434
925.924	13502
926.031	13639
926.138	13544
926.245	13571
926.352	13525
926.459	13472
926.566	13559
926.673	13499
926.779	13312
926.886	13263
926.993	13137
927.099	13156
927.206	13061
927.312	12939
927.419	13206
927.525	13206
927.631	13164
927.737	13053
927.843	13050
927.95	12802
928.056	12939
928.162	12901
928.267	13069
928.373	13559
928.479	13050
928.585	12764
928.69	12901
928.796	12947
928.901	12783
929.007	12684
929.112	12719
929.218	12844
929.323	12734
929.428	12684
929.533	12726
929.638	12555
929.743	12677
929.848	12642
929.953	12479
930.058	12498
930.163	12330
930.267	12376
930.372	12369
930.477	12311
930.581	12521
930.685	12388
930.79	12239
930.894	12171
930.998	12182
931.103	12216
931.207	11935
931.311	11935
931.415	11783
931.519	11562
931.623	11524
