Data from test_V78500241_2742.txt Node
Date: Fri Mar 25 16:00:47 CST 2022
User: usil
Spectrometer: V785-0024
Trigger mode: 0
Integration Time (sec): 4.000000E-1
Scans to average: 1
Nonlinearity correction enabled: false
Boxcar width: 0
Storing dark spectrum: false
XAxis mode: Wavelengths
Number of Pixels in Spectrum: 1024
>>>>>Begin Spectral Data<<<<<
801.071	28417
801.214	28356
801.356	28063
801.499	28150
801.641	28051
801.783	28040
801.926	28158
802.068	27903
802.211	27975
802.353	27876
802.496	27641
802.638	27690
802.78	27743
802.923	27538
803.065	27557
803.208	27538
803.35	27622
803.492	27842
803.635	27888
803.777	27682
803.919	27831
804.061	28204
804.204	28055
804.346	27663
804.488	27766
804.63	27869
804.773	27823
804.915	27884
805.057	28143
805.199	27842
805.341	27972
805.483	28063
805.626	27994
805.768	27831
805.91	27949
806.052	28128
806.194	27892
806.336	28207
806.478	28021
806.62	28032
806.762	28230
806.904	28413
807.046	28401
807.188	28451
807.33	28470
807.472	28565
807.614	28554
807.756	28485
807.898	28421
808.04	28238
808.182	28249
808.324	28451
808.465	28280
808.607	28428
808.749	28740
808.891	28748
809.033	28869
809.174	28675
809.316	28729
809.458	28733
809.6	28611
809.741	28831
809.883	28888
810.025	28911
810.166	28900
810.308	28976
810.45	28896
810.591	28824
810.733	28923
810.875	28812
811.016	28683
811.158	28645
811.299	28835
811.441	28843
811.582	28755
811.724	28721
811.865	28797
812.007	28664
812.148	28748
812.29	28786
812.431	28850
812.573	28942
812.714	29064
812.855	29208
812.997	29315
813.138	29410
813.279	29375
813.421	29151
813.562	29250
813.703	29143
813.845	29098
813.986	28771
814.127	28500
814.268	28246
814.41	28413
814.551	28314
814.692	28417
814.833	28219
814.974	28386
815.115	28500
815.256	28329
815.397	28246
815.539	28386
815.68	28268
815.821	28147
815.962	28268
816.103	28223
816.244	28036
816.385	28002
816.526	28051
816.666	27941
816.807	27743
816.948	27865
817.089	27759
817.23	27793
817.371	27747
817.512	27622
817.653	27713
817.793	27633
817.934	27614
818.075	27694
818.216	27671
818.356	27633
818.497	27633
818.638	27454
818.778	27439
818.919	27576
819.06	27629
819.2	27629
819.341	27705
819.481	27660
819.622	27831
819.762	28074
819.903	28017
820.043	27857
820.184	27857
820.324	27873
820.465	27846
820.605	27812
820.746	27812
820.886	27679
821.026	27888
821.167	27713
821.307	27956
821.447	27892
821.588	27808
821.728	27545
821.868	27458
822.008	27192
822.149	27233
822.289	27165
822.429	26899
822.569	26979
822.709	27009
822.849	26678
822.99	26632
823.13	26689
823.27	26769
823.41	26495
823.55	26446
823.69	26541
823.83	26545
823.97	26415
824.11	26313
824.25	26305
824.389	26450
824.529	26476
824.669	26438
824.809	26434
824.949	26446
825.089	26492
825.228	26305
825.368	26256
825.508	26248
825.648	26199
825.787	26282
825.927	26290
826.067	26145
826.206	26290
826.346	26263
826.485	26453
826.625	26233
826.765	26415
826.904	26275
827.044	26054
827.183	25906
827.323	25993
827.462	25997
827.601	25978
827.741	26005
827.88	25970
828.02	25917
828.159	25898
828.298	26027
828.437	26005
828.577	25841
828.716	26081
828.855	25856
828.994	25651
829.134	25818
829.273	25818
829.412	25647
829.551	25605
829.69	25578
829.829	25700
829.968	25712
830.107	25731
830.246	25601
830.385	25639
830.524	25468
830.663	25529
830.802	25327
830.941	25301
831.08	25232
831.219	25221
831.357	25403
831.496	25445
831.635	25350
831.774	25179
831.913	25308
832.051	25103
832.19	24909
832.329	24916
832.467	25023
832.606	24901
832.744	24814
832.883	24913
833.022	24935
833.16	24977
833.299	24962
833.437	24844
833.576	25095
833.714	25023
833.852	25000
833.991	24928
834.129	24989
834.267	25050
834.406	24962
834.544	25050
834.682	25057
834.821	24962
834.959	25175
835.097	24909
835.235	24970
835.373	24939
835.511	25023
835.65	24886
835.788	25008
835.926	24646
836.064	24726
836.202	24738
836.34	24764
836.478	24905
836.615	24852
836.753	24814
836.891	24871
837.029	24806
837.167	24749
837.305	24730
837.443	24528
837.58	24563
837.718	24677
837.856	24627
837.993	24597
838.131	24509
838.269	24547
838.406	24471
838.544	24369
838.681	24285
838.819	24296
838.956	24114
839.094	24087
839.231	24216
839.369	24194
839.506	24544
839.643	24433
839.781	24057
839.918	24072
840.055	24114
840.193	24057
840.33	24030
840.467	24049
840.604	24041
840.742	24410
840.879	23847
841.016	23942
841.153	23904
841.29	24045
841.427	24159
841.564	24041
841.701	23950
841.838	23996
841.975	23916
842.112	23920
842.249	23824
842.385	23847
842.522	23923
842.659	23859
842.796	23927
842.933	23836
843.069	23695
843.206	23707
843.343	23904
843.479	23863
843.616	23828
843.752	23649
843.889	23634
844.025	23653
844.162	23558
844.298	23589
844.435	23505
844.571	23452
844.708	23512
844.844	23748
844.98	23760
845.117	23726
845.253	23551
845.389	23417
845.525	23551
845.661	23486
845.798	23181
845.934	23242
846.07	23334
846.206	23356
846.342	23440
846.478	23140
846.614	23090
846.75	23048
846.886	22949
847.022	22984
847.158	23033
847.294	23109
847.429	23014
847.565	22900
847.701	23109
847.837	22656
847.972	22786
848.108	22850
848.244	22790
848.379	22664
848.515	22580
848.65	22618
848.786	22592
848.921	22531
849.057	22835
849.192	22759
849.328	22603
849.463	22641
849.598	22531
849.734	22402
849.869	22436
850.004	22413
850.14	22394
850.275	22390
850.41	22249
850.545	22322
850.68	22276
850.815	22375
850.95	22344
851.085	22599
851.22	22421
851.355	22306
851.49	22417
851.625	22322
851.76	22284
851.895	22272
852.03	22360
852.165	22394
852.299	22360
852.434	22390
852.569	22478
852.703	22169
852.838	22447
852.973	22379
853.107	22424
853.242	22337
853.376	22253
853.511	22063
853.645	22093
853.78	22253
853.914	22143
854.048	22234
854.183	22154
854.317	22295
854.451	22265
854.585	22246
854.72	22158
854.854	22341
854.988	22185
855.122	22295
855.256	21998
855.39	22207
855.524	22188
855.658	22128
855.792	22101
855.926	22173
856.06	22112
856.194	22219
856.327	22093
856.461	22192
856.595	22124
856.729	22158
856.862	22268
856.996	22078
857.13	22215
857.263	22280
857.397	22242
857.53	22135
857.664	22211
857.797	22200
857.931	22405
858.064	22261
858.197	22386
858.331	22200
858.464	22143
858.597	22021
858.731	22158
858.864	22303
858.997	22135
859.13	22143
859.263	22211
859.396	22207
859.529	22116
859.662	22116
859.795	22211
859.928	22177
860.061	22352
860.194	22379
860.327	22211
860.46	22261
860.592	22386
860.725	22223
860.858	22291
860.99	22196
861.123	22162
861.256	22173
861.388	22109
861.521	22854
861.653	22010
861.786	21983
861.918	22029
862.05	21998
862.183	22162
862.315	22101
862.447	22226
862.58	22162
862.712	22059
862.844	21728
862.976	21899
863.108	21972
863.24	22287
863.372	21785
863.504	21953
863.636	21770
863.768	22010
863.9	21926
864.032	21838
864.164	21778
864.296	21876
864.428	22036
864.559	21861
864.691	21945
864.823	22010
864.954	21816
865.086	21846
865.217	21785
865.349	21713
865.48	21724
865.612	21800
865.743	21945
865.875	21861
866.006	21614
866.137	21732
866.269	21717
866.4	21736
866.531	21698
866.662	21663
866.793	21637
866.924	21736
867.055	21679
867.186	21656
867.317	21572
867.448	21660
867.579	21652
867.71	21667
867.841	21610
867.972	21591
868.103	21675
868.233	21766
868.364	21686
868.495	21743
868.625	21934
868.756	21979
868.886	21899
869.017	21911
869.147	21972
869.278	22124
869.408	21975
869.539	21926
869.669	22002
869.799	21964
869.929	22021
870.06	22025
870.19	22337
870.32	22314
870.45	22162
870.58	22459
870.71	22394
870.84	22500
870.97	22196
871.1	22409
871.23	22440
871.36	22691
871.489	22466
871.619	22584
871.749	22531
871.879	22409
872.008	22573
872.138	22516
872.267	22557
872.397	22470
872.526	22299
872.656	22249
872.785	22341
872.915	22424
873.044	22656
873.173	22512
873.303	22618
873.432	22615
873.561	22630
873.69	22656
873.819	22637
873.948	22546
874.077	22580
874.206	22455
874.335	22641
874.464	22641
874.593	22847
874.722	22683
874.851	22626
874.979	22805
875.108	22782
875.237	22748
875.365	22736
875.494	22649
875.623	22892
875.751	22683
875.88	22797
876.008	22911
876.136	22999
876.265	23147
876.393	23292
876.521	23273
876.65	23261
876.778	23189
876.906	23018
877.034	23132
877.162	23147
877.29	23014
877.418	23109
877.546	23105
877.674	22927
877.802	23094
877.93	23079
878.058	23086
878.185	22991
878.313	23136
878.441	23109
878.568	22961
878.696	23090
878.824	23067
878.951	23273
879.079	23269
879.206	23444
879.333	23299
879.461	23124
879.588	23250
879.715	23166
879.842	23356
879.97	23254
880.097	22968
880.224	22965
880.351	22987
880.478	23003
880.605	22949
880.732	22927
880.859	23147
880.986	22866
881.112	22858
881.239	22793
881.366	22622
881.493	22535
881.619	22557
881.746	22603
881.872	22607
881.999	22557
882.125	22375
882.252	22489
882.378	22557
882.505	22607
882.631	22413
882.757	22135
882.883	22375
883.01	22192
883.136	22147
883.262	22048
883.388	22010
883.514	22295
883.64	22211
883.766	22078
883.892	21918
884.018	22040
884.143	22112
884.269	22284
884.395	21895
884.52	21827
884.646	21888
884.772	21747
884.897	21781
885.023	21895
885.148	21915
885.274	21964
885.399	21930
885.524	21835
885.65	21793
885.775	21812
885.9	21762
886.025	22021
886.15	21895
886.275	21789
886.4	21686
886.525	21789
886.65	21732
886.775	21713
886.9	21964
887.025	21930
887.149	21667
887.274	21667
887.399	21641
887.523	21500
887.648	21599
887.773	21507
887.897	21736
888.021	21641
888.146	21485
888.27	21732
888.395	21656
888.519	21603
888.643	21580
888.767	21485
888.891	21500
889.015	21386
889.139	21382
889.263	21310
889.387	21488
889.511	21564
889.635	21523
889.759	21386
889.883	21264
890.006	21363
890.13	21435
890.254	21302
890.377	21218
890.501	21077
890.624	21039
890.748	21135
890.871	21066
890.995	20830
891.118	20785
891.241	20933
891.364	20933
891.488	20994
891.611	21009
891.734	20960
891.857	20944
891.98	20941
892.103	20906
892.226	21005
892.349	20883
892.471	20773
892.594	20792
892.717	20982
892.839	20800
892.962	20880
893.085	20815
893.207	20857
893.33	20773
893.452	20739
893.575	20845
893.697	20815
893.819	20956
893.941	21081
894.064	20921
894.186	20712
894.308	20724
894.43	20902
894.552	20944
894.674	20876
894.796	20823
894.918	20921
895.04	20773
895.161	20826
895.283	20845
895.405	20754
895.526	20754
895.648	20636
895.769	20796
895.891	20826
896.012	20815
896.134	20971
896.255	20750
896.376	20746
896.498	20891
896.619	20830
896.74	20853
896.861	20899
896.982	21009
897.103	21325
897.224	21093
897.345	20967
897.466	20986
897.587	21055
897.708	21131
897.828	21108
897.949	21009
898.07	20883
898.19	20838
898.311	21142
898.431	21028
898.552	20937
898.672	21005
898.792	21112
898.913	21001
899.033	20929
899.153	20895
899.273	20705
899.393	20651
899.513	20731
899.633	20686
899.753	20697
899.873	20754
899.993	20670
900.113	20735
900.232	20731
900.352	20579
900.472	20625
900.591	20514
900.711	20480
900.83	20461
900.95	20594
901.069	20594
901.189	20495
901.308	20092
901.427	20024
901.546	20100
901.665	20065
901.784	20134
901.904	19951
902.023	19791
902.141	19658
902.26	19666
902.379	19723
902.498	19552
902.617	19670
902.735	19544
902.854	19502
902.973	19533
903.091	19251
903.21	19168
903.328	19247
903.446	19259
903.565	19004
903.683	19072
903.801	19061
903.919	19031
904.038	18935
904.156	18821
904.274	18886
904.392	18844
904.51	18829
904.627	18890
904.745	18776
904.863	18863
904.981	18658
905.098	18498
905.216	18422
905.334	18494
905.451	18574
905.569	18498
905.686	18471
905.803	18525
905.921	18209
906.038	18350
906.155	18296
906.272	18178
906.389	18213
906.506	18076
906.623	18068
906.74	18011
906.857	17897
906.974	17939
907.091	18091
907.208	18144
907.324	18034
907.441	17821
907.557	17680
907.674	17863
907.79	17707
907.907	17729
908.023	17707
908.139	17760
908.256	17695
908.372	17516
908.488	17722
908.604	17585
908.72	17493
908.836	17474
908.952	17535
909.068	17402
909.184	17558
909.3	17414
909.415	17512
909.531	17395
909.647	17105
909.762	17174
909.878	17155
909.993	17200
910.108	17178
910.224	16984
910.339	17094
910.454	16987
910.57	16911
910.685	16782
910.8	17147
910.915	17170
911.03	17010
911.145	16710
911.259	16744
911.374	16755
911.489	16744
911.604	16542
911.718	16443
911.833	16451
911.947	16371
912.062	16268
912.176	16504
912.291	16485
912.405	16459
912.519	16721
912.633	16584
912.748	16508
912.862	16352
912.976	16234
913.09	16162
913.204	16306
913.318	16223
913.431	16459
913.545	16352
913.659	16196
913.772	16219
913.886	16116
914	16124
914.113	16116
914.226	16150
914.34	16192
914.453	15903
914.566	16093
914.68	15972
914.793	15918
914.906	15789
915.019	15694
915.132	15622
915.245	15641
915.358	15644
915.47	15660
915.583	15622
915.696	15656
915.809	15759
915.921	15781
916.034	15572
916.146	15576
916.259	15519
916.371	15648
916.483	15679
916.595	15443
916.708	15511
916.82	15439
916.932	15378
917.044	15462
917.156	15336
917.268	15367
917.38	15260
917.491	15264
917.603	15355
917.715	15348
917.826	15397
917.938	15222
918.049	15154
918.161	15317
918.272	15401
918.384	15298
918.495	15127
918.606	15123
918.717	15024
918.828	15043
918.939	15062
919.05	15024
919.161	14986
919.272	14880
919.383	14914
919.494	14990
919.604	15256
919.715	14899
919.826	14902
919.936	15001
920.047	15066
920.157	14899
920.267	15218
920.378	14979
920.488	14944
920.598	15161
920.708	15218
920.818	14982
920.928	15119
921.038	15256
921.148	15237
921.258	14857
921.368	14800
921.477	14811
921.587	14663
921.697	14590
921.806	14739
921.916	14556
922.025	14355
922.134	14263
922.244	14324
922.353	14358
922.462	14294
922.571	14225
922.68	14134
922.789	13974
922.898	14058
923.007	13940
923.116	13959
923.224	14035
923.333	13932
923.442	13788
923.55	13746
923.659	13788
923.767	13951
923.876	13803
923.984	13833
924.092	13655
924.201	13811
924.309	13658
924.417	13548
924.525	13723
924.633	13662
924.741	14617
924.849	13449
924.956	13578
925.064	13453
925.172	13392
925.279	13358
925.387	13438
925.494	13346
925.602	13582
925.709	13415
925.816	13225
925.924	13407
926.031	13297
926.138	13312
926.245	13430
926.352	13228
926.459	13468
926.566	13331
926.673	13255
926.779	13099
926.886	13053
926.993	12985
927.099	12875
927.206	12890
927.312	12844
927.419	12996
927.525	12840
927.631	12932
927.737	12779
927.843	12810
927.95	12715
928.056	12814
928.162	12719
928.267	12730
928.373	13384
928.479	12821
928.585	12608
928.69	12662
928.796	12772
928.901	12665
929.007	12452
929.112	12578
929.218	12509
929.323	12502
929.428	12456
929.533	12570
929.638	12395
929.743	12441
929.848	12479
929.953	12376
930.058	12254
930.163	12072
930.267	12129
930.372	12323
930.477	12064
930.581	12353
930.685	12186
930.79	11973
930.894	12011
930.998	11958
931.103	12106
931.207	11771
931.311	11680
931.415	11649
931.519	11376
931.623	11406
