Data from test_V78500241_3583.txt Node
Date: Fri Mar 25 16:06:37 CST 2022
User: usil
Spectrometer: V785-0024
Trigger mode: 0
Integration Time (sec): 4.000000E-1
Scans to average: 1
Nonlinearity correction enabled: false
Boxcar width: 0
Storing dark spectrum: false
XAxis mode: Wavelengths
Number of Pixels in Spectrum: 1024
>>>>>Begin Spectral Data<<<<<
801.071	28782
801.214	28733
801.356	28561
801.499	28493
801.641	28394
801.783	28375
801.926	28546
802.068	28447
802.211	28382
802.353	28398
802.496	28128
802.638	28211
802.78	28128
802.923	28135
803.065	27953
803.208	28166
803.35	28139
803.492	28207
803.635	28314
803.777	28375
803.919	28322
804.061	28721
804.204	28287
804.346	28295
804.488	28421
804.63	28253
804.773	28284
804.915	28394
805.057	28478
805.199	28382
805.341	28573
805.483	28531
805.626	28398
805.768	28455
805.91	28584
806.052	28573
806.194	28573
806.336	28653
806.478	28500
806.62	28702
806.762	28649
806.904	28885
807.046	28999
807.188	28991
807.33	29098
807.472	29140
807.614	29121
807.756	29029
807.898	28923
808.04	28687
808.182	28812
808.324	28942
808.465	28858
808.607	29098
808.749	29235
808.891	29258
809.033	29364
809.174	29254
809.316	29159
809.458	29200
809.6	29273
809.741	29402
809.883	29235
810.025	29406
810.166	29509
810.308	29482
810.45	29528
810.591	29360
810.733	29181
810.875	29231
811.016	29147
811.158	29033
811.299	29239
811.441	29410
811.582	29364
811.724	29330
811.865	29273
812.007	29277
812.148	29258
812.29	29223
812.431	29509
812.573	29440
812.714	29516
812.855	29676
812.997	29821
813.138	29870
813.279	29745
813.421	29707
813.562	29805
813.703	29562
813.845	29448
813.986	29265
814.127	29117
814.268	29140
814.41	29064
814.551	28839
814.692	29067
814.833	28831
814.974	28999
815.115	29014
815.256	28774
815.397	28752
815.539	28809
815.68	28668
815.821	28592
815.962	28835
816.103	28782
816.244	28660
816.385	28493
816.526	28577
816.666	28440
816.807	28253
816.948	28363
817.089	28360
817.23	28147
817.371	28314
817.512	28291
817.653	28257
817.793	28154
817.934	28150
818.075	28299
818.216	28131
818.356	28226
818.497	28032
818.638	28082
818.778	27994
818.919	27956
819.06	28086
819.2	28124
819.341	28314
819.481	28219
819.622	28508
819.762	28630
819.903	28424
820.043	28386
820.184	28440
820.324	28310
820.465	28497
820.605	28344
820.746	28337
820.886	28196
821.026	28310
821.167	28276
821.307	28523
821.447	28272
821.588	28116
821.728	27964
821.868	27922
822.008	27686
822.149	27759
822.289	27671
822.429	27435
822.569	27473
822.709	27359
822.849	27291
822.99	27275
823.13	27230
823.27	27138
823.41	27058
823.55	26842
823.69	27066
823.83	27096
823.97	26971
824.11	26910
824.25	26830
824.389	26804
824.529	26971
824.669	26826
824.809	26853
824.949	26906
825.089	26990
825.228	27024
825.368	26663
825.508	26640
825.648	26807
825.787	26838
825.927	26883
826.067	26834
826.206	26705
826.346	26788
826.485	26838
826.625	26705
826.765	26960
826.904	26887
827.044	26621
827.183	26629
827.323	26473
827.462	26617
827.601	26697
827.741	26450
827.88	26549
828.02	26343
828.159	26453
828.298	26564
828.437	26583
828.577	26400
828.716	26621
828.855	26339
828.994	26233
829.134	26221
829.273	26298
829.412	26282
829.551	26122
829.69	26244
829.829	26161
829.968	26210
830.107	26240
830.246	26164
830.385	26138
830.524	26183
830.663	25974
830.802	25879
830.941	25883
831.08	25750
831.219	25807
831.357	25761
831.496	26069
831.635	25818
831.774	25719
831.913	25647
832.051	25578
832.19	25559
832.329	25506
832.467	25445
832.606	25426
832.744	25445
832.883	25453
833.022	25457
833.16	25403
833.299	25479
833.437	25453
833.576	25548
833.714	25506
833.852	25495
833.991	25620
834.129	25499
834.267	25502
834.406	25441
834.544	25548
834.682	25620
834.821	25464
834.959	25552
835.097	25464
835.235	25563
835.373	25525
835.511	25419
835.65	25365
835.788	25343
835.926	25274
836.064	25095
836.202	25080
836.34	25228
836.478	25430
836.615	25164
836.753	25441
836.891	25468
837.029	25373
837.167	25358
837.305	25179
837.443	25240
837.58	25141
837.718	25164
837.856	25160
837.993	25061
838.131	25194
838.269	24947
838.406	25076
838.544	25080
838.681	24749
838.819	24665
838.956	24589
839.094	24623
839.231	24616
839.369	24852
839.506	25023
839.643	24913
839.781	24669
839.918	24627
840.055	24475
840.193	24597
840.33	24525
840.467	24681
840.604	24604
840.742	24817
840.879	24327
841.016	24456
841.153	24399
841.29	24681
841.427	24460
841.564	24540
841.701	24517
841.838	24528
841.975	24441
842.112	24467
842.249	24304
842.385	24304
842.522	24464
842.659	24376
842.796	24277
842.933	24285
843.069	24372
843.206	24262
843.343	24346
843.479	24311
843.616	24369
843.752	24057
843.889	24011
844.025	24205
844.162	23961
844.298	24159
844.435	24045
844.571	24045
844.708	24034
844.844	24224
844.98	24190
845.117	24197
845.253	23965
845.389	23942
845.525	24018
845.661	23996
845.798	23741
845.934	23836
846.07	23764
846.206	23870
846.342	23999
846.478	23843
846.614	23600
846.75	23391
846.886	23440
847.022	23474
847.158	23558
847.294	23554
847.429	23558
847.565	23493
847.701	23630
847.837	23181
847.972	23128
848.108	23383
848.244	23204
848.379	23254
848.515	23041
848.65	23090
848.786	23159
848.921	23143
849.057	23185
849.192	23181
849.328	23121
849.463	23143
849.598	23170
849.734	23029
849.869	22980
850.004	22725
850.14	22889
850.275	22858
850.41	22759
850.545	22812
850.68	22835
850.815	22896
850.95	22911
851.085	22965
851.22	23029
851.355	22820
851.49	22915
851.625	22873
851.76	22889
851.895	22694
852.03	22725
852.165	22908
852.299	22927
852.434	22908
852.569	22873
852.703	22740
852.838	22938
852.973	23037
853.107	23025
853.242	22717
853.376	22698
853.511	22478
853.645	22683
853.78	22904
853.914	22596
854.048	22725
854.183	22687
854.317	22664
854.451	22877
854.585	22858
854.72	22805
854.854	22782
854.988	22611
855.122	22672
855.256	22584
855.39	22687
855.524	22820
855.658	22687
855.792	22656
855.926	22778
856.06	22748
856.194	22740
856.327	22805
856.461	22607
856.595	22607
856.729	22656
856.862	22805
856.996	22675
857.13	22641
857.263	22858
857.397	22710
857.53	22675
857.664	22618
857.797	22759
857.931	22816
858.064	22774
858.197	22793
858.331	22634
858.464	22653
858.597	22557
858.731	22630
858.864	22622
858.997	22649
859.13	22679
859.263	22649
859.396	22713
859.529	22691
859.662	22622
859.795	22698
859.928	22710
860.061	22706
860.194	22816
860.327	22816
860.46	22698
860.592	22767
860.725	22892
860.858	22687
860.99	22786
861.123	22691
861.256	22645
861.388	22710
861.521	23330
861.653	22542
861.786	22588
861.918	22523
862.05	22691
862.183	22561
862.315	22607
862.447	22668
862.58	22653
862.712	22417
862.844	22306
862.976	22504
863.108	22481
863.24	22843
863.372	22337
863.504	22447
863.636	22432
863.768	22424
863.9	22402
864.032	22341
864.164	22318
864.296	22363
864.428	22599
864.559	22432
864.691	22466
864.823	22497
864.954	22402
865.086	22379
865.217	22268
865.349	22109
865.48	22295
865.612	22215
865.743	22360
865.875	22234
866.006	22166
866.137	22215
866.269	22177
866.4	22272
866.531	22128
866.662	22139
866.793	22093
866.924	22204
867.055	22325
867.186	22238
867.317	22150
867.448	22093
867.579	22105
867.71	22150
867.841	22086
867.972	22200
868.103	22135
868.233	22249
868.364	22272
868.495	22306
868.625	22398
868.756	22459
868.886	22306
869.017	22474
869.147	22577
869.278	22618
869.408	22371
869.539	22478
869.669	22569
869.799	22409
869.929	22512
870.06	22527
870.19	22824
870.32	22759
870.45	22805
870.58	22645
870.71	22946
870.84	22896
870.97	22854
871.1	22812
871.23	23044
871.36	23060
871.489	22892
871.619	23018
871.749	23098
871.879	22987
872.008	23128
872.138	23029
872.267	23044
872.397	22892
872.526	22767
872.656	22919
872.785	22801
872.915	22934
873.044	23159
873.173	23056
873.303	23067
873.432	23071
873.561	23105
873.69	23029
873.819	23022
873.948	23174
874.077	23102
874.206	22877
874.335	22949
874.464	23094
874.593	23220
874.722	23151
874.851	23296
874.979	23372
875.108	23296
875.237	23246
875.365	23220
875.494	23235
875.623	23330
875.751	23239
875.88	23353
876.008	23280
876.136	23512
876.265	23710
876.393	23737
876.521	23653
876.65	23707
876.778	23703
876.906	23604
877.034	23623
877.162	23592
877.29	23627
877.418	23501
877.546	23741
877.674	23638
877.802	23589
877.93	23528
878.058	23531
878.185	23421
878.313	23482
878.441	23436
878.568	23417
878.696	23543
878.824	23668
878.951	23748
879.079	23828
879.206	23813
879.333	23756
879.461	23611
879.588	23741
879.715	23786
879.842	23840
879.97	23566
880.097	23524
880.224	23414
880.351	23554
880.478	23334
880.605	23318
880.732	23417
880.859	23752
880.986	23402
881.112	23364
881.239	23436
881.366	23121
881.493	23090
881.619	22991
881.746	23010
881.872	22889
881.999	22999
882.125	22927
882.252	22797
882.378	22972
882.505	23094
882.631	22782
882.757	22748
882.883	22782
883.01	22622
883.136	22538
883.262	22470
883.388	22398
883.514	22668
883.64	22683
883.766	22523
883.892	22481
884.018	22379
884.143	22611
884.269	22596
884.395	22287
884.52	22215
884.646	22242
884.772	22219
884.897	22139
885.023	22253
885.148	22371
885.274	22360
885.399	22299
885.524	22322
885.65	22333
885.775	22162
885.9	22238
886.025	22291
886.15	22306
886.275	22276
886.4	22090
886.525	22310
886.65	22322
886.775	22131
886.9	22436
887.025	22531
887.149	22249
887.274	22128
887.399	21994
887.523	22082
887.648	22055
887.773	22032
887.897	22173
888.021	22093
888.146	21994
888.27	22116
888.395	22082
888.519	22025
888.643	22173
888.767	22169
888.891	21930
889.015	21926
889.139	21827
889.263	21846
889.387	21975
889.511	21991
889.635	21865
889.759	21831
889.883	21732
890.006	21789
890.13	21941
890.254	21827
890.377	21800
890.501	21462
890.624	21492
890.748	21576
890.871	21481
890.995	21313
891.118	21317
891.241	21348
891.364	21325
891.488	21435
891.611	21416
891.734	21348
891.857	21515
891.98	21283
892.103	21450
892.226	21412
892.349	21154
892.471	21279
892.594	21218
892.717	21268
892.839	21340
892.962	21317
893.085	21393
893.207	21226
893.33	21169
893.452	21135
893.575	21256
893.697	21222
893.819	21435
893.941	21542
894.064	21348
894.186	21291
894.308	21119
894.43	21416
894.552	21272
894.674	21344
894.796	21112
894.918	21317
895.04	21192
895.161	21252
895.283	21157
895.405	21173
895.526	21332
895.648	21256
895.769	21233
895.891	21317
896.012	21302
896.134	21222
896.255	21203
896.376	21218
896.498	21169
896.619	21230
896.74	21218
896.861	21222
896.982	21618
897.103	21709
897.224	21511
897.345	21458
897.466	21348
897.587	21325
897.708	21583
897.828	21485
897.949	21370
898.07	21222
898.19	21386
898.311	21469
898.431	21382
898.552	21355
898.672	21488
898.792	21412
898.913	21462
899.033	21412
899.153	21214
899.273	21252
899.393	21100
899.513	21291
899.633	21211
899.753	21123
899.873	21089
899.993	21199
900.113	21146
900.232	21070
900.352	21154
900.472	21017
900.591	20899
900.711	20963
900.83	20826
900.95	21039
901.069	20963
901.189	20906
901.308	20511
901.427	20461
901.546	20404
901.665	20522
901.784	20469
901.904	20320
902.023	20256
902.141	20008
902.26	19997
902.379	20027
902.498	19875
902.617	19868
902.735	20077
902.854	19997
902.973	20001
903.091	19689
903.21	19605
903.328	19704
903.446	19514
903.565	19491
903.683	19434
903.801	19400
903.919	19350
904.038	19350
904.156	19171
904.274	19316
904.392	19152
904.51	19141
904.627	19244
904.745	19232
904.863	19133
904.981	18932
905.098	18798
905.216	18776
905.334	18852
905.451	18981
905.569	18905
905.686	18905
905.803	18859
905.921	18597
906.038	18669
906.155	18673
906.272	18525
906.389	18540
906.506	18353
906.623	18456
906.74	18410
906.857	18159
906.974	18262
907.091	18528
907.208	18544
907.324	18426
907.441	18304
907.557	18140
907.674	18152
907.79	17904
907.907	18007
908.023	18216
908.139	18140
908.256	17927
908.372	18072
908.488	17931
908.604	17866
908.72	17843
908.836	17832
908.952	17752
909.068	17802
909.184	17923
909.3	17821
909.415	17821
909.531	17965
909.647	17547
909.762	17547
909.878	17577
909.993	17558
910.108	17452
910.224	17436
910.339	17497
910.454	17368
910.57	17296
910.685	17189
910.8	17490
910.915	17425
911.03	17486
911.145	17037
911.259	17128
911.374	17121
911.489	17056
911.604	16946
911.718	16782
911.833	16698
911.947	16763
912.062	16550
912.176	16889
912.291	16752
912.405	16763
912.519	16911
912.633	16987
912.748	16812
912.862	16733
912.976	16618
913.09	16493
913.204	16504
913.318	16668
913.431	16683
913.545	16736
913.659	16752
913.772	16603
913.886	16470
914	16398
914.113	16424
914.226	16504
914.34	16348
914.453	16367
914.566	16379
914.68	16261
914.793	16287
914.906	16078
915.019	15953
915.132	15873
915.245	16002
915.358	16021
915.47	15861
915.583	15945
915.696	16044
915.809	16055
915.921	16177
916.034	15945
916.146	15945
916.259	15884
916.371	15941
916.483	15831
916.595	15854
916.708	15701
916.82	15755
916.932	15698
917.044	15759
917.156	15743
917.268	15648
917.38	15667
917.491	15648
917.603	15629
917.715	15644
917.826	15720
917.938	15515
918.049	15530
918.161	15450
918.272	15701
918.384	15705
918.495	15603
918.606	15435
918.717	15230
918.828	15321
918.939	15363
919.05	15283
919.161	15245
919.272	15173
919.383	15226
919.494	15291
919.604	15576
919.715	15161
919.826	15195
919.936	15291
920.047	15275
920.157	15275
920.267	15424
920.378	15230
920.488	15260
920.598	15450
920.708	15572
920.818	15519
920.928	15424
921.038	15576
921.148	15496
921.258	15188
921.368	15131
921.477	15032
921.587	15032
921.697	14910
921.806	15058
921.916	14883
922.025	14834
922.134	14678
922.244	14598
922.353	14746
922.462	14613
922.571	14503
922.68	14252
922.789	14298
922.898	14271
923.007	14126
923.116	14343
923.224	14123
923.333	14271
923.442	14172
923.55	14050
923.659	14149
923.767	14157
923.876	14008
923.984	14240
924.092	14008
924.201	14027
924.309	14077
924.417	13947
924.525	13932
924.633	13921
924.741	14845
924.849	13757
924.956	13925
925.064	13704
925.172	13590
925.279	13651
925.387	13761
925.494	13715
925.602	13788
925.709	13681
925.816	13544
925.924	13578
926.031	13742
926.138	13571
926.245	13609
926.352	13483
926.459	13601
926.566	13582
926.673	13510
926.779	13384
926.886	13350
926.993	13240
927.099	13251
927.206	13206
927.312	13145
927.419	13206
927.525	13171
927.631	13164
927.737	13061
927.843	13015
927.95	12894
928.056	13027
928.162	12977
928.267	12973
928.373	13658
928.479	13149
928.585	12852
928.69	12878
928.796	13000
928.901	12890
929.007	12722
929.112	12840
929.218	12787
929.323	12730
929.428	12764
929.533	12817
929.638	12623
929.743	12646
929.848	12692
929.953	12677
930.058	12483
930.163	12319
930.267	12395
930.372	12547
930.477	12346
930.581	12612
930.685	12391
930.79	12304
930.894	12361
930.998	12209
931.103	12300
931.207	11984
931.311	11916
931.415	11805
931.519	11619
931.623	11581
