Data from test_V78500241_1973.txt Node
Date: Fri Mar 25 15:55:28 CST 2022
User: usil
Spectrometer: V785-0024
Trigger mode: 0
Integration Time (sec): 4.000000E-1
Scans to average: 1
Nonlinearity correction enabled: false
Boxcar width: 0
Storing dark spectrum: false
XAxis mode: Wavelengths
Number of Pixels in Spectrum: 1024
>>>>>Begin Spectral Data<<<<<
801.071	27302
801.214	27066
801.356	26948
801.499	26785
801.641	26686
801.783	26495
801.926	26693
802.068	26743
802.211	26564
802.353	26575
802.496	26476
802.638	26324
802.78	26294
802.923	26259
803.065	26275
803.208	26202
803.35	26298
803.492	26431
803.635	26564
803.777	26431
803.919	26358
804.061	26804
804.204	26389
804.346	26400
804.488	26320
804.63	26473
804.773	26339
804.915	26590
805.057	26674
805.199	26431
805.341	26560
805.483	26644
805.626	26754
805.768	26537
805.91	26571
806.052	26678
806.194	26575
806.336	26705
806.478	26617
806.62	26724
806.762	26575
806.904	26864
807.046	27104
807.188	26998
807.33	27005
807.472	27116
807.614	26899
807.756	26994
807.898	26952
808.04	26849
808.182	26762
808.324	26902
808.465	26830
808.607	27207
808.749	27173
808.891	27306
809.033	27416
809.174	27287
809.316	27123
809.458	27226
809.6	27154
809.741	27256
809.883	27325
810.025	27439
810.166	27431
810.308	27530
810.45	27389
810.591	27291
810.733	27176
810.875	27127
811.016	27005
811.158	27077
811.299	27184
811.441	27340
811.582	27336
811.724	27116
811.865	27161
812.007	27192
812.148	27104
812.29	27211
812.431	27302
812.573	27485
812.714	27667
812.855	27652
812.997	27762
813.138	27724
813.279	27774
813.421	27618
813.562	27538
813.703	27412
813.845	27291
813.986	27104
814.127	26849
814.268	26895
814.41	26868
814.551	26815
814.692	26906
814.833	26674
814.974	26705
815.115	26937
815.256	26708
815.397	26609
815.539	26674
815.68	26621
815.821	26339
815.962	26701
816.103	26636
816.244	26476
816.385	26404
816.526	26431
816.666	26252
816.807	26016
816.948	26157
817.089	26084
817.23	26043
817.371	25932
817.512	25966
817.653	26043
817.793	26008
817.934	25947
818.075	26195
818.216	26286
818.356	25913
818.497	25936
818.638	25639
818.778	25734
818.919	25833
819.06	25784
819.2	25894
819.341	25993
819.481	26008
819.622	26088
819.762	26278
819.903	26252
820.043	26278
820.184	26301
820.324	26214
820.465	26317
820.605	26161
820.746	26225
820.886	26035
821.026	26084
821.167	26149
821.307	26187
821.447	25997
821.588	25849
821.728	25860
821.868	25643
822.008	25616
822.149	25441
822.289	25453
822.429	25221
822.569	25171
822.709	25247
822.849	25053
822.99	25095
823.13	24916
823.27	24977
823.41	24890
823.55	24665
823.69	24859
823.83	24768
823.97	24692
824.11	24715
824.25	24700
824.389	24673
824.529	24814
824.669	24593
824.809	24703
824.949	24700
825.089	24623
825.228	24757
825.368	24410
825.508	24445
825.648	24475
825.787	24551
825.927	24559
826.067	24479
826.206	24467
826.346	24490
826.485	24551
826.625	24445
826.765	24612
826.904	24551
827.044	24220
827.183	24452
827.323	24091
827.462	24159
827.601	24194
827.741	24186
827.88	24266
828.02	24026
828.159	24076
828.298	24292
828.437	24247
828.577	24133
828.716	24235
828.855	24095
828.994	23954
829.134	23870
829.273	23931
829.412	23889
829.551	23920
829.69	23802
829.829	23897
829.968	24030
830.107	23999
830.246	23843
830.385	23889
830.524	24022
830.663	23851
830.802	23573
830.941	23455
831.08	23592
831.219	23653
831.357	23482
831.496	23752
831.635	23490
831.774	23452
831.913	23417
832.051	23128
832.19	23410
832.329	23318
832.467	23261
832.606	23143
832.744	23181
832.883	23094
833.022	23143
833.16	23292
833.299	23239
833.437	23216
833.576	23128
833.714	23223
833.852	23372
833.991	23387
834.129	23364
834.267	23284
834.406	23280
834.544	23349
834.682	23254
834.821	23356
834.959	23452
835.097	23197
835.235	23337
835.373	23273
835.511	23220
835.65	23128
835.788	23124
835.926	22942
836.064	23003
836.202	23056
836.34	23166
836.478	23132
836.615	23094
836.753	23212
836.891	23193
837.029	23128
837.167	23048
837.305	23003
837.443	23018
837.58	22942
837.718	23079
837.856	22862
837.993	22908
838.131	22889
838.269	22740
838.406	22904
838.544	22793
838.681	22672
838.819	22470
838.956	22394
839.094	22405
839.231	22504
839.369	22580
839.506	22881
839.643	22672
839.781	22512
839.918	22424
840.055	22584
840.193	22398
840.33	22386
840.467	22382
840.604	22432
840.742	22611
840.879	22287
841.016	22253
841.153	22200
841.29	22527
841.427	22352
841.564	22352
841.701	22386
841.838	22409
841.975	22261
842.112	22284
842.249	22105
842.385	22120
842.522	22360
842.659	22238
842.796	22139
842.933	22124
843.069	22204
843.206	22025
843.343	22158
843.479	22090
843.616	22120
843.752	21949
843.889	21873
844.025	22139
844.162	21884
844.298	21926
844.435	21869
844.571	21975
844.708	21998
844.844	22032
844.98	22048
845.117	22059
845.253	21812
845.389	21656
845.525	21827
845.661	21781
845.798	21523
845.934	21770
846.07	21545
846.206	21675
846.342	21793
846.478	21705
846.614	21374
846.75	21329
846.886	21302
847.022	21370
847.158	21492
847.294	21412
847.429	21447
847.565	21272
847.701	21656
847.837	21150
847.972	21043
848.108	21119
848.244	21157
848.379	21009
848.515	21020
848.65	20956
848.786	20990
848.921	21005
849.057	21028
849.192	21100
849.328	21028
849.463	20948
849.598	20804
849.734	20781
849.869	20834
850.004	20758
850.14	20750
850.275	20758
850.41	20697
850.545	20663
850.68	20686
850.815	20727
850.95	20792
851.085	20788
851.22	20830
851.355	20792
851.49	20796
851.625	20769
851.76	20674
851.895	20560
852.03	20632
852.165	20716
852.299	20689
852.434	20807
852.569	20830
852.703	20655
852.838	20876
852.973	20918
853.107	20765
853.242	20640
853.376	20617
853.511	20343
853.645	20571
853.78	20663
853.914	20682
854.048	20552
854.183	20484
854.317	20457
854.451	20697
854.585	20545
854.72	20507
854.854	20655
854.988	20564
855.122	20598
855.256	20396
855.39	20518
855.524	20651
855.658	20663
855.792	20541
855.926	20579
856.06	20507
856.194	20590
856.327	20503
856.461	20495
856.595	20518
856.729	20518
856.862	20754
856.996	20621
857.13	20530
857.263	20686
857.397	20514
857.53	20617
857.664	20568
857.797	20568
857.931	20693
858.064	20480
858.197	20617
858.331	20507
858.464	20488
858.597	20415
858.731	20473
858.864	20545
858.997	20511
859.13	20587
859.263	20514
859.396	20564
859.529	20427
859.662	20556
859.795	20476
859.928	20613
860.061	20838
860.194	20773
860.327	20689
860.46	20564
860.592	20716
860.725	20754
860.858	20640
860.99	20568
861.123	20514
861.256	20518
861.388	20564
861.521	21195
861.653	20423
861.786	20362
861.918	20370
862.05	20385
862.183	20465
862.315	20522
862.447	20518
862.58	20499
862.712	20290
862.844	20256
862.976	20336
863.108	20412
863.24	20746
863.372	20225
863.504	20237
863.636	20366
863.768	20362
863.9	20157
864.032	20130
864.164	20191
864.296	20305
864.428	20412
864.559	20320
864.691	20362
864.823	20240
864.954	20191
865.086	20214
865.217	20267
865.349	20065
865.48	20214
865.612	20183
865.743	20286
865.875	20077
866.006	20126
866.137	20134
866.269	20092
866.4	20073
866.531	19986
866.662	20084
866.793	20126
866.924	20111
867.055	20115
867.186	20039
867.317	20100
867.448	19970
867.579	20092
867.71	20153
867.841	20115
867.972	20157
868.103	20130
868.233	20020
868.364	20153
868.495	20237
868.625	20309
868.756	20530
868.886	20267
869.017	20336
869.147	20457
869.278	20434
869.408	20347
869.539	20290
869.669	20473
869.799	20431
869.929	20461
870.06	20514
870.19	20720
870.32	20549
870.45	20743
870.58	20727
870.71	20876
870.84	20937
870.97	20632
871.1	20712
871.23	20944
871.36	20956
871.489	20838
871.619	20807
871.749	20838
871.879	20975
872.008	21036
872.138	20998
872.267	20967
872.397	20853
872.526	20750
872.656	20762
872.785	20762
872.915	21127
873.044	21146
873.173	20956
873.303	21020
873.432	21024
873.561	21085
873.69	20975
873.819	20929
873.948	21108
874.077	21024
874.206	20887
874.335	20986
874.464	21028
874.593	21123
874.722	21154
874.851	21192
874.979	21207
875.108	21214
875.237	21104
875.365	21188
875.494	21135
875.623	21260
875.751	21169
875.88	21321
876.008	21256
876.136	21462
876.265	21576
876.393	21743
876.521	21652
876.65	21789
876.778	21808
876.906	21458
877.034	21580
877.162	21671
877.29	21515
877.418	21572
877.546	21530
877.674	21591
877.802	21519
877.93	21679
878.058	21389
878.185	21469
878.313	21690
878.441	21709
878.568	21367
878.696	21568
878.824	21500
878.951	21686
879.079	21785
879.206	21816
879.333	21739
879.461	21652
879.588	21739
879.715	21705
879.842	21759
879.97	21713
880.097	21416
880.224	21367
880.351	21321
880.478	21405
880.605	21424
880.732	21363
880.859	21667
880.986	21386
881.112	21382
881.239	21245
881.366	21119
881.493	21085
881.619	20937
881.746	21039
881.872	21013
881.999	20979
882.125	20849
882.252	20979
882.378	21024
882.505	21085
882.631	20849
882.757	20712
882.883	20800
883.01	20716
883.136	20644
883.262	20507
883.388	20446
883.514	20583
883.64	20708
883.766	20579
883.892	20374
884.018	20511
884.143	20583
884.269	20678
884.395	20450
884.52	20305
884.646	20480
884.772	20286
884.897	20275
885.023	20343
885.148	20492
885.274	20412
885.399	20465
885.524	20419
885.65	20450
885.775	20366
885.9	20393
886.025	20408
886.15	20393
886.275	20244
886.4	20195
886.525	20298
886.65	20252
886.775	20157
886.9	20564
887.025	20564
887.149	20237
887.274	20191
887.399	20100
887.523	20062
887.648	20153
887.773	20046
887.897	20168
888.021	20161
888.146	20054
888.27	20259
888.395	20187
888.519	20244
888.643	20225
888.767	20218
888.891	19997
889.015	19913
889.139	19947
889.263	19868
889.387	20168
889.511	20233
889.635	20005
889.759	19845
889.883	19860
890.006	19913
890.13	20069
890.254	19868
890.377	19791
890.501	19635
890.624	19700
890.748	19700
890.871	19521
890.995	19396
891.118	19468
891.241	19499
891.364	19559
891.488	19578
891.611	19578
891.734	19510
891.857	19510
891.98	19506
892.103	19613
892.226	19438
892.349	19441
892.471	19202
892.594	19430
892.717	19388
892.839	19422
892.962	19472
893.085	19635
893.207	19495
893.33	19285
893.452	19396
893.575	19430
893.697	19384
893.819	19571
893.941	19544
894.064	19670
894.186	19339
894.308	19441
894.43	19426
894.552	19525
894.674	19483
894.796	19335
894.918	19495
895.04	19400
895.161	19506
895.283	19434
895.405	19312
895.526	19392
895.648	19388
895.769	19430
895.891	19556
896.012	19552
896.134	19438
896.255	19495
896.376	19438
896.498	19518
896.619	19480
896.74	19434
896.861	19575
896.982	19837
897.103	19921
897.224	19662
897.345	19635
897.466	19601
897.587	19643
897.708	19791
897.828	19696
897.949	19616
898.07	19525
898.19	19575
898.311	19761
898.431	19620
898.552	19601
898.672	19757
898.792	19791
898.913	19632
899.033	19635
899.153	19514
899.273	19339
899.393	19438
899.513	19487
899.633	19476
899.753	19529
899.873	19445
899.993	19502
900.113	19392
900.232	19411
900.352	19308
900.472	19297
900.591	19301
900.711	19225
900.83	19244
900.95	19369
901.069	19369
901.189	19129
901.308	18939
901.427	18764
901.546	18913
901.665	18894
901.784	18856
901.904	18730
902.023	18635
902.141	18525
902.26	18327
902.379	18452
902.498	18334
902.617	18372
902.735	18319
902.854	18270
902.973	18292
903.091	18106
903.21	18064
903.328	17965
903.446	17923
903.565	17733
903.683	17863
903.801	17794
903.919	17813
904.038	17771
904.156	17676
904.274	17657
904.392	17646
904.51	17665
904.627	17570
904.745	17562
904.863	17627
904.981	17368
905.098	17166
905.216	17315
905.334	17318
905.451	17414
905.569	17204
905.686	17349
905.803	17345
905.921	16987
906.038	17208
906.155	16961
906.272	16991
906.389	17048
906.506	16866
906.623	16847
906.74	16828
906.857	16664
906.974	16740
907.091	16839
907.208	16892
907.324	16923
907.441	16630
907.557	16584
907.674	16538
907.79	16580
907.907	16504
908.023	16554
908.139	16630
908.256	16440
908.372	16462
908.488	16341
908.604	16185
908.72	16249
908.836	16272
908.952	16246
909.068	16333
909.184	16428
909.3	16246
909.415	16325
909.531	16242
909.647	16059
909.762	16063
909.878	16021
909.993	15983
910.108	15941
910.224	15854
910.339	15941
910.454	15827
910.57	15682
910.685	15739
910.8	15964
910.915	15983
911.03	15797
911.145	15629
911.259	15534
911.374	15610
911.489	15538
911.604	15443
911.718	15291
911.833	15325
911.947	15249
912.062	15180
912.176	15367
912.291	15359
912.405	15332
912.519	15519
912.633	15488
912.748	15351
912.862	15249
912.976	15138
913.09	15013
913.204	15001
913.318	15180
913.431	15321
913.545	15195
913.659	15313
913.772	15043
913.886	14902
914	14868
914.113	15154
914.226	15104
914.34	15032
914.453	14902
914.566	14971
914.68	14952
914.793	14811
914.906	14655
915.019	14549
915.132	14590
915.245	14511
915.358	14587
915.47	14598
915.583	14606
915.696	14587
915.809	14682
915.921	14750
916.034	14533
916.146	14568
916.259	14423
916.371	14537
916.483	14469
916.595	14431
916.708	14438
916.82	14370
916.932	14400
917.044	14317
917.156	14328
917.268	14305
917.38	14278
917.491	14278
917.603	14248
917.715	14355
917.826	14412
917.938	14301
918.049	14210
918.161	14237
918.272	14263
918.384	14294
918.495	14195
918.606	14039
918.717	13967
918.828	14039
918.939	14077
919.05	13902
919.161	14035
919.272	13830
919.383	13909
919.494	14065
919.604	14275
919.715	14027
919.826	13909
919.936	14016
920.047	14092
920.157	14035
920.267	14218
920.378	14054
920.488	13978
920.598	14168
920.708	14343
920.818	14244
920.928	14107
921.038	14305
921.148	14229
921.258	13970
921.368	13879
921.477	13746
921.587	13651
921.697	13666
921.806	13811
921.916	13582
922.025	13445
922.134	13506
922.244	13331
922.353	13457
922.462	13247
922.571	13145
922.68	13004
922.789	13057
922.898	13126
923.007	13000
923.116	13046
923.224	13069
923.333	12989
923.442	13042
923.55	12916
923.659	12897
923.767	12875
923.876	12863
923.984	13000
924.092	12817
924.201	12833
924.309	12795
924.417	12791
924.525	12726
924.633	12745
924.741	13674
924.849	12555
924.956	12772
925.064	12574
925.172	12490
925.279	12460
925.387	12559
925.494	12452
925.602	12658
925.709	12490
925.816	12445
925.924	12365
926.031	12574
926.138	12372
926.245	12483
926.352	12338
926.459	12540
926.566	12464
926.673	12323
926.779	12266
926.886	12315
926.993	12019
927.099	12186
927.206	11999
927.312	12068
927.419	12095
927.525	12038
927.631	12228
927.737	12045
927.843	11954
927.95	11836
928.056	11870
928.162	11980
928.267	11984
928.373	12604
928.479	11931
928.585	11821
928.69	11771
928.796	11923
928.901	11752
929.007	11661
929.112	11741
929.218	11779
929.323	11657
929.428	11608
929.533	11729
929.638	11623
929.743	11558
929.848	11680
929.953	11596
930.058	11387
930.163	11436
930.267	11433
930.372	11490
930.477	11318
930.581	11501
930.685	11379
930.79	11258
930.894	11246
930.998	11181
931.103	11311
931.207	10915
931.311	10896
931.415	10797
931.519	10653
931.623	10660
