Data from test_V78500241_2052.txt Node
Date: Fri Mar 25 15:56:00 CST 2022
User: usil
Spectrometer: V785-0024
Trigger mode: 0
Integration Time (sec): 4.000000E-1
Scans to average: 1
Nonlinearity correction enabled: false
Boxcar width: 0
Storing dark spectrum: false
XAxis mode: Wavelengths
Number of Pixels in Spectrum: 1024
>>>>>Begin Spectral Data<<<<<
801.071	29071
801.214	28972
801.356	28664
801.499	28771
801.641	28550
801.783	28573
801.926	28790
802.068	28599
802.211	28573
802.353	28592
802.496	28257
802.638	28421
802.78	28257
802.923	28219
803.065	28242
803.208	28409
803.35	28432
803.492	28447
803.635	28546
803.777	28440
803.919	28599
804.061	28854
804.204	28599
804.346	28417
804.488	28413
804.63	28527
804.773	28508
804.915	28687
805.057	28729
805.199	28554
805.341	28634
805.483	28660
805.626	28744
805.768	28599
805.91	28710
806.052	28869
806.194	28637
806.336	28904
806.478	28778
806.62	28835
806.762	29071
806.904	29052
807.046	29296
807.188	29083
807.33	29208
807.472	29121
807.614	29200
807.756	29216
807.898	29170
808.04	29151
808.182	29060
808.324	29277
808.465	29113
808.607	29288
808.749	29535
808.891	29630
809.033	29589
809.174	29467
809.316	29463
809.458	29524
809.6	29402
809.741	29539
809.883	29486
810.025	29630
810.166	29668
810.308	29783
810.45	29661
810.591	29649
810.733	29440
810.875	29402
811.016	29345
811.158	29433
811.299	29448
811.441	29547
811.582	29813
811.724	29436
811.865	29528
812.007	29478
812.148	29501
812.29	29524
812.431	29680
812.573	29908
812.714	29916
812.855	29950
812.997	30018
813.138	30133
813.279	30057
813.421	29912
813.562	29927
813.703	29695
813.845	29611
813.986	29516
814.127	29265
814.268	29113
814.41	29185
814.551	29189
814.692	29227
814.833	29136
814.974	29216
815.115	29288
815.256	28953
815.397	28976
815.539	29048
815.68	28949
815.821	28908
815.962	29083
816.103	28968
816.244	28934
816.385	28782
816.526	28702
816.666	28683
816.807	28573
816.948	28580
817.089	28569
817.23	28573
817.371	28447
817.512	28489
817.653	28500
817.793	28436
817.934	28535
818.075	28485
818.216	28436
818.356	28531
818.497	28360
818.638	28242
818.778	28253
818.919	28341
819.06	28306
819.2	28405
819.341	28531
819.481	28554
819.622	28618
819.762	28797
819.903	28862
820.043	28691
820.184	28706
820.324	28546
820.465	28694
820.605	28683
820.746	28527
820.886	28497
821.026	28573
821.167	28542
821.307	28596
821.447	28577
821.588	28451
821.728	28462
821.868	28059
822.008	28074
822.149	28070
822.289	27907
822.429	27736
822.569	27614
822.709	27804
822.849	27416
822.99	27526
823.13	27447
823.27	27454
823.41	27283
823.55	27252
823.69	27325
823.83	27370
823.97	27363
824.11	27081
824.25	27089
824.389	27074
824.529	27355
824.669	27123
824.809	27188
824.949	27325
825.089	27233
825.228	27119
825.368	27005
825.508	26891
825.648	26933
825.787	26986
825.927	27123
826.067	26975
826.206	26952
826.346	27142
826.485	27310
826.625	26979
826.765	27077
826.904	27131
827.044	26773
827.183	26636
827.323	26724
827.462	26788
827.601	26788
827.741	26693
827.88	26800
828.02	26617
828.159	26792
828.298	26765
828.437	26781
828.577	26571
828.716	26826
828.855	26670
828.994	26473
829.134	26461
829.273	26415
829.412	26480
829.551	26358
829.69	26499
829.829	26381
829.968	26579
830.107	26404
830.246	26480
830.385	26442
830.524	26267
830.663	26138
830.802	26149
830.941	25959
831.08	26039
831.219	26100
831.357	26016
831.496	26176
831.635	26084
831.774	26084
831.913	25963
832.051	25856
832.19	25864
832.329	25883
832.467	25670
832.606	25655
832.744	25719
832.883	25685
833.022	25719
833.16	25628
833.299	25731
833.437	25738
833.576	25807
833.714	25681
833.852	25795
833.991	25917
834.129	25841
834.267	25860
834.406	25780
834.544	25700
834.682	25894
834.821	25708
834.959	25883
835.097	25632
835.235	25761
835.373	25791
835.511	25704
835.65	25605
835.788	25750
835.926	25506
836.064	25411
836.202	25400
836.34	25620
836.478	25616
836.615	25578
836.753	25624
836.891	25742
837.029	25635
837.167	25529
837.305	25468
837.443	25377
837.58	25228
837.718	25616
837.856	25495
837.993	25495
838.131	25445
838.269	25198
838.406	25354
838.544	25190
838.681	25061
838.819	25091
838.956	24776
839.094	24890
839.231	24951
839.369	25122
839.506	25263
839.643	25061
839.781	24844
839.918	24791
840.055	24901
840.193	24810
840.33	24821
840.467	24947
840.604	24878
840.742	24943
840.879	24566
841.016	24696
841.153	24703
841.29	24738
841.427	24711
841.564	24776
841.701	24703
841.838	24681
841.975	24654
842.112	24669
842.249	24601
842.385	24467
842.522	24814
842.659	24608
842.796	24544
842.933	24551
843.069	24433
843.206	24357
843.343	24426
843.479	24544
843.616	24433
843.752	24361
843.889	24270
844.025	24483
844.162	24190
844.298	24319
844.435	24376
844.571	24197
844.708	24357
844.844	24464
844.98	24380
845.117	24418
845.253	24201
845.389	24140
845.525	24197
845.661	24121
845.798	23988
845.934	24129
846.07	23965
846.206	24091
846.342	24262
846.478	23999
846.614	23878
846.75	23821
846.886	23756
847.022	23863
847.158	23840
847.294	23741
847.429	23764
847.565	23756
847.701	23889
847.837	23551
847.972	23516
848.108	23512
848.244	23627
848.379	23299
848.515	23402
848.65	23395
848.786	23471
848.921	23501
849.057	23349
849.192	23425
849.328	23330
849.463	23258
849.598	23250
849.734	23303
849.869	23151
850.004	23060
850.14	23121
850.275	23136
850.41	22980
850.545	23094
850.68	22942
850.815	23121
850.95	23185
851.085	23368
851.22	23250
851.355	23151
851.49	23147
851.625	23140
851.76	23071
851.895	22972
852.03	23022
852.165	23083
852.299	23102
852.434	23170
852.569	23250
852.703	22991
852.838	23181
852.973	23223
853.107	23124
853.242	23109
853.376	22984
853.511	22801
853.645	22911
853.78	23041
853.914	22980
854.048	22881
854.183	22892
854.317	22919
854.451	23090
854.585	23006
854.72	22858
854.854	23025
854.988	22786
855.122	22835
855.256	22820
855.39	22984
855.524	22938
855.658	23025
855.792	22908
855.926	22862
856.06	22938
856.194	22972
856.327	22908
856.461	22752
856.595	22896
856.729	22866
856.862	23151
856.996	22976
857.13	22927
857.263	22991
857.397	22889
857.53	22927
857.664	22919
857.797	22812
857.931	22919
858.064	22869
858.197	22965
858.331	22892
858.464	22771
858.597	22854
858.731	22987
858.864	22797
858.997	22866
859.13	22896
859.263	22961
859.396	22968
859.529	22797
859.662	22763
859.795	22904
859.928	22949
860.061	23197
860.194	23025
860.327	23037
860.46	22885
860.592	23067
860.725	23132
860.858	22984
860.99	23022
861.123	22831
861.256	22793
861.388	22911
861.521	23592
861.653	22793
861.786	22672
861.918	22649
862.05	22839
862.183	22759
862.315	22885
862.447	22816
862.58	22755
862.712	22656
862.844	22588
862.976	22679
863.108	22645
863.24	23128
863.372	22569
863.504	22740
863.636	22508
863.768	22618
863.9	22577
864.032	22382
864.164	22656
864.296	22569
864.428	22725
864.559	22618
864.691	22782
864.823	22573
864.954	22592
865.086	22569
865.217	22645
865.349	22352
865.48	22417
865.612	22557
865.743	22645
865.875	22386
866.006	22352
866.137	22462
866.269	22428
866.4	22474
866.531	22402
866.662	22390
866.793	22497
866.924	22421
867.055	22436
867.186	22447
867.317	22459
867.448	22348
867.579	22348
867.71	22379
867.841	22409
867.972	22382
868.103	22421
868.233	22295
868.364	22455
868.495	22489
868.625	22653
868.756	22721
868.886	22603
869.017	22577
869.147	22744
869.278	22607
869.408	22672
869.539	22607
869.669	22767
869.799	22649
869.929	22713
870.06	22828
870.19	23105
870.32	22801
870.45	23003
870.58	23006
870.71	23083
870.84	23124
870.97	23071
871.1	23014
871.23	23368
871.36	23208
871.489	23223
871.619	23273
871.749	23174
871.879	23353
872.008	23337
872.138	23223
872.267	23200
872.397	23102
872.526	23067
872.656	23132
872.785	23105
872.915	23337
873.044	23258
873.173	23307
873.303	23353
873.432	23406
873.561	23372
873.69	23250
873.819	23166
873.948	23341
874.077	23242
874.206	23254
874.335	23193
874.464	23372
874.593	23474
874.722	23459
874.851	23474
874.979	23562
875.108	23531
875.237	23566
875.365	23372
875.494	23292
875.623	23604
875.751	23356
875.88	23368
876.008	23554
876.136	23676
876.265	23847
876.393	24110
876.521	23908
876.65	23824
876.778	23923
876.906	23737
877.034	23756
877.162	23718
877.29	23794
877.418	23904
877.546	23840
877.674	23821
877.802	23843
877.93	23790
878.058	23878
878.185	23703
878.313	23714
878.441	23870
878.568	23653
878.696	23646
878.824	23824
878.951	23935
879.079	24121
879.206	24003
879.333	24015
879.461	23870
879.588	23885
879.715	23904
879.842	24038
879.97	23771
880.097	23551
880.224	23558
880.351	23634
880.478	23691
880.605	23714
880.732	23551
880.859	23855
880.986	23566
881.112	23638
881.239	23455
881.366	23288
881.493	23216
881.619	23197
881.746	23288
881.872	23151
881.999	23098
882.125	23185
882.252	23212
882.378	22995
882.505	23376
882.631	23022
882.757	22843
882.883	22953
883.01	22752
883.136	22843
883.262	22630
883.388	22809
883.514	22801
883.64	22793
883.766	22892
883.892	22478
884.018	22611
884.143	22805
884.269	22759
884.395	22577
884.52	22398
884.646	22481
884.772	22504
884.897	22428
885.023	22386
885.148	22493
885.274	22656
885.399	22478
885.524	22428
885.65	22440
885.775	22459
885.9	22470
886.025	22485
886.15	22577
886.275	22462
886.4	22485
886.525	22481
886.65	22580
886.775	22371
886.9	22493
887.025	22569
887.149	22489
887.274	22280
887.399	22181
887.523	22238
887.648	22207
887.773	22200
887.897	22234
888.021	22223
888.146	22124
888.27	22211
888.395	22303
888.519	22268
888.643	22226
888.767	22394
888.891	22169
889.015	21888
889.139	22006
889.263	22002
889.387	22040
889.511	22360
889.635	22063
889.759	21941
889.883	22010
890.006	22025
890.13	22006
890.254	21983
890.377	21918
890.501	21793
890.624	21618
890.748	21766
890.871	21595
890.995	21564
891.118	21462
891.241	21663
891.364	21488
891.488	21587
891.611	21572
891.734	21515
891.857	21701
891.98	21523
892.103	21534
892.226	21622
892.349	21595
892.471	21428
892.594	21397
892.717	21466
892.839	21344
892.962	21439
893.085	21439
893.207	21447
893.33	21264
893.452	21317
893.575	21564
893.697	21321
893.819	21526
893.941	21564
894.064	21599
894.186	21279
894.308	21291
894.43	21420
894.552	21549
894.674	21709
894.796	21252
894.918	21450
895.04	21485
895.161	21564
895.283	21485
895.405	21389
895.526	21412
895.648	21473
895.769	21473
895.891	21393
896.012	21564
896.134	21443
896.255	21283
896.376	21439
896.498	21321
896.619	21382
896.74	21374
896.861	21367
896.982	21755
897.103	21797
897.224	21652
897.345	21534
897.466	21572
897.587	21625
897.708	21694
897.828	21629
897.949	21515
898.07	21485
898.19	21538
898.311	21637
898.431	21428
898.552	21610
898.672	21671
898.792	21504
898.913	21599
899.033	21599
899.153	21511
899.273	21291
899.393	21298
899.513	21408
899.633	21245
899.753	21332
899.873	21306
899.993	21374
900.113	21294
900.232	21313
900.352	21294
900.472	21028
900.591	20948
900.711	21096
900.83	21173
900.95	21249
901.069	21199
901.189	20975
901.308	20682
901.427	20541
901.546	20632
901.665	20735
901.784	20651
901.904	20492
902.023	20301
902.141	20218
902.26	20221
902.379	20153
902.498	20225
902.617	20172
902.735	20164
902.854	20073
902.973	20138
903.091	19772
903.21	19727
903.328	19776
903.446	19814
903.565	19594
903.683	19597
903.801	19578
903.919	19495
904.038	19445
904.156	19346
904.274	19419
904.392	19434
904.51	19343
904.627	19381
904.745	19400
904.863	19529
904.981	19080
905.098	19046
905.216	19080
905.334	19080
905.451	18985
905.569	18985
905.686	19152
905.803	19069
905.921	18829
906.038	18875
906.155	18878
906.272	18711
906.389	18658
906.506	18631
906.623	18445
906.74	18494
906.857	18498
906.974	18365
907.091	18585
907.208	18688
907.324	18536
907.441	18353
907.557	18289
907.674	18365
907.79	18186
907.907	18144
908.023	18174
908.139	18365
908.256	18209
908.372	18163
908.488	18186
908.604	17992
908.72	17973
908.836	17897
908.952	18011
909.068	17988
909.184	17988
909.3	17901
909.415	17920
909.531	17878
909.647	17665
909.762	17608
909.878	17646
909.993	17623
910.108	17661
910.224	17608
910.339	17592
910.454	17478
910.57	17532
910.685	17471
910.8	17592
910.915	17649
911.03	17524
911.145	17227
911.259	17246
911.374	17220
911.489	17204
911.604	17174
911.718	16938
911.833	16957
911.947	16896
912.062	16828
912.176	16892
912.291	16995
912.405	16896
912.519	17102
912.633	17083
912.748	16919
912.862	17006
912.976	16752
913.09	16641
913.204	16717
913.318	16733
913.431	16869
913.545	16831
913.659	16824
913.772	16618
913.886	16497
914	16542
914.113	16698
914.226	16668
914.34	16546
914.453	16375
914.566	16493
914.68	16466
914.793	16367
914.906	16246
915.019	16097
915.132	16185
915.245	16124
915.358	16207
915.47	16086
915.583	16040
915.696	16128
915.809	16223
915.921	16246
916.034	16101
916.146	15941
916.259	15869
916.371	16063
916.483	16029
916.595	16029
916.708	15903
916.82	15930
916.932	15895
917.044	15827
917.156	15857
917.268	15671
917.38	15816
917.491	15679
917.603	15808
917.715	15835
917.826	15797
917.938	15701
918.049	15629
918.161	15709
918.272	15888
918.384	15778
918.495	15610
918.606	15534
918.717	15401
918.828	15511
918.939	15534
919.05	15386
919.161	15401
919.272	15268
919.383	15332
919.494	15481
919.604	15622
919.715	15389
919.826	15454
919.936	15420
920.047	15488
920.157	15332
920.267	15633
920.378	15454
920.488	15405
920.598	15618
920.708	15701
920.818	15568
920.928	15553
921.038	15766
921.148	15530
921.258	15378
921.368	15264
921.477	15119
921.587	15188
921.697	15005
921.806	15104
921.916	15005
922.025	14895
922.134	14743
922.244	14720
922.353	14739
922.462	14735
922.571	14636
922.68	14415
922.789	14370
922.898	14465
923.007	14267
923.116	14454
923.224	14317
923.333	14389
923.442	14259
923.55	14172
923.659	14286
923.767	14183
923.876	14149
923.984	14233
924.092	14138
924.201	14218
924.309	14103
924.417	14058
924.525	14077
924.633	14001
924.741	15001
924.849	13852
924.956	13917
925.064	13807
925.172	13734
925.279	13616
925.387	13887
925.494	13727
925.602	13856
925.709	13841
925.816	13636
925.924	13700
926.031	13731
926.138	13674
926.245	13719
926.352	13514
926.459	13731
926.566	13738
926.673	13632
926.779	13552
926.886	13441
926.993	13343
927.099	13316
927.206	13274
927.312	13228
927.419	13266
927.525	13320
927.631	13320
927.737	13145
927.843	13171
927.95	13091
928.056	13126
928.162	13133
928.267	13206
928.373	13799
928.479	13228
928.585	12943
928.69	13065
928.796	13019
928.901	12947
929.007	12791
929.112	13050
929.218	12871
929.323	12738
929.428	12753
929.533	12924
929.638	12783
929.743	12810
929.848	12703
929.953	12791
930.058	12692
930.163	12502
930.267	12570
930.372	12623
930.477	12418
930.581	12536
930.685	12525
930.79	12391
930.894	12441
930.998	12319
931.103	12506
931.207	12098
931.311	11996
931.415	11999
931.519	11710
931.623	11722
