Data from test_V78500241_1862.txt Node
Date: Fri Mar 25 15:54:41 CST 2022
User: usil
Spectrometer: V785-0024
Trigger mode: 0
Integration Time (sec): 4.000000E-1
Scans to average: 1
Nonlinearity correction enabled: false
Boxcar width: 0
Storing dark spectrum: false
XAxis mode: Wavelengths
Number of Pixels in Spectrum: 1024
>>>>>Begin Spectral Data<<<<<
801.071	28542
801.214	28618
801.356	28527
801.499	28493
801.641	28280
801.783	28230
801.926	28261
802.068	28261
802.211	28188
802.353	27918
802.496	28006
802.638	27941
802.78	27895
802.923	27804
803.065	27823
803.208	27739
803.35	27816
803.492	28021
803.635	28128
803.777	28082
803.919	28185
804.061	28489
804.204	28234
804.346	27968
804.488	28116
804.63	28169
804.773	28162
804.915	28215
805.057	28261
805.199	28093
805.341	28291
805.483	28242
805.626	28154
805.768	28173
805.91	28440
806.052	28356
806.194	28287
806.336	28459
806.478	28363
806.62	28303
806.762	28596
806.904	28603
807.046	28858
807.188	28653
807.33	28740
807.472	28793
807.614	28721
807.756	28862
807.898	28592
808.04	28519
808.182	28523
808.324	28561
808.465	28645
808.607	28801
808.749	29162
808.891	29022
809.033	29204
809.174	29162
809.316	28968
809.458	29124
809.6	28911
809.741	29109
809.883	29140
810.025	29231
810.166	29299
810.308	29250
810.45	29174
810.591	29143
810.733	29056
810.875	29071
811.016	28942
811.158	28873
811.299	29113
811.441	29121
811.582	29067
811.724	29075
811.865	28923
812.007	28900
812.148	28984
812.29	28995
812.431	29014
812.573	29239
812.714	29368
812.855	29528
812.997	29539
813.138	29710
813.279	29577
813.421	29383
813.562	29558
813.703	29467
813.845	29277
813.986	28946
814.127	28668
814.268	28603
814.41	28675
814.551	28599
814.692	28915
814.833	28622
814.974	28645
815.115	28691
815.256	28523
815.397	28538
815.539	28630
815.68	28512
815.821	28352
815.962	28474
816.103	28523
816.244	28188
816.385	28230
816.526	28192
816.666	27937
816.807	27987
816.948	28029
817.089	28029
817.23	27918
817.371	28017
817.512	27937
817.653	27899
817.793	27857
817.934	27941
818.075	28093
818.216	27964
818.356	27941
818.497	27865
818.638	27755
818.778	27690
818.919	27743
819.06	27781
819.2	27903
819.341	27964
819.481	28070
819.622	27968
819.762	28276
819.903	28265
820.043	28116
820.184	28166
820.324	28177
820.465	28329
820.605	28017
820.746	28063
820.886	27884
821.026	28105
821.167	28040
821.307	28234
821.447	27983
821.588	27907
821.728	27759
821.868	27671
822.008	27435
822.149	27348
822.289	27466
822.429	27298
822.569	27176
822.709	27169
822.849	27020
822.99	26937
823.13	27001
823.27	27047
823.41	26697
823.55	26659
823.69	26849
823.83	26773
823.97	26769
824.11	26678
824.25	26381
824.389	26598
824.529	26777
824.669	26568
824.809	26727
824.949	26883
825.089	26762
825.228	26667
825.368	26552
825.508	26549
825.648	26495
825.787	26568
825.927	26533
826.067	26393
826.206	26442
826.346	26507
826.485	26526
826.625	26503
826.765	26583
826.904	26473
827.044	26237
827.183	26286
827.323	26214
827.462	26214
827.601	26240
827.741	26111
827.88	26381
828.02	26119
828.159	26199
828.298	26240
828.437	26225
828.577	26081
828.716	26370
828.855	26168
828.994	25921
829.134	25944
829.273	25913
829.412	25864
829.551	25868
829.69	25883
829.829	26012
829.968	25986
830.107	26001
830.246	25963
830.385	25940
830.524	25734
830.663	25696
830.802	25651
830.941	25476
831.08	25411
831.219	25529
831.357	25635
831.496	25811
831.635	25441
831.774	25403
831.913	25495
832.051	25266
832.19	25346
832.329	25369
832.467	25103
832.606	25259
832.744	25114
832.883	25282
833.022	25152
833.16	25190
833.299	25187
833.437	25148
833.576	25350
833.714	25236
833.852	25202
833.991	25244
834.129	25244
834.267	25350
834.406	25304
834.544	25339
834.682	25285
834.821	25244
834.959	25354
835.097	25206
835.235	25266
835.373	25339
835.511	25202
835.65	25202
835.788	25141
835.926	24985
836.064	24810
836.202	24973
836.34	25095
836.478	25198
836.615	25088
836.753	25095
836.891	25050
837.029	25069
837.167	24996
837.305	24924
837.443	24916
837.58	24996
837.718	25164
837.856	24886
837.993	24806
838.131	24840
838.269	24867
838.406	24749
838.544	24692
838.681	24475
838.819	24574
838.956	24399
839.094	24289
839.231	24525
839.369	24536
839.506	24688
839.643	24635
839.781	24399
839.918	24350
840.055	24315
840.193	24315
840.33	24346
840.467	24281
840.604	24403
840.742	24544
840.879	24167
841.016	24190
841.153	24152
841.29	24251
841.427	24289
841.564	24327
841.701	24216
841.838	24292
841.975	24251
842.112	24079
842.249	24205
842.385	24011
842.522	24224
842.659	24083
842.796	23996
842.933	23992
843.069	24083
843.206	24015
843.343	24072
843.479	24087
843.616	24053
843.752	23817
843.889	23817
844.025	23939
844.162	23764
844.298	23828
844.435	23809
844.571	23729
844.708	23954
844.844	24007
844.98	23897
845.117	23992
845.253	23642
845.389	23718
845.525	23745
845.661	23657
845.798	23524
845.934	23600
846.07	23493
846.206	23566
846.342	23627
846.478	23573
846.614	23341
846.75	23334
846.886	23197
847.022	23296
847.158	23189
847.294	23292
847.429	23258
847.565	23220
847.701	23611
847.837	22980
847.972	22896
848.108	23067
848.244	23098
848.379	23022
848.515	22923
848.65	22759
848.786	22911
848.921	22900
849.057	22961
849.192	22953
849.328	22793
849.463	22771
849.598	22812
849.734	22702
849.869	22790
850.004	22675
850.14	22649
850.275	22584
850.41	22634
850.545	22637
850.68	22580
850.815	22615
850.95	22565
851.085	22820
851.22	22634
851.355	22649
851.49	22508
851.625	22748
851.76	22554
851.895	22497
852.03	22470
852.165	22672
852.299	22660
852.434	22740
852.569	22569
852.703	22554
852.838	22653
852.973	22733
853.107	22778
853.242	22573
853.376	22371
853.511	22333
853.645	22413
853.78	22459
853.914	22470
854.048	22375
854.183	22303
854.317	22428
854.451	22546
854.585	22386
854.72	22497
854.854	22493
854.988	22436
855.122	22535
855.256	22318
855.39	22550
855.524	22527
855.658	22489
855.792	22485
855.926	22344
856.06	22504
856.194	22432
856.327	22402
856.461	22280
856.595	22276
856.729	22462
856.862	22584
856.996	22459
857.13	22402
857.263	22485
857.397	22592
857.53	22470
857.664	22641
857.797	22493
857.931	22542
858.064	22497
858.197	22367
858.331	22409
858.464	22303
858.597	22249
858.731	22341
858.864	22371
858.997	22265
859.13	22394
859.263	22394
859.396	22611
859.529	22333
859.662	22356
859.795	22348
859.928	22443
860.061	22592
860.194	22546
860.327	22554
860.46	22481
860.592	22527
860.725	22626
860.858	22580
860.99	22371
861.123	22287
861.256	22478
861.388	22394
861.521	23197
861.653	22188
861.786	22177
861.918	22158
862.05	22360
862.183	22371
862.315	22413
862.447	22466
862.58	22261
862.712	22196
862.844	22143
862.976	22337
863.108	22215
863.24	22588
863.372	22105
863.504	22207
863.636	22021
863.768	22284
863.9	22116
864.032	22021
864.164	22036
864.296	22131
864.428	22162
864.559	22150
864.691	22150
864.823	22196
864.954	22006
865.086	22021
865.217	21915
865.349	22032
865.48	22036
865.612	22040
865.743	22234
865.875	22086
866.006	21930
866.137	21991
866.269	21953
866.4	21991
866.531	21876
866.662	21846
866.793	21968
866.924	21964
867.055	22059
867.186	21945
867.317	21755
867.448	21736
867.579	21892
867.71	21842
867.841	21857
867.972	21949
868.103	21998
868.233	21975
868.364	21842
868.495	22029
868.625	22105
868.756	22211
868.886	22200
869.017	22147
869.147	22276
869.278	22230
869.408	22150
869.539	22109
869.669	22204
869.799	22261
869.929	22329
870.06	22409
870.19	22455
870.32	22459
870.45	22421
870.58	22546
870.71	22656
870.84	22584
870.97	22512
871.1	22481
871.23	22729
871.36	22790
871.489	22592
871.619	22668
871.749	22778
871.879	22869
872.008	22839
872.138	22672
872.267	22850
872.397	22599
872.526	22694
872.656	22748
872.785	22664
872.915	22771
873.044	22885
873.173	22828
873.303	22767
873.432	22805
873.561	22953
873.69	22812
873.819	22729
873.948	22755
874.077	22885
874.206	22812
874.335	22786
874.464	22968
874.593	22953
874.722	23018
874.851	23041
874.979	22961
875.108	23128
875.237	22976
875.365	22900
875.494	22934
875.623	23121
875.751	22824
875.88	23044
876.008	23140
876.136	23159
876.265	23337
876.393	23429
876.521	23558
876.65	23395
876.778	23402
876.906	23383
877.034	23250
877.162	23391
877.29	23383
877.418	23410
877.546	23296
877.674	23459
877.802	23128
877.93	23345
878.058	23459
878.185	23124
878.313	23261
878.441	23337
878.568	23185
878.696	23292
878.824	23406
878.951	23429
879.079	23638
879.206	23627
879.333	23455
879.461	23356
879.588	23383
879.715	23478
879.842	23657
879.97	23372
880.097	23261
880.224	23166
880.351	23128
880.478	23254
880.605	23155
880.732	23216
880.859	23307
880.986	23117
881.112	23151
881.239	23052
881.366	22915
881.493	22919
881.619	22729
881.746	22767
881.872	22713
881.999	22611
882.125	22592
882.252	22793
882.378	22637
882.505	22797
882.631	22546
882.757	22413
882.883	22443
883.01	22485
883.136	22246
883.262	22211
883.388	22131
883.514	22337
883.64	22405
883.766	22215
883.892	22158
884.018	22253
884.143	22230
884.269	22443
884.395	22162
884.52	21937
884.646	22017
884.772	21876
884.897	21941
885.023	22074
885.148	22173
885.274	22131
885.399	22249
885.524	22040
885.65	21991
885.775	22063
885.9	21911
886.025	22162
886.15	22185
886.275	21975
886.4	21941
886.525	22025
886.65	22044
886.775	21956
886.9	22158
887.025	22131
887.149	22116
887.274	21766
887.399	21819
887.523	21713
887.648	21793
887.773	21724
887.897	21983
888.021	21922
888.146	21682
888.27	21846
888.395	21899
888.519	21892
888.643	21831
888.767	21842
888.891	21648
889.015	21576
889.139	21549
889.263	21728
889.387	21542
889.511	21762
889.635	21793
889.759	21561
889.883	21507
890.006	21572
890.13	21641
890.254	21412
890.377	21530
890.501	21424
890.624	21287
890.748	21492
890.871	21264
890.995	21112
891.118	21028
891.241	21154
891.364	21154
891.488	21340
891.611	21096
891.734	21066
891.857	21272
891.98	21112
892.103	21093
892.226	21127
892.349	20956
892.471	21017
892.594	21058
892.717	21104
892.839	21150
892.962	21013
893.085	21100
893.207	21055
893.33	20971
893.452	20868
893.575	21062
893.697	21005
893.819	21176
893.941	21138
894.064	21165
894.186	20998
894.308	20857
894.43	21024
894.552	21138
894.674	20998
894.796	20948
894.918	20948
895.04	21100
895.161	21043
895.283	20891
895.405	20998
895.526	20952
895.648	20891
895.769	20990
895.891	21032
896.012	21131
896.134	21081
896.255	21180
896.376	20933
896.498	20925
896.619	21112
896.74	21047
896.861	20937
896.982	21298
897.103	21397
897.224	21192
897.345	21157
897.466	21074
897.587	21142
897.708	21374
897.828	21222
897.949	21123
898.07	21009
898.19	21100
898.311	21325
898.431	21138
898.552	21218
898.672	21321
898.792	21287
898.913	21165
899.033	21116
899.153	20979
899.273	20956
899.393	20986
899.513	20994
899.633	20823
899.753	20914
899.873	20918
899.993	21020
900.113	20956
900.232	20948
900.352	20864
900.472	20739
900.591	20686
900.711	20682
900.83	20575
900.95	20834
901.069	20716
901.189	20606
901.308	20324
901.427	20252
901.546	20267
901.665	20290
901.784	20366
901.904	20126
902.023	20001
902.141	19814
902.26	19868
902.379	19822
902.498	19822
902.617	19746
902.735	19780
902.854	19647
902.973	19780
903.091	19403
903.21	19476
903.328	19533
903.446	19335
903.565	19255
903.683	19251
903.801	19118
903.919	19164
904.038	19137
904.156	19019
904.274	19088
904.392	18905
904.51	19019
904.627	18935
904.745	19050
904.863	19012
904.981	18817
905.098	18639
905.216	18726
905.334	18597
905.451	18711
905.569	18726
905.686	18757
905.803	18768
905.921	18414
906.038	18555
906.155	18456
906.272	18232
906.389	18308
906.506	18224
906.623	18273
906.74	18125
906.857	18026
906.974	18053
907.091	18167
907.208	18334
907.324	18235
907.441	18060
907.557	17965
907.674	17882
907.79	17958
907.907	17859
908.023	17908
908.139	17908
908.256	17798
908.372	17817
908.488	17691
908.604	17653
908.72	17581
908.836	17676
908.952	17562
909.068	17680
909.184	17687
909.3	17665
909.415	17543
909.531	17649
909.647	17372
909.762	17235
909.878	17280
909.993	17376
910.108	17242
910.224	17223
910.339	17318
910.454	17269
910.57	17227
910.685	17117
910.8	17368
910.915	17231
911.03	17109
911.145	16942
911.259	16965
911.374	16774
911.489	16854
911.604	16809
911.718	16584
911.833	16622
911.947	16561
912.062	16466
912.176	16588
912.291	16649
912.405	16516
912.519	16889
912.633	16736
912.748	16622
912.862	16588
912.976	16474
913.09	16424
913.204	16424
913.318	16402
913.431	16485
913.545	16405
913.659	16550
913.772	16325
913.886	16246
914	16268
914.113	16386
914.226	16230
914.34	16363
914.453	16067
914.566	16234
914.68	16082
914.793	16032
914.906	15975
915.019	15861
915.132	15762
915.245	15770
915.358	15842
915.47	15789
915.583	15812
915.696	15743
915.809	15865
915.921	15972
916.034	15705
916.146	15679
916.259	15587
916.371	15800
916.483	15766
916.595	15705
916.708	15728
916.82	15553
916.932	15580
917.044	15610
917.156	15553
917.268	15534
917.38	15481
917.491	15363
917.603	15420
917.715	15561
917.826	15625
917.938	15439
918.049	15313
918.161	15351
918.272	15424
918.384	15526
918.495	15325
918.606	15272
918.717	15165
918.828	15302
918.939	15272
919.05	15188
919.161	15241
919.272	15039
919.383	15135
919.494	15176
919.604	15412
919.715	15203
919.826	15146
919.936	15230
920.047	15176
920.157	15119
920.267	15264
920.378	15165
920.488	15131
920.598	15401
920.708	15439
920.818	15294
920.928	15252
921.038	15450
921.148	15431
921.258	15123
921.368	15043
921.477	14941
921.587	14891
921.697	14712
921.806	14891
921.916	14769
922.025	14579
922.134	14530
922.244	14427
922.353	14503
922.462	14457
922.571	14309
922.68	14187
922.789	14195
922.898	14145
923.007	14077
923.116	14191
923.224	14145
923.333	14134
923.442	14058
923.55	13997
923.659	13959
923.767	14031
923.876	13982
923.984	14058
924.092	13860
924.201	13860
924.309	13780
924.417	13970
924.525	13780
924.633	13780
924.741	14617
924.849	13655
924.956	13696
925.064	13624
925.172	13514
925.279	13537
925.387	13613
925.494	13559
925.602	13712
925.709	13674
925.816	13377
925.924	13518
926.031	13487
926.138	13514
926.245	13521
926.352	13331
926.459	13529
926.566	13662
926.673	13384
926.779	13255
926.886	13247
926.993	13118
927.099	13183
927.206	13114
927.312	13038
927.419	13065
927.525	13126
927.631	13160
927.737	12966
927.843	12947
927.95	12886
928.056	12875
928.162	12863
928.267	12935
928.373	13480
928.479	12886
928.585	12688
928.69	12867
928.796	12829
928.901	12802
929.007	12612
929.112	12734
929.218	12658
929.323	12635
929.428	12513
929.533	12719
929.638	12566
929.743	12601
929.848	12585
929.953	12563
930.058	12437
930.163	12262
930.267	12319
930.372	12391
930.477	12292
930.581	12509
930.685	12350
930.79	12209
930.894	12129
930.998	12129
931.103	12281
931.207	11931
931.311	11813
931.415	11691
931.519	11535
931.623	11478
