Data from test_V78500241_737.txt Node
Date: Fri Mar 25 15:46:54 CST 2022
User: usil
Spectrometer: V785-0024
Trigger mode: 0
Integration Time (sec): 4.000000E-1
Scans to average: 1
Nonlinearity correction enabled: false
Boxcar width: 0
Storing dark spectrum: false
XAxis mode: Wavelengths
Number of Pixels in Spectrum: 1024
>>>>>Begin Spectral Data<<<<<
801.071	28044
801.214	28021
801.356	27629
801.499	27625
801.641	27435
801.783	27553
801.926	27599
802.068	27545
802.211	27610
802.353	27473
802.496	27211
802.638	27203
802.78	27245
802.923	27203
803.065	27081
803.208	27165
803.35	27165
803.492	27313
803.635	27485
803.777	27287
803.919	27435
804.061	27743
804.204	27496
804.346	27348
804.488	27382
804.63	27348
804.773	27214
804.915	27386
805.057	27564
805.199	27355
805.341	27583
805.483	27595
805.626	27420
805.768	27397
805.91	27500
806.052	27538
806.194	27408
806.336	27614
806.478	27511
806.62	27542
806.762	27603
806.904	27701
807.046	28181
807.188	28029
807.33	27987
807.472	27903
807.614	28002
807.756	27979
807.898	27797
808.04	27827
808.182	27827
808.324	27755
808.465	27876
808.607	28055
808.749	28120
808.891	28230
809.033	28440
809.174	28234
809.316	28112
809.458	28249
809.6	28120
809.741	28341
809.883	28280
810.025	28516
810.166	28523
810.308	28512
810.45	28447
810.591	28497
810.733	28261
810.875	28223
811.016	28143
811.158	28036
811.299	28329
811.441	28489
811.582	28306
811.724	28219
811.865	28063
812.007	28322
812.148	28124
812.29	28265
812.431	28394
812.573	28592
812.714	28542
812.855	28702
812.997	28873
813.138	28850
813.279	28797
813.421	28721
813.562	28736
813.703	28599
813.845	28413
813.986	28181
814.127	27846
814.268	28059
814.41	27960
814.551	27838
814.692	27899
814.833	27918
814.974	27880
815.115	27945
815.256	27766
815.397	27667
815.539	27880
815.68	27762
815.821	27614
815.962	27751
816.103	27759
816.244	27660
816.385	27496
816.526	27538
816.666	27351
816.807	27138
816.948	27291
817.089	27260
817.23	27233
817.371	27131
817.512	27199
817.653	27043
817.793	26986
817.934	27146
818.075	27275
818.216	27188
818.356	27104
818.497	26914
818.638	26834
818.778	26937
818.919	27001
819.06	26906
819.2	26994
819.341	27237
819.481	27077
819.622	27302
819.762	27538
819.903	27576
820.043	27485
820.184	27447
820.324	27226
820.465	27256
820.605	27275
820.746	27173
820.886	27112
821.026	27344
821.167	27245
821.307	27325
821.447	27184
821.588	27085
821.728	26971
821.868	26815
822.008	26670
822.149	26712
822.289	26670
822.429	26355
822.569	26355
822.709	26381
822.849	26149
822.99	26202
823.13	26073
823.27	26187
823.41	26031
823.55	25871
823.69	26020
823.83	25978
823.97	25921
824.11	25757
824.25	25677
824.389	25814
824.529	25993
824.669	25822
824.809	26039
824.949	26164
825.089	25947
825.228	26016
825.368	25738
825.508	25723
825.648	25693
825.787	25784
825.927	25765
826.067	25685
826.206	25708
826.346	25788
826.485	25788
826.625	25966
826.765	25811
826.904	25715
827.044	25586
827.183	25377
827.323	25327
827.462	25502
827.601	25331
827.741	25476
827.88	25400
828.02	25247
828.159	25362
828.298	25487
828.437	25381
828.577	25434
828.716	25518
828.855	25430
828.994	25266
829.134	25152
829.273	25198
829.412	25061
829.551	24939
829.69	25232
829.829	25175
829.968	25202
830.107	25145
830.246	25228
830.385	25126
830.524	25080
830.663	24859
830.802	24825
830.941	24631
831.08	24741
831.219	24696
831.357	24905
831.496	25031
831.635	24745
831.774	24703
831.913	24639
832.051	24597
832.19	24513
832.329	24627
832.467	24418
832.606	24498
832.744	24330
832.883	24540
833.022	24357
833.16	24433
833.299	24429
833.437	24448
833.576	24559
833.714	24464
833.852	24505
833.991	24525
834.129	24559
834.267	24467
834.406	24388
834.544	24540
834.682	24494
834.821	24426
834.959	24509
835.097	24547
835.235	24376
835.373	24490
835.511	24441
835.65	24224
835.788	24304
835.926	24289
836.064	24095
836.202	24106
836.34	24251
836.478	24365
836.615	24235
836.753	24315
836.891	24308
837.029	24315
837.167	24163
837.305	24197
837.443	24220
837.58	24049
837.718	24235
837.856	24106
837.993	24049
838.131	24045
838.269	23996
838.406	24076
838.544	23923
838.681	23684
838.819	23661
838.956	23707
839.094	23585
839.231	23707
839.369	23649
839.506	23771
839.643	23908
839.781	23566
839.918	23585
840.055	23459
840.193	23589
840.33	23585
840.467	23551
840.604	23566
840.742	23920
840.879	23505
841.016	23402
841.153	23368
841.29	23562
841.427	23505
841.564	23455
841.701	23577
841.838	23406
841.975	23261
842.112	23296
842.249	23299
842.385	23220
842.522	23619
842.659	23303
842.796	23288
842.933	23360
843.069	23273
843.206	23185
843.343	23402
843.479	23159
843.616	23231
843.752	23136
843.889	23117
844.025	23235
844.162	22995
844.298	23124
844.435	22991
844.571	22919
844.708	23079
844.844	23105
844.98	23140
845.117	23170
845.253	23098
845.389	22915
845.525	22991
845.661	22991
845.798	22812
845.934	22885
846.07	22755
846.206	22713
846.342	22927
846.478	22782
846.614	22649
846.75	22455
846.886	22656
847.022	22607
847.158	22474
847.294	22459
847.429	22489
847.565	22466
847.701	22725
847.837	22253
847.972	22230
848.108	22348
848.244	22367
848.379	22120
848.515	22116
848.65	22055
848.786	22101
848.921	22029
849.057	22128
849.192	22139
849.328	22021
849.463	22173
849.598	22116
849.734	21975
849.869	21941
850.004	21884
850.14	21911
850.275	21751
850.41	21816
850.545	21778
850.68	21861
850.815	21888
850.95	21808
851.085	22055
851.22	21831
851.355	21892
851.49	21926
851.625	21728
851.76	21732
851.895	21747
852.03	21720
852.165	21785
852.299	21823
852.434	21899
852.569	21800
852.703	21854
852.838	21816
852.973	21892
853.107	21899
853.242	21778
853.376	21633
853.511	21583
853.645	21652
853.78	21660
853.914	21732
854.048	21667
854.183	21587
854.317	21762
854.451	21720
854.585	21633
854.72	21622
854.854	21709
854.988	21679
855.122	21701
855.256	21606
855.39	21663
855.524	21835
855.658	21671
855.792	21648
855.926	21599
856.06	21648
856.194	21736
856.327	21728
856.461	21557
856.595	21515
856.729	21671
856.862	21785
856.996	21732
857.13	21808
857.263	21831
857.397	21720
857.53	21622
857.664	21759
857.797	21751
857.931	21789
858.064	21770
858.197	21850
858.331	21778
858.464	21637
858.597	21610
858.731	21599
858.864	21663
858.997	21656
859.13	21789
859.263	21747
859.396	21705
859.529	21610
859.662	21656
859.795	21553
859.928	21724
860.061	21778
860.194	21884
860.327	21652
860.46	21728
860.592	21694
860.725	21698
860.858	21819
860.99	21599
861.123	21534
861.256	21622
861.388	21629
861.521	22360
861.653	21473
861.786	21553
861.918	21348
862.05	21580
862.183	21622
862.315	21671
862.447	21652
862.58	21599
862.712	21325
862.844	21374
862.976	21458
863.108	21355
863.24	21690
863.372	21458
863.504	21401
863.636	21325
863.768	21492
863.9	21389
864.032	21260
864.164	21367
864.296	21439
864.428	21469
864.559	21447
864.691	21492
864.823	21325
864.954	21302
865.086	21199
865.217	21412
865.349	21233
865.48	21306
865.612	21332
865.743	21344
865.875	21237
866.006	21256
866.137	21233
866.269	21230
866.4	21283
866.531	21199
866.662	21146
866.793	21074
866.924	21180
867.055	21150
867.186	21176
867.317	21096
867.448	21154
867.579	21112
867.71	21119
867.841	21051
867.972	21203
868.103	21173
868.233	21161
868.364	21275
868.495	21268
868.625	21511
868.756	21644
868.886	21374
869.017	21481
869.147	21591
869.278	21519
869.408	21443
869.539	21511
869.669	21515
869.799	21477
869.929	21545
870.06	21515
870.19	21816
870.32	21785
870.45	21743
870.58	21808
870.71	22025
870.84	21785
870.97	21789
871.1	21861
871.23	22109
871.36	22059
871.489	21861
871.619	22017
871.749	22105
871.879	22029
872.008	22147
872.138	22010
872.267	21994
872.397	21937
872.526	21751
872.656	21892
872.785	21838
872.915	22044
873.044	22128
873.173	21987
873.303	21972
873.432	22177
873.561	22112
873.69	22010
873.819	22040
873.948	21994
874.077	22032
874.206	22059
874.335	22040
874.464	22048
874.593	22363
874.722	22329
874.851	22287
874.979	22344
875.108	22344
875.237	22246
875.365	22188
875.494	22276
875.623	22394
875.751	22143
875.88	22276
876.008	22386
876.136	22489
876.265	22763
876.393	22809
876.521	22767
876.65	22763
876.778	22637
876.906	22634
877.034	22599
877.162	22615
877.29	22523
877.418	22679
877.546	22679
877.674	22641
877.802	22550
877.93	22626
878.058	22580
878.185	22596
878.313	22470
878.441	22615
878.568	22348
878.696	22519
878.824	22649
878.951	22721
879.079	22767
879.206	22938
879.333	22786
879.461	22713
879.588	22683
879.715	22733
879.842	22930
879.97	22710
880.097	22466
880.224	22409
880.351	22512
880.478	22421
880.605	22386
880.732	22333
880.859	22649
880.986	22417
881.112	22455
881.239	22360
881.366	22200
881.493	22207
881.619	21918
881.746	22051
881.872	22082
881.999	22021
882.125	21899
882.252	22032
882.378	21964
882.505	22116
882.631	21850
882.757	21789
882.883	21778
883.01	21751
883.136	21644
883.262	21576
883.388	21637
883.514	21743
883.64	21797
883.766	21606
883.892	21538
884.018	21534
884.143	21641
884.269	21759
884.395	21405
884.52	21283
884.646	21466
884.772	21389
884.897	21252
885.023	21348
885.148	21473
885.274	21412
885.399	21526
885.524	21268
885.65	21321
885.775	21443
885.9	21336
886.025	21485
886.15	21408
886.275	21294
886.4	21249
886.525	21374
886.65	21264
886.775	21237
886.9	21431
887.025	21538
887.149	21336
887.274	21184
887.399	21020
887.523	21142
887.648	21096
887.773	20979
887.897	21127
888.021	21108
888.146	21104
888.27	21131
888.395	21150
888.519	21146
888.643	21192
888.767	21116
888.891	21017
889.015	20891
889.139	20921
889.263	20887
889.387	20990
889.511	21066
889.635	20960
889.759	20906
889.883	20773
890.006	20838
890.13	20960
890.254	20834
890.377	20891
890.501	20659
890.624	20693
890.748	20720
890.871	20590
890.995	20473
891.118	20313
891.241	20446
891.364	20377
891.488	20556
891.611	20412
891.734	20438
891.857	20480
891.98	20450
892.103	20465
892.226	20457
892.349	20434
892.471	20412
892.594	20404
892.717	20465
892.839	20305
892.962	20332
893.085	20488
893.207	20400
893.33	20240
893.452	20263
893.575	20476
893.697	20385
893.819	20541
893.941	20480
894.064	20484
894.186	20233
894.308	20244
894.43	20514
894.552	20522
894.674	20434
894.796	20370
894.918	20320
895.04	20290
895.161	20454
895.283	20400
895.405	20263
895.526	20355
895.648	20305
895.769	20434
895.891	20431
896.012	20518
896.134	20465
896.255	20336
896.376	20366
896.498	20427
896.619	20461
896.74	20419
896.861	20446
896.982	20750
897.103	20777
897.224	20552
897.345	20431
897.466	20568
897.587	20556
897.708	20689
897.828	20670
897.949	20549
898.07	20423
898.19	20511
898.311	20674
898.431	20434
898.552	20507
898.672	20686
898.792	20598
898.913	20625
899.033	20457
899.153	20450
899.273	20415
899.393	20332
899.513	20339
899.633	20358
899.753	20362
899.873	20202
899.993	20320
900.113	20370
900.232	20282
900.352	20256
900.472	20126
900.591	20058
900.711	20126
900.83	20081
900.95	20210
901.069	20199
901.189	19921
901.308	19871
901.427	19628
901.546	19651
901.665	19689
901.784	19811
901.904	19540
902.023	19415
902.141	19312
902.26	19384
902.379	19365
902.498	19198
902.617	19152
902.735	19202
902.854	19183
902.973	19129
903.091	18901
903.21	18875
903.328	18848
903.446	18787
903.565	18665
903.683	18776
903.801	18513
903.919	18703
904.038	18525
904.156	18407
904.274	18536
904.392	18410
904.51	18346
904.627	18353
904.745	18483
904.863	18460
904.981	18262
905.098	18079
905.216	18041
905.334	18064
905.451	18117
905.569	18117
905.686	18171
905.803	18167
905.921	17817
906.038	17980
906.155	17927
906.272	17794
906.389	17912
906.506	17653
906.623	17672
906.74	17592
906.857	17436
906.974	17509
907.091	17687
907.208	17722
907.324	17672
907.441	17528
907.557	17448
907.674	17429
907.79	17398
907.907	17296
908.023	17398
908.139	17398
908.256	17326
908.372	17197
908.488	17170
908.604	17155
908.72	17022
908.836	17064
908.952	17033
909.068	17029
909.184	17147
909.3	17025
909.415	17086
909.531	16938
909.647	16812
909.762	16801
909.878	16691
909.993	16877
910.108	16691
910.224	16767
910.339	16687
910.454	16729
910.57	16588
910.685	16523
910.8	16824
910.915	16710
911.03	16497
911.145	16470
911.259	16424
911.374	16394
911.489	16360
911.604	16158
911.718	16219
911.833	16040
911.947	16032
912.062	15949
912.176	16131
912.291	16169
912.405	16162
912.519	16314
912.633	16246
912.748	16211
912.862	16040
912.976	16013
913.09	15698
913.204	15819
913.318	15930
913.431	16082
913.545	15918
913.659	16010
913.772	15915
913.886	15838
914	15595
914.113	15842
914.226	15774
914.34	15713
914.453	15656
914.566	15705
914.68	15584
914.793	15462
914.906	15325
915.019	15351
915.132	15245
915.245	15386
915.358	15401
915.47	15348
915.583	15268
915.696	15268
915.809	15374
915.921	15481
916.034	15260
916.146	15169
916.259	15188
916.371	15291
916.483	15291
916.595	15013
916.708	15116
916.82	15112
916.932	15081
917.044	15142
917.156	15070
917.268	14899
917.38	14975
917.491	14944
917.603	14937
917.715	15020
917.826	15062
917.938	14880
918.049	14853
918.161	14899
918.272	15051
918.384	14906
918.495	14937
918.606	14727
918.717	14670
918.828	14815
918.939	14754
919.05	14701
919.161	14640
919.272	14465
919.383	14503
919.494	14701
919.604	14929
919.715	14746
919.826	14575
919.936	14651
920.047	14731
920.157	14712
920.267	14891
920.378	14621
920.488	14556
920.598	14895
920.708	15001
920.818	14788
920.928	14765
921.038	15062
921.148	14956
921.258	14625
921.368	14568
921.477	14473
921.587	14446
921.697	14290
921.806	14442
921.916	14259
922.025	14107
922.134	13967
922.244	14043
922.353	14084
922.462	13906
922.571	13890
922.68	13769
922.789	13655
922.898	13723
923.007	13590
923.116	13647
923.224	13689
923.333	13681
923.442	13533
923.55	13609
923.659	13605
923.767	13575
923.876	13457
923.984	13533
924.092	13407
924.201	13373
924.309	13457
924.417	13472
924.525	13335
924.633	13392
924.741	14324
924.849	13095
924.956	13403
925.064	13099
925.172	13065
925.279	13149
925.387	13137
925.494	13012
925.602	13263
925.709	13152
925.816	12886
925.924	13099
926.031	13114
926.138	13069
926.245	13095
926.352	12894
926.459	13103
926.566	13095
926.673	12947
926.779	12901
926.886	12837
926.993	12722
927.099	12654
927.206	12547
927.312	12734
927.419	12760
927.525	12658
927.631	12608
927.737	12544
927.843	12551
927.95	12372
928.056	12574
928.162	12384
928.267	12506
928.373	13133
928.479	12486
928.585	12251
928.69	12407
928.796	12403
928.901	12350
929.007	12232
929.112	12311
929.218	12232
929.323	12243
929.428	12110
929.533	12251
929.638	12136
929.743	12148
929.848	12140
929.953	12117
930.058	11996
930.163	11904
930.267	11916
930.372	11969
930.477	11783
930.581	12114
930.685	11965
930.79	11707
930.894	11817
930.998	11741
931.103	11885
931.207	11497
931.311	11402
931.415	11379
931.519	11166
931.623	11132
