Data from test_V78500241_3563.txt Node
Date: Fri Mar 25 16:06:29 CST 2022
User: usil
Spectrometer: V785-0024
Trigger mode: 0
Integration Time (sec): 4.000000E-1
Scans to average: 1
Nonlinearity correction enabled: false
Boxcar width: 0
Storing dark spectrum: false
XAxis mode: Wavelengths
Number of Pixels in Spectrum: 1024
>>>>>Begin Spectral Data<<<<<
801.071	28744
801.214	28721
801.356	28596
801.499	28459
801.641	28280
801.783	28363
801.926	28341
802.068	28276
802.211	28284
802.353	28268
802.496	27994
802.638	28143
802.78	28131
802.923	27983
803.065	27979
803.208	28074
803.35	28120
803.492	28287
803.635	28234
803.777	28059
803.919	28398
804.061	28641
804.204	28287
804.346	28242
804.488	28196
804.63	28242
804.773	28371
804.915	28268
805.057	28356
805.199	28242
805.341	28341
805.483	28459
805.626	28447
805.768	28398
805.91	28394
806.052	28637
806.194	28481
806.336	28645
806.478	28363
806.62	28390
806.762	28580
806.904	28664
807.046	28843
807.188	28809
807.33	28854
807.472	29064
807.614	28930
807.756	28999
807.898	28953
808.04	28713
808.182	28748
808.324	28805
808.465	28824
808.607	28858
808.749	29086
808.891	29349
809.033	29421
809.174	29220
809.316	29212
809.458	29178
809.6	29025
809.741	29315
809.883	29242
810.025	29585
810.166	29539
810.308	29463
810.45	29414
810.591	29353
810.733	29391
810.875	29246
811.016	29109
811.158	29010
811.299	29353
811.441	29318
811.582	29322
811.724	29159
811.865	29147
812.007	29220
812.148	29349
812.29	29334
812.431	29356
812.573	29501
812.714	29676
812.855	29726
812.997	29661
813.138	29931
813.279	29775
813.421	29783
813.562	29604
813.703	29433
813.845	29334
813.986	29098
814.127	29075
814.268	28892
814.41	28831
814.551	28740
814.692	28938
814.833	28736
814.974	28774
815.115	28763
815.256	28869
815.397	28759
815.539	28603
815.68	28683
815.821	28550
815.962	28679
816.103	28717
816.244	28489
816.385	28466
816.526	28565
816.666	28360
816.807	28131
816.948	28143
817.089	28424
817.23	28185
817.371	28215
817.512	28246
817.653	28192
817.793	28112
817.934	28150
818.075	28386
818.216	28169
818.356	28109
818.497	28158
818.638	27960
818.778	27895
818.919	27922
819.06	28002
819.2	28162
819.341	28135
819.481	28105
819.622	28325
819.762	28649
819.903	28428
820.043	28333
820.184	28246
820.324	28432
820.465	28474
820.605	28428
820.746	28238
820.886	28078
821.026	28238
821.167	28310
821.307	28341
821.447	28181
821.588	28101
821.728	28135
821.868	27964
822.008	27759
822.149	27770
822.289	27808
822.429	27469
822.569	27348
822.709	27405
822.849	27123
822.99	27241
823.13	27169
823.27	27123
823.41	27104
823.55	26891
823.69	27074
823.83	26925
823.97	26845
824.11	26849
824.25	26838
824.389	26811
824.529	26902
824.669	26758
824.809	26880
824.949	26921
825.089	26956
825.228	26918
825.368	26663
825.508	26621
825.648	26887
825.787	26838
825.927	26910
826.067	26838
826.206	26670
826.346	26689
826.485	26731
826.625	26807
826.765	26830
826.904	26830
827.044	26495
827.183	26552
827.323	26492
827.462	26419
827.601	26522
827.741	26495
827.88	26507
828.02	26317
828.159	26362
828.298	26556
828.437	26602
828.577	26465
828.716	26400
828.855	26393
828.994	26081
829.134	26202
829.273	26202
829.412	26100
829.551	26176
829.69	26103
829.829	26168
829.968	26176
830.107	26252
830.246	26142
830.385	25936
830.524	26142
830.663	25951
830.802	25765
830.941	25708
831.08	25799
831.219	25852
831.357	25837
831.496	25966
831.635	25765
831.774	25674
831.913	25578
832.051	25556
832.19	25578
832.329	25563
832.467	25441
832.606	25354
832.744	25278
832.883	25479
833.022	25324
833.16	25434
833.299	25605
833.437	25289
833.576	25373
833.714	25422
833.852	25483
833.991	25597
834.129	25571
834.267	25533
834.406	25506
834.544	25487
834.682	25449
834.821	25502
834.959	25521
835.097	25472
835.235	25514
835.373	25464
835.511	25468
835.65	25244
835.788	25392
835.926	25187
836.064	25236
836.202	25202
836.34	25251
836.478	25476
836.615	25274
836.753	25278
836.891	25278
837.029	25384
837.167	25259
837.305	25091
837.443	25080
837.58	25114
837.718	25232
837.856	25190
837.993	25031
838.131	25080
838.269	24954
838.406	25050
838.544	24875
838.681	24768
838.819	24688
838.956	24627
839.094	24532
839.231	24623
839.369	24650
839.506	25004
839.643	24882
839.781	24566
839.918	24479
840.055	24509
840.193	24650
840.33	24559
840.467	24456
840.604	24540
840.742	24741
840.879	24289
841.016	24418
841.153	24319
841.29	24486
841.427	24536
841.564	24460
841.701	24536
841.838	24555
841.975	24403
842.112	24334
842.249	24311
842.385	24243
842.522	24505
842.659	24388
842.796	24235
842.933	24194
843.069	24201
843.206	24129
843.343	24220
843.479	24330
843.616	24239
843.752	24068
843.889	24167
844.025	24133
844.162	23965
844.298	24057
844.435	24015
844.571	23946
844.708	23988
844.844	24308
844.98	24239
845.117	24125
845.253	23954
845.389	23748
845.525	23855
845.661	23931
845.798	23920
845.934	23870
846.07	23668
846.206	23726
846.342	23897
846.478	23646
846.614	23604
846.75	23589
846.886	23512
847.022	23512
847.158	23531
847.294	23425
847.429	23436
847.565	23486
847.701	23646
847.837	23136
847.972	23086
848.108	23265
848.244	23174
848.379	23151
848.515	23010
848.65	23037
848.786	23086
848.921	23037
849.057	23098
849.192	23159
849.328	23041
849.463	23102
849.598	22961
849.734	22980
849.869	23014
850.004	22793
850.14	22790
850.275	22740
850.41	22755
850.545	22694
850.68	22721
850.815	22881
850.95	22710
851.085	23003
851.22	22999
851.355	22854
851.49	22801
851.625	22885
851.76	22843
851.895	22733
852.03	22721
852.165	22767
852.299	22816
852.434	22987
852.569	22824
852.703	22790
852.838	22873
852.973	23037
853.107	22839
853.242	22771
853.376	22683
853.511	22519
853.645	22668
853.78	22717
853.914	22672
854.048	22645
854.183	22615
854.317	22542
854.451	22873
854.585	22694
854.72	22717
854.854	22733
854.988	22592
855.122	22721
855.256	22542
855.39	22645
855.524	22755
855.658	22637
855.792	22653
855.926	22736
856.06	22729
856.194	22748
856.327	22687
856.461	22603
856.595	22630
856.729	22649
856.862	22710
856.996	22679
857.13	22744
857.263	22778
857.397	22721
857.53	22622
857.664	22744
857.797	22691
857.931	22702
858.064	22584
858.197	22683
858.331	22668
858.464	22637
858.597	22588
858.731	22641
858.864	22630
858.997	22516
859.13	22565
859.263	22687
859.396	22729
859.529	22554
859.662	22637
859.795	22573
859.928	22786
860.061	22828
860.194	22683
860.327	22698
860.46	22641
860.592	22850
860.725	22660
860.858	22759
860.99	22656
861.123	22508
861.256	22512
861.388	22508
861.521	23433
861.653	22630
861.786	22508
861.918	22459
862.05	22588
862.183	22535
862.315	22656
862.447	22706
862.58	22618
862.712	22409
862.844	22333
862.976	22432
863.108	22466
863.24	22740
863.372	22291
863.504	22352
863.636	22405
863.768	22379
863.9	22363
864.032	22291
864.164	22246
864.296	22394
864.428	22588
864.559	22333
864.691	22226
864.823	22333
864.954	22318
865.086	22363
865.217	22344
865.349	22101
865.48	22162
865.612	22344
865.743	22413
865.875	22265
866.006	22306
866.137	22303
866.269	22074
866.4	22310
866.531	22162
866.662	22204
866.793	22059
866.924	22135
867.055	22169
867.186	22200
867.317	22242
867.448	21998
867.579	22093
867.71	21972
867.841	22055
867.972	22230
868.103	22124
868.233	22109
868.364	22139
868.495	22310
868.625	22440
868.756	22447
868.886	22341
869.017	22375
869.147	22466
869.278	22466
869.408	22428
869.539	22459
869.669	22322
869.799	22398
869.929	22508
870.06	22504
870.19	22622
870.32	22706
870.45	22736
870.58	22790
870.71	22843
870.84	22965
870.97	22774
871.1	22862
871.23	22980
871.36	22961
871.489	22889
871.619	23060
871.749	23105
871.879	23086
872.008	23079
872.138	22999
872.267	23086
872.397	22847
872.526	22782
872.656	22843
872.785	22763
872.915	23044
873.044	23064
873.173	22968
873.303	23109
873.432	23128
873.561	23136
873.69	23200
873.819	23083
873.948	23018
874.077	23029
874.206	22991
874.335	23079
874.464	23075
874.593	23166
874.722	23117
874.851	23277
874.979	23303
875.108	23136
875.237	23166
875.365	23136
875.494	23311
875.623	23364
875.751	23117
875.88	23250
876.008	23398
876.136	23482
876.265	23619
876.393	23817
876.521	23680
876.65	23684
876.778	23630
876.906	23581
877.034	23493
877.162	23562
877.29	23406
877.418	23581
877.546	23558
877.674	23505
877.802	23577
877.93	23398
878.058	23566
878.185	23410
878.313	23490
878.441	23524
878.568	23436
878.696	23391
878.824	23596
878.951	23577
879.079	23710
879.206	23760
879.333	23707
879.461	23528
879.588	23638
879.715	23771
879.842	23893
879.97	23672
880.097	23425
880.224	23589
880.351	23360
880.478	23493
880.605	23303
880.732	23406
880.859	23695
880.986	23387
881.112	23383
881.239	23189
881.366	23086
881.493	22999
881.619	22995
881.746	23052
881.872	22881
881.999	23025
882.125	22858
882.252	22953
882.378	22881
882.505	23109
882.631	22828
882.757	22702
882.883	22725
883.01	22679
883.136	22542
883.262	22519
883.388	22531
883.514	22603
883.64	22538
883.766	22588
883.892	22333
884.018	22493
884.143	22489
884.269	22554
884.395	22462
884.52	22192
884.646	22246
884.772	22135
884.897	22070
885.023	22322
885.148	22390
885.274	22360
885.399	22306
885.524	22242
885.65	22348
885.775	22196
885.9	22249
886.025	22348
886.15	22276
886.275	22055
886.4	22143
886.525	22238
886.65	22215
886.775	22192
886.9	22318
887.025	22428
887.149	22128
887.274	21979
887.399	21983
887.523	21975
887.648	21975
887.773	22032
887.897	22139
888.021	21979
888.146	21831
888.27	22090
888.395	22109
888.519	21975
888.643	22013
888.767	22093
888.891	21857
889.015	21682
889.139	21842
889.263	21842
889.387	21926
889.511	21972
889.635	21975
889.759	21759
889.883	21770
890.006	21854
890.13	21857
890.254	21667
890.377	21694
890.501	21591
890.624	21485
890.748	21656
890.871	21408
890.995	21306
891.118	21287
891.241	21431
891.364	21203
891.488	21507
891.611	21302
891.734	21329
891.857	21435
891.98	21344
892.103	21287
892.226	21310
892.349	21268
892.471	21154
892.594	21294
892.717	21199
892.839	21260
892.962	21233
893.085	21363
893.207	21218
893.33	21112
893.452	21093
893.575	21310
893.697	21154
893.819	21420
893.941	21408
894.064	21424
894.186	21176
894.308	21169
894.43	21287
894.552	21317
894.674	21218
894.796	21230
894.918	21279
895.04	21146
895.161	21241
895.283	21275
895.405	21161
895.526	21222
895.648	21131
895.769	21119
895.891	21199
896.012	21199
896.134	21264
896.255	21165
896.376	21173
896.498	21161
896.619	21252
896.74	21252
896.861	21218
896.982	21443
897.103	21603
897.224	21500
897.345	21545
897.466	21397
897.587	21294
897.708	21557
897.828	21279
897.949	21344
898.07	21348
898.19	21291
898.311	21507
898.431	21329
898.552	21450
898.672	21428
898.792	21408
898.913	21466
899.033	21173
899.153	21233
899.273	21108
899.393	21249
899.513	21154
899.633	21062
899.753	21207
899.873	20902
899.993	21173
900.113	21036
900.232	21081
900.352	21116
900.472	21009
900.591	20777
900.711	20857
900.83	20857
900.95	21005
901.069	20963
901.189	20731
901.308	20450
901.427	20442
901.546	20446
901.665	20541
901.784	20427
901.904	20233
902.023	20244
902.141	19989
902.26	20008
902.379	19989
902.498	19868
902.617	20100
902.735	19993
902.854	19970
902.973	19890
903.091	19605
903.21	19639
903.328	19590
903.446	19548
903.565	19426
903.683	19540
903.801	19362
903.919	19365
904.038	19270
904.156	19263
904.274	19297
904.392	19202
904.51	19118
904.627	19236
904.745	19156
904.863	19225
904.981	18897
905.098	18757
905.216	18795
905.334	18779
905.451	18757
905.569	18848
905.686	18867
905.803	18741
905.921	18585
906.038	18825
906.155	18570
906.272	18513
906.389	18490
906.506	18407
906.623	18452
906.74	18334
906.857	18448
906.974	18167
907.091	18422
907.208	18536
907.324	18407
907.441	18228
907.557	18140
907.674	18114
907.79	18049
907.907	18026
908.023	18079
908.139	18095
908.256	18007
908.372	18049
908.488	17897
908.604	17760
908.72	17794
908.836	17809
908.952	17703
909.068	17786
909.184	17882
909.3	17760
909.415	17726
909.531	17745
909.647	17573
909.762	17459
909.878	17402
909.993	17490
910.108	17474
910.224	17406
910.339	17493
910.454	17360
910.57	17311
910.685	17204
910.8	17497
910.915	17501
911.03	17231
911.145	17048
911.259	17056
911.374	17006
911.489	16896
911.604	16873
911.718	16812
911.833	16850
911.947	16656
912.062	16603
912.176	16782
912.291	16881
912.405	16896
912.519	17117
912.633	17060
912.748	16850
912.862	16603
912.976	16634
913.09	16474
913.204	16626
913.318	16607
913.431	16641
913.545	16603
913.659	16740
913.772	16508
913.886	16451
914	16413
914.113	16451
914.226	16504
914.34	16409
914.453	16287
914.566	16443
914.68	16261
914.793	16219
914.906	16006
915.019	15983
915.132	15907
915.245	15941
915.358	15983
915.47	15953
915.583	15930
915.696	15960
915.809	15979
915.921	16063
916.034	15907
916.146	15865
916.259	15838
916.371	15911
916.483	15941
916.595	15827
916.708	15823
916.82	15793
916.932	15694
917.044	15625
917.156	15766
917.268	15652
917.38	15591
917.491	15660
917.603	15614
917.715	15682
917.826	15747
917.938	15542
918.049	15386
918.161	15519
918.272	15713
918.384	15679
918.495	15496
918.606	15488
918.717	15325
918.828	15378
918.939	15401
919.05	15340
919.161	15363
919.272	15173
919.383	15184
919.494	15359
919.604	15477
919.715	15351
919.826	15310
919.936	15359
920.047	15389
920.157	15272
920.267	15504
920.378	15211
920.488	15287
920.598	15424
920.708	15614
920.818	15363
920.928	15393
921.038	15469
921.148	15599
921.258	15298
921.368	15108
921.477	15020
921.587	14933
921.697	14880
921.806	14921
921.916	14883
922.025	14720
922.134	14663
922.244	14549
922.353	14651
922.462	14503
922.571	14549
922.68	14396
922.789	14324
922.898	14275
923.007	14263
923.116	14259
923.224	14324
923.333	14301
923.442	14164
923.55	14077
923.659	14065
923.767	14134
923.876	14012
923.984	14092
924.092	13989
924.201	13967
924.309	13978
924.417	13982
924.525	13856
924.633	13967
924.741	14785
924.849	13776
924.956	13837
925.064	13765
925.172	13582
925.279	13723
925.387	13616
925.494	13575
925.602	13750
925.709	13677
925.816	13594
925.924	13616
926.031	13689
926.138	13487
926.245	13624
926.352	13441
926.459	13636
926.566	13655
926.673	13525
926.779	13495
926.886	13320
926.993	13175
927.099	13251
927.206	13141
927.312	13076
927.419	13244
927.525	13107
927.631	13190
927.737	13057
927.843	13027
927.95	12924
928.056	13004
928.162	12993
928.267	13004
928.373	13590
928.479	13008
928.585	12909
928.69	12821
928.796	13023
928.901	12867
929.007	12654
929.112	12840
929.218	12787
929.323	12711
929.428	12639
929.533	12810
929.638	12563
929.743	12589
929.848	12738
929.953	12738
930.058	12551
930.163	12346
930.267	12414
930.372	12422
930.477	12403
930.581	12532
930.685	12357
930.79	12205
930.894	12251
930.998	12140
931.103	12334
931.207	12007
931.311	11977
931.415	11893
931.519	11688
931.623	11459
