Data from test_V78500241_1384.txt Node
Date: Fri Mar 25 15:51:23 CST 2022
User: usil
Spectrometer: V785-0024
Trigger mode: 0
Integration Time (sec): 4.000000E-1
Scans to average: 1
Nonlinearity correction enabled: false
Boxcar width: 0
Storing dark spectrum: false
XAxis mode: Wavelengths
Number of Pixels in Spectrum: 1024
>>>>>Begin Spectral Data<<<<<
801.071	27785
801.214	27675
801.356	27424
801.499	27408
801.641	27336
801.783	27325
801.926	27310
802.068	27230
802.211	27150
802.353	27264
802.496	26899
802.638	26891
802.78	26998
802.923	26735
803.065	26868
803.208	26982
803.35	26895
803.492	26933
803.635	27157
803.777	27070
803.919	27142
804.061	27545
804.204	27260
804.346	26956
804.488	26967
804.63	27062
804.773	26986
804.915	27070
805.057	27096
805.199	27047
805.341	27195
805.483	27249
805.626	27329
805.768	27085
805.91	27184
806.052	27108
806.194	27127
806.336	27447
806.478	27374
806.62	27207
806.762	27355
806.904	27374
807.046	27747
807.188	27793
807.33	27641
807.472	27717
807.614	27603
807.756	27576
807.898	27576
808.04	27344
808.182	27431
808.324	27481
808.465	27583
808.607	27804
808.749	27857
808.891	27846
809.033	28097
809.174	27778
809.316	27861
809.458	27808
809.6	27800
809.741	27983
809.883	28025
810.025	28192
810.166	28188
810.308	28204
810.45	28086
810.591	28025
810.733	27972
810.875	27835
811.016	27629
811.158	27713
811.299	27994
811.441	27956
811.582	27975
811.724	27991
811.865	27774
812.007	27831
812.148	27739
812.29	27869
812.431	27899
812.573	28192
812.714	28173
812.855	28462
812.997	28459
813.138	28527
813.279	28436
813.421	28512
813.562	28443
813.703	28116
813.845	28055
813.986	27743
814.127	27591
814.268	27519
814.41	27698
814.551	27496
814.692	27485
814.833	27526
814.974	27538
815.115	27534
815.256	27454
815.397	27332
815.539	27416
815.68	27268
815.821	27169
815.962	27401
816.103	27340
816.244	27245
816.385	27100
816.526	27070
816.666	26956
816.807	26910
816.948	26823
817.089	26967
817.23	26781
817.371	26845
817.512	26804
817.653	26823
817.793	26743
817.934	26819
818.075	26838
818.216	26762
818.356	26758
818.497	26606
818.638	26530
818.778	26469
818.919	26632
819.06	26571
819.2	26800
819.341	26830
819.481	26819
819.622	26956
819.762	27123
819.903	27036
820.043	27039
820.184	27070
820.324	27062
820.465	27062
820.605	26921
820.746	26880
820.886	26697
821.026	26975
821.167	26944
821.307	26963
821.447	26769
821.588	26724
821.728	26648
821.868	26530
822.008	26347
822.149	26259
822.289	26320
822.429	26043
822.569	26054
822.709	26027
822.849	25803
822.99	25807
823.13	25791
823.27	25723
823.41	25658
823.55	25529
823.69	25738
823.83	25605
823.97	25582
824.11	25365
824.25	25362
824.389	25499
824.529	25495
824.669	25430
824.809	25499
824.949	25563
825.089	25643
825.228	25479
825.368	25335
825.508	25244
825.648	25293
825.787	25384
825.927	25221
826.067	25327
826.206	25259
826.346	25324
826.485	25411
826.625	25251
826.765	25384
826.904	25415
827.044	25110
827.183	24996
827.323	24909
827.462	25065
827.601	24920
827.741	25084
827.88	25099
828.02	24802
828.159	24909
828.298	24962
828.437	25000
828.577	24981
828.716	25133
828.855	25008
828.994	24677
829.134	24783
829.273	24787
829.412	24715
829.551	24585
829.69	24665
829.829	24726
829.968	24825
830.107	24612
830.246	24856
830.385	24631
830.524	24490
830.663	24582
830.802	24433
830.941	24300
831.08	24315
831.219	24365
831.357	24330
831.496	24479
831.635	24266
831.774	24243
831.913	24125
832.051	24152
832.19	24125
832.329	24178
832.467	23958
832.606	23908
832.744	23965
832.883	24011
833.022	24079
833.16	23885
833.299	24034
833.437	24060
833.576	24049
833.714	24171
833.852	24106
833.991	24057
834.129	24026
834.267	24140
834.406	24049
834.544	24129
834.682	23878
834.821	23958
834.959	24205
835.097	24041
835.235	24003
835.373	24015
835.511	24018
835.65	23961
835.788	23817
835.926	23817
836.064	23707
836.202	23672
836.34	23950
836.478	24072
836.615	23882
836.753	23832
836.891	23870
837.029	23931
837.167	23855
837.305	23714
837.443	23805
837.58	23608
837.718	23737
837.856	23771
837.993	23634
838.131	23752
838.269	23558
838.406	23558
838.544	23512
838.681	23448
838.819	23433
838.956	23151
839.094	23159
839.231	23136
839.369	23372
839.506	23570
839.643	23486
839.781	23265
839.918	23178
840.055	23200
840.193	23136
840.33	23136
840.467	23132
840.604	23239
840.742	23372
840.879	22991
841.016	23048
841.153	23029
841.29	23204
841.427	23044
841.564	23117
841.701	23052
841.838	23010
841.975	22942
842.112	23018
842.249	22961
842.385	22858
842.522	23056
842.659	23014
842.796	22835
842.933	22839
843.069	22782
843.206	22812
843.343	22938
843.479	22923
843.616	22862
843.752	22740
843.889	22679
844.025	22793
844.162	22531
844.298	22698
844.435	22577
844.571	22565
844.708	22710
844.844	22774
844.98	22763
845.117	22691
845.253	22615
845.389	22497
845.525	22531
845.661	22485
845.798	22436
845.934	22371
846.07	22299
846.206	22481
846.342	22432
846.478	22398
846.614	22158
846.75	22006
846.886	22044
847.022	22291
847.158	22188
847.294	22116
847.429	22135
847.565	21998
847.701	22382
847.837	21880
847.972	21781
848.108	21972
848.244	22002
848.379	21739
848.515	21728
848.65	21629
848.786	21641
848.921	21709
849.057	21789
849.192	21827
849.328	21842
849.463	21755
849.598	21599
849.734	21538
849.869	21599
850.004	21321
850.14	21599
850.275	21439
850.41	21382
850.545	21485
850.68	21469
850.815	21492
850.95	21504
851.085	21622
851.22	21603
851.355	21492
851.49	21329
851.625	21378
851.76	21386
851.895	21325
852.03	21348
852.165	21340
852.299	21583
852.434	21523
852.569	21507
852.703	21538
852.838	21504
852.973	21599
853.107	21572
853.242	21378
853.376	21329
853.511	21142
853.645	21176
853.78	21260
853.914	21291
854.048	21127
854.183	21245
854.317	21321
854.451	21473
854.585	21260
854.72	21279
854.854	21313
854.988	21275
855.122	21146
855.256	21245
855.39	21317
855.524	21420
855.658	21241
855.792	21340
855.926	21252
856.06	21405
856.194	21325
856.327	21317
856.461	21237
856.595	21184
856.729	21123
856.862	21458
856.996	21374
857.13	21340
857.263	21386
857.397	21321
857.53	21241
857.664	21245
857.797	21336
857.931	21370
858.064	21336
858.197	21313
858.331	21230
858.464	21313
858.597	21245
858.731	21272
858.864	21207
858.997	21294
859.13	21268
859.263	21332
859.396	21462
859.529	21359
859.662	21272
859.795	21176
859.928	21332
860.061	21344
860.194	21587
860.327	21393
860.46	21359
860.592	21389
860.725	21439
860.858	21355
860.99	21283
861.123	21157
861.256	21252
861.388	21336
861.521	21987
861.653	21142
861.786	21127
861.918	21013
862.05	21055
862.183	21138
862.315	21458
862.447	21233
862.58	21268
862.712	21093
862.844	21108
862.976	21131
863.108	21089
863.24	21378
863.372	20891
863.504	20986
863.636	20990
863.768	20982
863.9	21047
864.032	20990
864.164	20963
864.296	21028
864.428	21058
864.559	21043
864.691	21085
864.823	20963
864.954	20986
865.086	21032
865.217	20864
865.349	20948
865.48	20982
865.612	20857
865.743	20952
865.875	20990
866.006	20960
866.137	21001
866.269	20941
866.4	20891
866.531	20914
866.662	20708
866.793	20777
866.924	20857
867.055	20834
867.186	20979
867.317	20838
867.448	20773
867.579	20800
867.71	20678
867.841	20686
867.972	20891
868.103	20834
868.233	20853
868.364	20910
868.495	20887
868.625	21058
868.756	21131
868.886	21005
869.017	21066
869.147	21218
869.278	21119
869.408	21047
869.539	20929
869.669	21051
869.799	21150
869.929	21112
870.06	21249
870.19	21367
870.32	21428
870.45	21401
870.58	21458
870.71	21622
870.84	21644
870.97	21424
871.1	21534
871.23	21599
871.36	21785
871.489	21557
871.619	21564
871.749	21667
871.879	21732
872.008	21713
872.138	21587
872.267	21648
872.397	21587
872.526	21633
872.656	21523
872.785	21553
872.915	21564
873.044	21682
873.173	21686
873.303	21865
873.432	21751
873.561	21816
873.69	21793
873.819	21610
873.948	21770
874.077	21717
874.206	21652
874.335	21644
874.464	21922
874.593	21953
874.722	21949
874.851	22040
874.979	21926
875.108	21972
875.237	21842
875.365	21880
875.494	21903
875.623	21972
875.751	21907
875.88	21964
876.008	22036
876.136	22078
876.265	22360
876.393	22382
876.521	22371
876.65	22337
876.778	22344
876.906	22318
877.034	22181
877.162	22162
877.29	22188
877.418	22306
877.546	22348
877.674	22348
877.802	22303
877.93	22181
878.058	22261
878.185	22090
878.313	22306
878.441	22280
878.568	22223
878.696	22230
878.824	22287
878.951	22371
879.079	22447
879.206	22580
879.333	22504
879.461	22360
879.588	22306
879.715	22375
879.842	22569
879.97	22344
880.097	22093
880.224	22044
880.351	22116
880.478	22109
880.605	22010
880.732	22010
880.859	22242
880.986	22048
881.112	22070
881.239	22029
881.366	21854
881.493	21804
881.619	21728
881.746	21705
881.872	21614
881.999	21747
882.125	21599
882.252	21637
882.378	21663
882.505	21648
882.631	21428
882.757	21424
882.883	21553
883.01	21431
883.136	21355
883.262	21184
883.388	21195
883.514	21317
883.64	21370
883.766	21279
883.892	21085
884.018	21173
884.143	21329
884.269	21211
884.395	21176
884.52	20975
884.646	21043
884.772	20971
884.897	20838
885.023	20967
885.148	21116
885.274	21074
885.399	21001
885.524	21005
885.65	21058
885.775	20986
885.9	20899
886.025	21180
886.15	21104
886.275	20933
886.4	20921
886.525	20937
886.65	20986
886.775	21005
886.9	20960
887.025	21161
887.149	20929
887.274	20785
887.399	20762
887.523	20788
887.648	20811
887.773	20804
887.897	20830
888.021	20777
888.146	20686
888.27	20956
888.395	20937
888.519	20880
888.643	20891
888.767	20800
888.891	20731
889.015	20606
889.139	20644
889.263	20560
889.387	20716
889.511	20861
889.635	20667
889.759	20636
889.883	20545
890.006	20590
890.13	20686
890.254	20617
890.377	20480
890.501	20450
890.624	20343
890.748	20370
890.871	20206
890.995	20103
891.118	20206
891.241	20183
891.364	20054
891.488	20195
891.611	20130
891.734	19986
891.857	20225
891.98	20031
892.103	20172
892.226	20210
892.349	20096
892.471	19921
892.594	20058
892.717	19982
892.839	20111
892.962	20157
893.085	20111
893.207	20050
893.33	19967
893.452	20027
893.575	20187
893.697	20005
893.819	20183
893.941	20210
894.064	20210
894.186	20096
894.308	19913
894.43	20130
894.552	20172
894.674	20218
894.796	20039
894.918	20005
895.04	20016
895.161	20233
895.283	20073
895.405	19951
895.526	19978
895.648	20020
895.769	20092
895.891	20176
896.012	20119
896.134	20073
896.255	20054
896.376	20130
896.498	20043
896.619	20180
896.74	20058
896.861	20161
896.982	20450
897.103	20507
897.224	20305
897.345	20275
897.466	20332
897.587	20343
897.708	20469
897.828	20355
897.949	20161
898.07	20271
898.19	20218
898.311	20408
898.431	20263
898.552	20320
898.672	20343
898.792	20305
898.913	20294
899.033	20138
899.153	20031
899.273	19875
899.393	20035
899.513	20035
899.633	19993
899.753	20031
899.873	20046
899.993	20062
900.113	20103
900.232	19993
900.352	19963
900.472	19921
900.591	19769
900.711	19712
900.83	19791
900.95	19917
901.069	19818
901.189	19727
901.308	19415
901.427	19362
901.546	19415
901.665	19533
901.784	19415
901.904	19228
902.023	19152
902.141	19129
902.26	18871
902.379	19008
902.498	18909
902.617	18779
902.735	18981
902.854	18920
902.973	18749
903.091	18631
903.21	18620
903.328	18604
903.446	18483
903.565	18399
903.683	18418
903.801	18346
903.919	18429
904.038	18289
904.156	18140
904.274	18224
904.392	18129
904.51	18057
904.627	18190
904.745	18144
904.863	18254
904.981	17942
905.098	17863
905.216	17813
905.334	17870
905.451	17809
905.569	17794
905.686	17752
905.803	17760
905.921	17592
906.038	17718
906.155	17668
906.272	17512
906.389	17589
906.506	17334
906.623	17402
906.74	17337
906.857	17265
906.974	17288
907.091	17410
907.208	17520
907.324	17398
907.441	17246
907.557	17037
907.674	17098
907.79	16980
907.907	17010
908.023	17029
908.139	17109
908.256	17052
908.372	16919
908.488	16957
908.604	16927
908.72	16771
908.836	16759
908.952	16771
909.068	16771
909.184	16953
909.3	16801
909.415	16854
909.531	16744
909.647	16573
909.762	16519
909.878	16375
909.993	16523
910.108	16569
910.224	16497
910.339	16443
910.454	16405
910.57	16337
910.685	16287
910.8	16523
910.915	16363
911.03	16371
911.145	16162
911.259	16071
911.374	16082
911.489	16086
911.604	15998
911.718	15762
911.833	15968
911.947	15732
912.062	15736
912.176	15850
912.291	15907
912.405	15789
912.519	16078
912.633	16013
912.748	15789
912.862	15778
912.976	15762
913.09	15614
913.204	15564
913.318	15671
913.431	15743
913.545	15663
913.659	15766
913.772	15622
913.886	15424
914	15481
914.113	15549
914.226	15496
914.34	15538
914.453	15317
914.566	15405
914.68	15291
914.793	15336
914.906	15161
915.019	15104
915.132	15043
915.245	15100
915.358	15013
915.47	15062
915.583	15081
915.696	15131
915.809	15214
915.921	15176
916.034	15066
916.146	14971
916.259	14971
916.371	14967
916.483	14948
916.595	14842
916.708	14876
916.82	14918
916.932	14792
917.044	14876
917.156	14769
917.268	14754
917.38	14701
917.491	14712
917.603	14693
917.715	14834
917.826	14910
917.938	14594
918.049	14492
918.161	14716
918.272	14830
918.384	14727
918.495	14663
918.606	14579
918.717	14549
918.828	14503
918.939	14438
919.05	14370
919.161	14526
919.272	14202
919.383	14347
919.494	14518
919.604	14670
919.715	14499
919.826	14332
919.936	14450
920.047	14644
920.157	14492
920.267	14571
920.378	14503
920.488	14381
920.598	14644
920.708	14739
920.818	14625
920.928	14644
921.038	14731
921.148	14632
921.258	14393
921.368	14278
921.477	14142
921.587	14252
921.697	14142
921.806	14111
921.916	14020
922.025	13849
922.134	13852
922.244	13784
922.353	13860
922.462	13837
922.571	13643
922.68	13502
922.789	13529
922.898	13540
923.007	13400
923.116	13586
923.224	13453
923.333	13396
923.442	13331
923.55	13247
923.659	13285
923.767	13365
923.876	13232
923.984	13308
924.092	13114
924.201	13278
924.309	13232
924.417	13232
924.525	13126
924.633	13122
924.741	14115
924.849	12947
924.956	13046
925.064	12947
925.172	12897
925.279	12837
925.387	12970
925.494	12916
925.602	12993
925.709	12932
925.816	12833
925.924	12833
926.031	12802
926.138	12852
926.245	12852
926.352	12817
926.459	12890
926.566	12966
926.673	12837
926.779	12734
926.886	12616
926.993	12536
927.099	12521
927.206	12456
927.312	12407
927.419	12506
927.525	12426
927.631	12471
927.737	12403
927.843	12327
927.95	12194
928.056	12258
928.162	12281
928.267	12369
928.373	12939
928.479	12361
928.585	12091
928.69	12228
928.796	12300
928.901	12136
929.007	12087
929.112	12125
929.218	12178
929.323	11999
929.428	12003
929.533	12197
929.638	11980
929.743	11958
929.848	11992
929.953	12015
930.058	11893
930.163	11699
930.267	11737
930.372	11889
930.477	11661
930.581	11912
930.685	11764
930.79	11566
930.894	11608
930.998	11596
931.103	11627
931.207	11349
931.311	11204
931.415	11132
931.519	11033
931.623	10991
