Data from test_V78500241_778.txt Node
Date: Fri Mar 25 15:47:11 CST 2022
User: usil
Spectrometer: V785-0024
Trigger mode: 0
Integration Time (sec): 4.000000E-1
Scans to average: 1
Nonlinearity correction enabled: false
Boxcar width: 0
Storing dark spectrum: false
XAxis mode: Wavelengths
Number of Pixels in Spectrum: 1024
>>>>>Begin Spectral Data<<<<<
801.071	27911
801.214	27865
801.356	27720
801.499	27660
801.641	27534
801.783	27644
801.926	27686
802.068	27564
802.211	27447
802.353	27298
802.496	27260
802.638	27127
802.78	27195
802.923	27161
803.065	27066
803.208	27116
803.35	27260
803.492	27401
803.635	27348
803.777	27302
803.919	27450
804.061	27694
804.204	27348
804.346	27416
804.488	27344
804.63	27405
804.773	27355
804.915	27431
805.057	27606
805.199	27485
805.341	27431
805.483	27485
805.626	27675
805.768	27469
805.91	27644
806.052	27663
806.194	27473
806.336	27660
806.478	27599
806.62	27572
806.762	27686
806.904	27812
807.046	28090
807.188	28067
807.33	27907
807.472	28074
807.614	27960
807.756	27945
807.898	27793
808.04	27808
808.182	27720
808.324	27838
808.465	27846
808.607	28044
808.749	28173
808.891	28295
809.033	28401
809.174	28462
809.316	28128
809.458	28204
809.6	28226
809.741	28405
809.883	28417
810.025	28421
810.166	28455
810.308	28546
810.45	28421
810.591	28398
810.733	28352
810.875	28246
811.016	28230
811.158	28109
811.299	28367
811.441	28527
811.582	28352
811.724	28379
811.865	28341
812.007	28253
812.148	28223
812.29	28196
812.431	28337
812.573	28470
812.714	28755
812.855	28755
812.997	28763
813.138	29029
813.279	28850
813.421	28778
813.562	28805
813.703	28622
813.845	28489
813.986	28147
814.127	27994
814.268	27922
814.41	28017
814.551	27816
814.692	27937
814.833	27819
814.974	27876
815.115	27945
815.256	27762
815.397	27861
815.539	27945
815.68	27599
815.821	27454
815.962	27892
816.103	27656
816.244	27698
816.385	27485
816.526	27526
816.666	27195
816.807	27199
816.948	27287
817.089	27405
817.23	27252
817.371	27203
817.512	27233
817.653	27226
817.793	27032
817.934	27237
818.075	27332
818.216	27131
818.356	27104
818.497	27058
818.638	26857
818.778	26952
818.919	26990
819.06	26887
819.2	27142
819.341	27180
819.481	27344
819.622	27310
819.762	27595
819.903	27401
820.043	27370
820.184	27378
820.324	27310
820.465	27389
820.605	27298
820.746	27336
820.886	27157
821.026	27241
821.167	27321
821.307	27401
821.447	27256
821.588	27169
821.728	27051
821.868	26819
822.008	26868
822.149	26606
822.289	26735
822.429	26503
822.569	26408
822.709	26442
822.849	26073
822.99	26176
823.13	26176
823.27	26161
823.41	26031
823.55	25894
823.69	25986
823.83	26058
823.97	25871
824.11	25837
824.25	25818
824.389	25856
824.529	25925
824.669	25841
824.809	26039
824.949	25989
825.089	25993
825.228	25833
825.368	25597
825.508	25978
825.648	25734
825.787	25799
825.927	25738
826.067	25807
826.206	25704
826.346	25875
826.485	25963
826.625	25761
826.765	25841
826.904	25757
827.044	25639
827.183	25525
827.323	25491
827.462	25502
827.601	25377
827.741	25479
827.88	25457
828.02	25384
828.159	25457
828.298	25495
828.437	25384
828.577	25304
828.716	25495
828.855	25362
828.994	25198
829.134	25156
829.273	25270
829.412	25175
829.551	24962
829.69	25217
829.829	25027
829.968	25175
830.107	25183
830.246	25091
830.385	25053
830.524	25072
830.663	24947
830.802	24791
830.941	24669
831.08	24669
831.219	24730
831.357	24749
831.496	24947
831.635	24779
831.774	24563
831.913	24681
832.051	24563
832.19	24608
832.329	24757
832.467	24448
832.606	24342
832.744	24414
832.883	24334
833.022	24311
833.16	24486
833.299	24437
833.437	24327
833.576	24559
833.714	24452
833.852	24551
833.991	24479
834.129	24597
834.267	24585
834.406	24540
834.544	24604
834.682	24635
834.821	24403
834.959	24673
835.097	24445
835.235	24528
835.373	24384
835.511	24319
835.65	24296
835.788	24300
835.926	24060
836.064	24140
836.202	24178
836.34	24342
836.478	24327
836.615	24213
836.753	24429
836.891	24327
837.029	24357
837.167	24197
837.305	24239
837.443	24270
837.58	24159
837.718	24292
837.856	24125
837.993	24106
838.131	24140
838.269	23969
838.406	24011
838.544	23942
838.681	23805
838.819	23695
838.956	23589
839.094	23623
839.231	23577
839.369	23722
839.506	23973
839.643	23901
839.781	23551
839.918	23623
840.055	23687
840.193	23482
840.33	23482
840.467	23630
840.604	23562
840.742	23748
840.879	23493
841.016	23455
841.153	23467
841.29	23710
841.427	23539
841.564	23722
841.701	23471
841.838	23395
841.975	23322
842.112	23440
842.249	23372
842.385	23368
842.522	23623
842.659	23440
842.796	23307
842.933	23235
843.069	23216
843.206	23204
843.343	23364
843.479	23284
843.616	23121
843.752	23117
843.889	22965
844.025	23246
844.162	23056
844.298	23079
844.435	23018
844.571	23044
844.708	23044
844.844	23109
844.98	23220
845.117	23117
845.253	22915
845.389	22885
845.525	22873
845.661	22850
845.798	22744
845.934	22858
846.07	22634
846.206	22774
846.342	22881
846.478	22721
846.614	22630
846.75	22375
846.886	22424
847.022	22451
847.158	22417
847.294	22557
847.429	22443
847.565	22478
847.701	22763
847.837	22181
847.972	22200
848.108	22386
848.244	22356
848.379	22188
848.515	22109
848.65	22139
848.786	22101
848.921	22078
849.057	22196
849.192	22215
849.328	22135
849.463	22147
849.598	21918
849.734	21983
849.869	21915
850.004	21861
850.14	21827
850.275	21911
850.41	21774
850.545	21781
850.68	21838
850.815	21865
850.95	21876
851.085	22029
851.22	21903
851.355	21804
851.49	21762
851.625	21800
851.76	21857
851.895	21759
852.03	21838
852.165	21736
852.299	21804
852.434	22006
852.569	21960
852.703	21774
852.838	22010
852.973	21880
853.107	21979
853.242	21846
853.376	21587
853.511	21568
853.645	21739
853.78	21785
853.914	21686
854.048	21583
854.183	21728
854.317	21679
854.451	21903
854.585	21713
854.72	21675
854.854	21751
854.988	21606
855.122	21705
855.256	21595
855.39	21694
855.524	21911
855.658	21656
855.792	21736
855.926	21705
856.06	21679
856.194	21804
856.327	21564
856.461	21618
856.595	21599
856.729	21690
856.862	21739
856.996	21587
857.13	21698
857.263	21724
857.397	21622
857.53	21610
857.664	21652
857.797	21793
857.931	21774
858.064	21690
858.197	21816
858.331	21660
858.464	21633
858.597	21496
858.731	21641
858.864	21690
858.997	21641
859.13	21644
859.263	21675
859.396	21755
859.529	21679
859.662	21564
859.795	21652
859.928	21751
860.061	21736
860.194	21854
860.327	21679
860.46	21633
860.592	21930
860.725	21857
860.858	21778
860.99	21739
861.123	21618
861.256	21599
861.388	21580
861.521	22249
861.653	21591
861.786	21530
861.918	21572
862.05	21622
862.183	21720
862.315	21728
862.447	21603
862.58	21591
862.712	21344
862.844	21310
862.976	21500
863.108	21428
863.24	21899
863.372	21355
863.504	21397
863.636	21211
863.768	21363
863.9	21424
864.032	21313
864.164	21268
864.296	21348
864.428	21397
864.559	21477
864.691	21439
864.823	21401
864.954	21412
865.086	21313
865.217	21192
865.349	21260
865.48	21218
865.612	21214
865.743	21462
865.875	21230
866.006	21161
866.137	21203
866.269	21355
866.4	21283
866.531	21032
866.662	21195
866.793	21119
866.924	21260
867.055	21150
867.186	21249
867.317	21218
867.448	21195
867.579	21203
867.71	21165
867.841	21161
867.972	21241
868.103	21199
868.233	21249
868.364	21188
868.495	21283
868.625	21507
868.756	21542
868.886	21313
869.017	21526
869.147	21538
869.278	21660
869.408	21603
869.539	21466
869.669	21637
869.799	21420
869.929	21603
870.06	21549
870.19	21835
870.32	21698
870.45	21686
870.58	21713
870.71	22006
870.84	22040
870.97	21857
871.1	21751
871.23	22116
871.36	22109
871.489	21907
871.619	22010
871.749	22105
871.879	22181
872.008	22192
872.138	21949
872.267	22006
872.397	21994
872.526	21823
872.656	21911
872.785	21922
872.915	22097
873.044	22124
873.173	22040
873.303	22055
873.432	22124
873.561	22238
873.69	22101
873.819	22021
873.948	22238
874.077	22010
874.206	22078
874.335	21983
874.464	22257
874.593	22329
874.722	22166
874.851	22344
874.979	22284
875.108	22344
875.237	22280
875.365	22173
875.494	22253
875.623	22367
875.751	22246
875.88	22234
876.008	22424
876.136	22421
876.265	22599
876.393	22767
876.521	22702
876.65	22782
876.778	22733
876.906	22736
877.034	22478
877.162	22717
877.29	22637
877.418	22672
877.546	22725
877.674	22478
877.802	22622
877.93	22668
878.058	22618
878.185	22607
878.313	22481
878.441	22653
878.568	22538
878.696	22607
878.824	22599
878.951	22740
879.079	22706
879.206	22919
879.333	22812
879.461	22618
879.588	22694
879.715	22809
879.842	22816
879.97	22733
880.097	22402
880.224	22344
880.351	22489
880.478	22455
880.605	22489
880.732	22455
880.859	22706
880.986	22413
881.112	22428
881.239	22333
881.366	22116
881.493	22139
881.619	22044
881.746	22078
881.872	22070
881.999	22017
882.125	21960
882.252	21979
882.378	21960
882.505	22006
882.631	21823
882.757	21724
882.883	21762
883.01	21816
883.136	21739
883.262	21587
883.388	21553
883.514	21641
883.64	21766
883.766	21648
883.892	21439
884.018	21545
884.143	21572
884.269	21656
884.395	21424
884.52	21477
884.646	21264
884.772	21332
884.897	21214
885.023	21367
885.148	21393
885.274	21401
885.399	21439
885.524	21348
885.65	21230
885.775	21355
885.9	21245
886.025	21450
886.15	21336
886.275	21420
886.4	21264
886.525	21283
886.65	21272
886.775	21329
886.9	21310
887.025	21431
887.149	21298
887.274	21176
887.399	21116
887.523	21081
887.648	21154
887.773	21074
887.897	21222
888.021	21203
888.146	21089
888.27	21214
888.395	21233
888.519	21165
888.643	21241
888.767	21070
888.891	21085
889.015	21009
889.139	20872
889.263	20853
889.387	21055
889.511	21173
889.635	20994
889.759	20921
889.883	20785
890.006	20925
890.13	21017
890.254	20807
890.377	20800
890.501	20621
890.624	20636
890.748	20762
890.871	20587
890.995	20492
891.118	20469
891.241	20366
891.364	20457
891.488	20598
891.611	20358
891.734	20446
891.857	20526
891.98	20533
892.103	20465
892.226	20480
892.349	20450
892.471	20271
892.594	20328
892.717	20427
892.839	20408
892.962	20461
893.085	20427
893.207	20412
893.33	20259
893.452	20218
893.575	20396
893.697	20256
893.819	20530
893.941	20556
894.064	20484
894.186	20301
894.308	20355
894.43	20389
894.552	20492
894.674	20419
894.796	20202
894.918	20358
895.04	20259
895.161	20381
895.283	20389
895.405	20324
895.526	20393
895.648	20454
895.769	20469
895.891	20381
896.012	20457
896.134	20332
896.255	20412
896.376	20385
896.498	20290
896.619	20442
896.74	20313
896.861	20457
896.982	20693
897.103	20887
897.224	20648
897.345	20727
897.466	20537
897.587	20750
897.708	20724
897.828	20659
897.949	20438
898.07	20442
898.19	20442
898.311	20587
898.431	20579
898.552	20606
898.672	20644
898.792	20613
898.913	20701
899.033	20473
899.153	20412
899.273	20427
899.393	20336
899.513	20385
899.633	20298
899.753	20336
899.873	20339
899.993	20412
900.113	20164
900.232	20210
900.352	20362
900.472	20195
900.591	20134
900.711	20096
900.83	20065
900.95	20199
901.069	20259
901.189	19928
901.308	19921
901.427	19685
901.546	19677
901.665	19761
901.784	19616
901.904	19533
902.023	19533
902.141	19225
902.26	19175
902.379	19266
902.498	19259
902.617	19148
902.735	19266
902.854	19194
902.973	19126
903.091	18901
903.21	18886
903.328	18840
903.446	18722
903.565	18779
903.683	18715
903.801	18563
903.919	18696
904.038	18604
904.156	18486
904.274	18589
904.392	18445
904.51	18361
904.627	18361
904.745	18399
904.863	18486
904.981	18216
905.098	18163
905.216	18068
905.334	18060
905.451	18049
905.569	18057
905.686	18136
905.803	18057
905.921	17836
906.038	17984
906.155	17969
906.272	17699
906.389	17798
906.506	17741
906.623	17668
906.74	17608
906.857	17528
906.974	17577
907.091	17718
907.208	17817
907.324	17630
907.441	17551
907.557	17387
907.674	17398
907.79	17326
907.907	17273
908.023	17299
908.139	17402
908.256	17254
908.372	17296
908.488	17185
908.604	17124
908.72	17067
908.836	17166
908.952	17071
909.068	17098
909.184	17265
909.3	17105
909.415	17128
909.531	17037
909.647	16820
909.762	16744
909.878	16691
909.993	16866
910.108	16717
910.224	16767
910.339	16774
910.454	16733
910.57	16558
910.685	16519
910.8	16831
910.915	16782
911.03	16649
911.145	16398
911.259	16348
911.374	16352
911.489	16348
911.604	16192
911.718	16169
911.833	16093
911.947	16078
912.062	16082
912.176	16128
912.291	16074
912.405	16211
912.519	16299
912.633	16356
912.748	16131
912.862	16071
912.976	15854
913.09	15747
913.204	15964
913.318	15930
913.431	16017
913.545	15911
913.659	15983
913.772	15903
913.886	15717
914	15766
914.113	15720
914.226	15812
914.34	15747
914.453	15549
914.566	15819
914.68	15652
914.793	15500
914.906	15332
915.019	15279
915.132	15233
915.245	15348
915.358	15321
915.47	15382
915.583	15348
915.696	15302
915.809	15355
915.921	15492
916.034	15287
916.146	15195
916.259	15188
916.371	15230
916.483	15268
916.595	15036
916.708	15154
916.82	15123
916.932	15116
917.044	15123
917.156	15089
917.268	14956
917.38	15009
917.491	14979
917.603	14990
917.715	15036
917.826	15020
917.938	14826
918.049	14773
918.161	14861
918.272	14967
918.384	14933
918.495	14773
918.606	14708
918.717	14705
918.828	14739
918.939	14769
919.05	14545
919.161	14731
919.272	14526
919.383	14606
919.494	14670
919.604	14826
919.715	14731
919.826	14533
919.936	14636
920.047	14750
920.157	14659
920.267	14845
920.378	14724
920.488	14625
920.598	14826
920.708	15013
920.818	14807
920.928	14864
921.038	14967
921.148	14899
921.258	14552
921.368	14564
921.477	14480
921.587	14332
921.697	14252
921.806	14450
921.916	14294
922.025	14077
922.134	14005
922.244	14069
922.353	14145
922.462	13932
922.571	13852
922.68	13807
922.789	13666
922.898	13772
923.007	13559
923.116	13734
923.224	13689
923.333	13571
923.442	13525
923.55	13457
923.659	13537
923.767	13567
923.876	13525
923.984	13601
924.092	13396
924.201	13495
924.309	13453
924.417	13407
924.525	13415
924.633	13407
924.741	14351
924.849	13038
924.956	13236
925.064	13145
925.172	13122
925.279	13099
925.387	13114
925.494	13076
925.602	13255
925.709	13133
925.816	12913
925.924	13080
926.031	13126
926.138	13065
926.245	13091
926.352	13042
926.459	13046
926.566	13103
926.673	13027
926.779	12829
926.886	12901
926.993	12787
927.099	12726
927.206	12639
927.312	12563
927.419	12688
927.525	12620
927.631	12719
927.737	12521
927.843	12490
927.95	12467
928.056	12388
928.162	12403
928.267	12570
928.373	13183
928.479	12525
928.585	12410
928.69	12525
928.796	12403
928.901	12346
929.007	12251
929.112	12327
929.218	12281
929.323	12254
929.428	12323
929.533	12399
929.638	12060
929.743	12136
929.848	12171
929.953	12167
930.058	12091
930.163	11901
930.267	11908
930.372	12007
930.477	11973
930.581	12045
930.685	11961
930.79	11790
930.894	11718
930.998	11790
931.103	11863
931.207	11528
931.311	11490
931.415	11341
931.519	11201
931.623	11151
