Data from test_V78500241_1270.txt Node
Date: Fri Mar 25 15:50:35 CST 2022
User: usil
Spectrometer: V785-0024
Trigger mode: 0
Integration Time (sec): 4.000000E-1
Scans to average: 1
Nonlinearity correction enabled: false
Boxcar width: 0
Storing dark spectrum: false
XAxis mode: Wavelengths
Number of Pixels in Spectrum: 1024
>>>>>Begin Spectral Data<<<<<
801.071	28820
801.214	28911
801.356	28531
801.499	28565
801.641	28409
801.783	28401
801.926	28565
802.068	28550
802.211	28443
802.353	28409
802.496	28162
802.638	28128
802.78	28177
802.923	28112
803.065	28063
803.208	28128
803.35	28162
803.492	28215
803.635	28455
803.777	28314
803.919	28519
804.061	28797
804.204	28421
804.346	28352
804.488	28287
804.63	28474
804.773	28219
804.915	28516
805.057	28656
805.199	28344
805.341	28512
805.483	28538
805.626	28618
805.768	28523
805.91	28649
806.052	28691
806.194	28641
806.336	28881
806.478	28717
806.62	28649
806.762	28805
806.904	28843
807.046	29132
807.188	29010
807.33	29025
807.472	29090
807.614	29029
807.756	29109
807.898	28949
808.04	28987
808.182	28904
808.324	28968
808.465	28961
808.607	29284
808.749	29303
808.891	29246
809.033	29326
809.174	29299
809.316	29273
809.458	29349
809.6	29155
809.741	29493
809.883	29493
810.025	29649
810.166	29676
810.308	29585
810.45	29592
810.591	29703
810.733	29231
810.875	29269
811.016	29204
811.158	29440
811.299	29322
811.441	29665
811.582	29493
811.724	29398
811.865	29387
812.007	29455
812.148	29280
812.29	29341
812.431	29455
812.573	29779
812.714	29748
812.855	29805
812.997	29893
813.138	30129
813.279	30011
813.421	29950
813.562	29805
813.703	29630
813.845	29505
813.986	29235
814.127	29140
814.268	29025
814.41	29086
814.551	29060
814.692	29200
814.833	29033
814.974	29109
815.115	29006
815.256	29052
815.397	28911
815.539	28927
815.68	28809
815.821	28824
815.962	28961
816.103	28900
816.244	28847
816.385	28611
816.526	28603
816.666	28478
816.807	28398
816.948	28497
817.089	28451
817.23	28398
817.371	28424
817.512	28462
817.653	28379
817.793	28325
817.934	28413
818.075	28493
818.216	28394
818.356	28341
818.497	28223
818.638	28131
818.778	28226
818.919	28219
819.06	28253
819.2	28280
819.341	28371
819.481	28390
819.622	28626
819.762	28748
819.903	28672
820.043	28717
820.184	28523
820.324	28485
820.465	28626
820.605	28554
820.746	28554
820.886	28478
821.026	28436
821.167	28493
821.307	28508
821.447	28390
821.588	28356
821.728	28116
821.868	28048
822.008	27972
822.149	27937
822.289	27766
822.429	27587
822.569	27488
822.709	27591
822.849	27340
822.99	27401
823.13	27397
823.27	27424
823.41	27203
823.55	27146
823.69	27306
823.83	27169
823.97	27135
824.11	27161
824.25	27055
824.389	27055
824.529	27214
824.669	27039
824.809	27157
824.949	27036
825.089	27112
825.228	27192
825.368	26918
825.508	27047
825.648	26963
825.787	26910
825.927	26990
826.067	26937
826.206	26792
826.346	27066
826.485	26960
826.625	26998
826.765	27017
826.904	26838
827.044	26629
827.183	26754
827.323	26705
827.462	26823
827.601	26716
827.741	26648
827.88	26758
828.02	26461
828.159	26518
828.298	26697
828.437	26659
828.577	26533
828.716	26659
828.855	26514
828.994	26351
829.134	26393
829.273	26446
829.412	26355
829.551	26180
829.69	26313
829.829	26324
829.968	26259
830.107	26453
830.246	26309
830.385	26385
830.524	26286
830.663	26259
830.802	26050
830.941	25974
831.08	25898
831.219	26020
831.357	25947
831.496	26206
831.635	25959
831.774	25799
831.913	25833
832.051	25731
832.19	25689
832.329	25628
832.467	25719
832.606	25670
832.744	25559
832.883	25582
833.022	25548
833.16	25681
833.299	25635
833.437	25639
833.576	25639
833.714	25708
833.852	25841
833.991	25643
834.129	25647
834.267	25658
834.406	25578
834.544	25712
834.682	25734
834.821	25635
834.959	25871
835.097	25556
835.235	25712
835.373	25693
835.511	25590
835.65	25529
835.788	25567
835.926	25514
836.064	25282
836.202	25472
836.34	25438
836.478	25590
836.615	25491
836.753	25434
836.891	25590
837.029	25491
837.167	25297
837.305	25422
837.443	25415
837.58	25327
837.718	25407
837.856	25312
837.993	25293
838.131	25373
838.269	25069
838.406	25236
838.544	25141
838.681	24992
838.819	24966
838.956	24760
839.094	24749
839.231	24852
839.369	24970
839.506	25202
839.643	24992
839.781	24840
839.918	24798
840.055	24859
840.193	24772
840.33	24642
840.467	24700
840.604	24703
840.742	25053
840.879	24623
841.016	24589
841.153	24521
841.29	24711
841.427	24642
841.564	24661
841.701	24749
841.838	24646
841.975	24551
842.112	24555
842.249	24612
842.385	24414
842.522	24608
842.659	24532
842.796	24308
842.933	24437
843.069	24384
843.206	24346
843.343	24467
843.479	24467
843.616	24464
843.752	24289
843.889	24171
844.025	24292
844.162	24258
844.298	24239
844.435	24239
844.571	24152
844.708	24315
844.844	24391
844.98	24304
845.117	24308
845.253	24174
845.389	23961
845.525	24106
845.661	24057
845.798	23958
845.934	23946
846.07	23969
846.206	23901
846.342	23977
846.478	23912
846.614	23646
846.75	23585
846.886	23630
847.022	23600
847.158	23794
847.294	23539
847.429	23638
847.565	23691
847.701	23802
847.837	23425
847.972	23337
848.108	23448
848.244	23573
848.379	23231
848.515	23189
848.65	23128
848.786	23330
848.921	23296
849.057	23387
849.192	23433
849.328	23200
849.463	23185
849.598	23140
849.734	23083
849.869	23056
850.004	22987
850.14	22987
850.275	23121
850.41	22984
850.545	22938
850.68	22980
850.815	22938
850.95	23003
851.085	23121
851.22	23121
851.355	23018
851.49	22915
851.625	22869
851.76	22980
851.895	22885
852.03	22790
852.165	23018
852.299	22961
852.434	23105
852.569	23044
852.703	22949
852.838	23018
852.973	23014
853.107	23037
853.242	22953
853.376	22831
853.511	22687
853.645	22767
853.78	22908
853.914	22812
854.048	22603
854.183	22877
854.317	22831
854.451	23033
854.585	22881
854.72	22858
854.854	22965
854.988	22786
855.122	22790
855.256	22752
855.39	22763
855.524	22812
855.658	22869
855.792	22748
855.926	22927
856.06	22755
856.194	22908
856.327	22858
856.461	22763
856.595	22729
856.729	22835
856.862	22862
856.996	22892
857.13	22923
857.263	22957
857.397	22930
857.53	22801
857.664	22790
857.797	22877
857.931	22942
858.064	22805
858.197	22881
858.331	22736
858.464	22824
858.597	22577
858.731	22812
858.864	22805
858.997	22771
859.13	22828
859.263	22759
859.396	22999
859.529	22782
859.662	22694
859.795	22755
859.928	22786
860.061	22900
860.194	23083
860.327	22809
860.46	22877
860.592	22805
860.725	22942
860.858	22984
860.99	22786
861.123	22736
861.256	22668
861.388	22904
861.521	23322
861.653	22771
861.786	22523
861.918	22561
862.05	22649
862.183	22694
862.315	22763
862.447	22866
862.58	22687
862.712	22516
862.844	22440
862.976	22599
863.108	22569
863.24	23014
863.372	22523
863.504	22512
863.636	22470
863.768	22440
863.9	22519
864.032	22299
864.164	22428
864.296	22535
864.428	22607
864.559	22622
864.691	22504
864.823	22565
864.954	22470
865.086	22451
865.217	22512
865.349	22333
865.48	22371
865.612	22367
865.743	22588
865.875	22443
866.006	22409
866.137	22398
866.269	22375
866.4	22432
866.531	22318
866.662	22280
866.793	22284
866.924	22341
867.055	22375
867.186	22246
867.317	22276
867.448	22196
867.579	22325
867.71	22215
867.841	22226
867.972	22341
868.103	22223
868.233	22341
868.364	22375
868.495	22424
868.625	22493
868.756	22641
868.886	22394
869.017	22462
869.147	22641
869.278	22717
869.408	22630
869.539	22630
869.669	22748
869.799	22626
869.929	22725
870.06	22577
870.19	22850
870.32	22801
870.45	22881
870.58	22934
870.71	23037
870.84	23102
870.97	22828
871.1	22885
871.23	23239
871.36	23155
871.489	23018
871.619	23181
871.749	23105
871.879	23159
872.008	23318
872.138	23155
872.267	23220
872.397	23052
872.526	23010
872.656	22892
872.785	22976
872.915	23239
873.044	23246
873.173	23113
873.303	23280
873.432	23235
873.561	23265
873.69	23170
873.819	23136
873.948	23204
874.077	23197
874.206	23098
874.335	23071
874.464	23220
874.593	23288
874.722	23307
874.851	23341
874.979	23433
875.108	23444
875.237	23379
875.365	23303
875.494	23387
875.623	23444
875.751	23307
875.88	23417
876.008	23425
876.136	23539
876.265	23707
876.393	23889
876.521	23828
876.65	23885
876.778	23840
876.906	23699
877.034	23611
877.162	23805
877.29	23710
877.418	23703
877.546	23703
877.674	23539
877.802	23718
877.93	23699
878.058	23634
878.185	23589
878.313	23596
878.441	23680
878.568	23566
878.696	23577
878.824	23779
878.951	23805
879.079	23855
879.206	23843
879.333	23870
879.461	23794
879.588	23809
879.715	23828
879.842	23980
879.97	23832
880.097	23512
880.224	23512
880.351	23566
880.478	23493
880.605	23391
880.732	23535
880.859	23764
880.986	23497
881.112	23376
881.239	23204
881.366	23223
881.493	23140
881.619	23117
881.746	23136
881.872	23041
881.999	22942
882.125	22991
882.252	23178
882.378	23006
882.505	23258
882.631	22934
882.757	22687
882.883	22847
883.01	22774
883.136	22744
883.262	22588
883.388	22443
883.514	22713
883.64	22748
883.766	22702
883.892	22538
884.018	22523
884.143	22710
884.269	22858
884.395	22603
884.52	22382
884.646	22466
884.772	22394
884.897	22371
885.023	22512
885.148	22367
885.274	22500
885.399	22432
885.524	22360
885.65	22390
885.775	22390
885.9	22329
886.025	22394
886.15	22481
886.275	22474
886.4	22242
886.525	22352
886.65	22447
886.775	22318
886.9	22535
887.025	22413
887.149	22318
887.274	22063
887.399	22169
887.523	22124
887.648	22086
887.773	22013
887.897	22158
888.021	22188
888.146	22097
888.27	22207
888.395	22253
888.519	22211
888.643	22147
888.767	22188
888.891	22101
889.015	21915
889.139	21972
889.263	21953
889.387	21956
889.511	22101
889.635	21983
889.759	21960
889.883	21922
890.006	21895
890.13	22025
890.254	21812
890.377	21819
890.501	21618
890.624	21759
890.748	21732
890.871	21458
890.995	21355
891.118	21473
891.241	21481
891.364	21500
891.488	21538
891.611	21511
891.734	21450
891.857	21542
891.98	21485
892.103	21519
892.226	21420
892.349	21382
892.471	21279
892.594	21454
892.717	21348
892.839	21351
892.962	21370
893.085	21462
893.207	21287
893.33	21173
893.452	21226
893.575	21435
893.697	21408
893.819	21526
893.941	21606
894.064	21420
894.186	21275
894.308	21214
894.43	21405
894.552	21431
894.674	21401
894.796	21230
894.918	21408
895.04	21298
895.161	21332
895.283	21435
895.405	21283
895.526	21370
895.648	21302
895.769	21306
895.891	21458
896.012	21348
896.134	21329
896.255	21310
896.376	21325
896.498	21275
896.619	21252
896.74	21283
896.861	21313
896.982	21709
897.103	21667
897.224	21705
897.345	21545
897.466	21549
897.587	21416
897.708	21564
897.828	21625
897.949	21424
898.07	21405
898.19	21488
898.311	21511
898.431	21496
898.552	21572
898.672	21519
898.792	21819
898.913	21431
899.033	21443
899.153	21332
899.273	21161
899.393	21268
899.513	21260
899.633	21272
899.753	21272
899.873	21264
899.993	21233
900.113	21203
900.232	21176
900.352	21047
900.472	21017
900.591	21009
900.711	20929
900.83	20834
900.95	21055
901.069	21013
901.189	20887
901.308	20674
901.427	20583
901.546	20564
901.665	20492
901.784	20552
901.904	20389
902.023	20396
902.141	20164
902.26	20020
902.379	20164
902.498	20012
902.617	19913
902.735	20100
902.854	20096
902.973	19925
903.091	19803
903.21	19765
903.328	19655
903.446	19540
903.565	19563
903.683	19586
903.801	19457
903.919	19377
904.038	19521
904.156	19255
904.274	19373
904.392	19266
904.51	19324
904.627	19221
904.745	19301
904.863	19297
904.981	19122
905.098	18916
905.216	18878
905.334	19015
905.451	18897
905.569	19057
905.686	18939
905.803	18993
905.921	18745
906.038	18776
906.155	18757
906.272	18418
906.389	18700
906.506	18467
906.623	18506
906.74	18509
906.857	18311
906.974	18361
907.091	18490
907.208	18521
907.324	18422
907.441	18395
907.557	18163
907.674	18220
907.79	18102
907.907	18125
908.023	18076
908.139	18136
908.256	18163
908.372	18110
908.488	18015
908.604	17973
908.72	17893
908.836	17882
908.952	17783
909.068	17832
909.184	17939
909.3	17916
909.415	17916
909.531	17851
909.647	17634
909.762	17611
909.878	17649
909.993	17516
910.108	17596
910.224	17459
910.339	17611
910.454	17577
910.57	17417
910.685	17273
910.8	17615
910.915	17509
911.03	17429
911.145	17204
911.259	17124
911.374	17162
911.489	17155
911.604	17037
911.718	16850
911.833	16850
911.947	16805
912.062	16767
912.176	16839
912.291	16976
912.405	16911
912.519	17117
912.633	17124
912.748	16961
912.862	16847
912.976	16653
913.09	16542
913.204	16736
913.318	16641
913.431	16816
913.545	16687
913.659	16729
913.772	16626
913.886	16519
914	16432
914.113	16554
914.226	16626
914.34	16561
914.453	16352
914.566	16409
914.68	16398
914.793	16280
914.906	16105
915.019	16051
915.132	16040
915.245	16086
915.358	16120
915.47	15994
915.583	16051
915.696	15987
915.809	16124
915.921	16143
916.034	15979
916.146	15964
916.259	15857
916.371	16051
916.483	15911
916.595	15804
916.708	15861
916.82	15819
916.932	15797
917.044	15789
917.156	15857
917.268	15736
917.38	15755
917.491	15606
917.603	15633
917.715	15698
917.826	15739
917.938	15568
918.049	15469
918.161	15637
918.272	15610
918.384	15686
918.495	15576
918.606	15492
918.717	15428
918.828	15507
918.939	15504
919.05	15351
919.161	15485
919.272	15131
919.383	15157
919.494	15447
919.604	15591
919.715	15367
919.826	15405
919.936	15332
920.047	15439
920.157	15348
920.267	15496
920.378	15321
920.488	15393
920.598	15515
920.708	15660
920.818	15435
920.928	15595
921.038	15622
921.148	15553
921.258	15317
921.368	15173
921.477	15051
921.587	15032
921.697	14975
921.806	15039
921.916	14891
922.025	14800
922.134	14773
922.244	14731
922.353	14811
922.462	14606
922.571	14511
922.68	14415
922.789	14282
922.898	14396
923.007	14374
923.116	14461
923.224	14317
923.333	14267
923.442	14275
923.55	14142
923.659	14092
923.767	14248
923.876	14100
923.984	14199
924.092	14077
924.201	14050
924.309	14073
924.417	14069
924.525	13921
924.633	14001
924.741	14872
924.849	13807
924.956	14005
925.064	13841
925.172	13704
925.279	13750
925.387	13811
925.494	13734
925.602	13769
925.709	13772
925.816	13636
925.924	13696
926.031	13776
926.138	13651
926.245	13674
926.352	13624
926.459	13700
926.566	13636
926.673	13468
926.779	13502
926.886	13445
926.993	13190
927.099	13206
927.206	13175
927.312	13187
927.419	13335
927.525	13324
927.631	13350
927.737	13156
927.843	13031
927.95	12977
928.056	13088
928.162	13088
928.267	13038
928.373	13693
928.479	13046
928.585	12897
928.69	13061
928.796	13019
928.901	12977
929.007	12837
929.112	12935
929.218	12871
929.323	12905
929.428	12734
929.533	12989
929.638	12669
929.743	12779
929.848	12791
929.953	12749
930.058	12673
930.163	12422
930.267	12414
930.372	12532
930.477	12357
930.581	12601
930.685	12483
930.79	12201
930.894	12395
930.998	12308
931.103	12410
931.207	12091
931.311	12003
931.415	11779
931.519	11668
931.623	11615
