Data from test_V78500241_1160.txt Node
Date: Fri Mar 25 15:49:50 CST 2022
User: usil
Spectrometer: V785-0024
Trigger mode: 0
Integration Time (sec): 4.000000E-1
Scans to average: 1
Nonlinearity correction enabled: false
Boxcar width: 0
Storing dark spectrum: false
XAxis mode: Wavelengths
Number of Pixels in Spectrum: 1024
>>>>>Begin Spectral Data<<<<<
801.071	28462
801.214	28394
801.356	28158
801.499	28013
801.641	28063
801.783	28109
801.926	28135
802.068	27975
802.211	28109
802.353	27831
802.496	27804
802.638	27610
802.78	27656
802.923	27564
803.065	27724
803.208	27641
803.35	27736
803.492	27972
803.635	27816
803.777	27838
803.919	27979
804.061	28200
804.204	27972
804.346	27918
804.488	27812
804.63	27842
804.773	27918
804.915	27903
805.057	28010
805.199	27960
805.341	27979
805.483	28063
805.626	28112
805.768	27930
805.91	28059
806.052	28048
806.194	28086
806.336	28356
806.478	28211
806.62	28341
806.762	28291
806.904	28352
807.046	28538
807.188	28447
807.33	28637
807.472	28653
807.614	28447
807.756	28508
807.898	28474
808.04	28432
808.182	28398
808.324	28500
808.465	28577
808.607	28717
808.749	28843
808.891	28866
809.033	28987
809.174	28888
809.316	28801
809.458	28873
809.6	28778
809.741	28911
809.883	28953
810.025	29132
810.166	29174
810.308	29151
810.45	29094
810.591	29128
810.733	28946
810.875	28740
811.016	28626
811.158	28839
811.299	28968
811.441	28885
811.582	28968
811.724	28854
811.865	28915
812.007	28869
812.148	28752
812.29	28953
812.431	29094
812.573	29200
812.714	29398
812.855	29296
812.997	29280
813.138	29551
813.279	29528
813.421	29558
813.562	29273
813.703	29280
813.845	29086
813.986	28953
814.127	28687
814.268	28561
814.41	28630
814.551	28497
814.692	28622
814.833	28531
814.974	28489
815.115	28649
815.256	28443
815.397	28550
815.539	28497
815.68	28268
815.821	28067
815.962	28447
816.103	28291
816.244	28093
816.385	28173
816.526	28223
816.666	27869
816.807	27785
816.948	27827
817.089	28082
817.23	27785
817.371	27854
817.512	27903
817.653	27816
817.793	27842
817.934	27888
818.075	27808
818.216	27800
818.356	27895
818.497	27747
818.638	27523
818.778	27660
818.919	27549
819.06	27724
819.2	27766
819.341	27816
819.481	27747
819.622	28086
819.762	28185
819.903	28036
820.043	27975
820.184	28086
820.324	28010
820.465	28078
820.605	28021
820.746	27953
820.886	27865
821.026	27964
821.167	27876
821.307	28017
821.447	27895
821.588	27800
821.728	27618
821.868	27367
822.008	27389
822.149	27397
822.289	27287
822.429	27062
822.569	27085
822.709	27188
822.849	26815
822.99	26861
823.13	26807
823.27	26891
823.41	26636
823.55	26678
823.69	26651
823.83	26800
823.97	26495
824.11	26408
824.25	26511
824.389	26526
824.529	26594
824.669	26629
824.809	26556
824.949	26571
825.089	26590
825.228	26674
825.368	26305
825.508	26347
825.648	26537
825.787	26389
825.927	26282
826.067	26442
826.206	26343
826.346	26465
826.485	26522
826.625	26469
826.765	26370
826.904	26423
827.044	26225
827.183	26077
827.323	26016
827.462	26233
827.601	26062
827.741	25986
827.88	26164
828.02	26065
828.159	26069
828.298	26088
828.437	26119
828.577	26031
828.716	26161
828.855	26016
828.994	25879
829.134	25864
829.273	25704
829.412	25681
829.551	25689
829.69	25719
829.829	25856
829.968	25871
830.107	25795
830.246	25871
830.385	25734
830.524	25620
830.663	25696
830.802	25556
830.941	25327
831.08	25358
831.219	25411
831.357	25426
831.496	25658
831.635	25327
831.774	25236
831.913	25335
832.051	25168
832.19	25179
832.329	25133
832.467	25027
832.606	24981
832.744	25008
832.883	25152
833.022	25057
833.16	25107
833.299	25194
833.437	25118
833.576	25164
833.714	25148
833.852	25069
833.991	25190
834.129	25156
834.267	25232
834.406	25137
834.544	25015
834.682	25168
834.821	25133
834.959	25266
835.097	25027
835.235	25168
835.373	25171
835.511	25008
835.65	25065
835.788	25019
835.926	24878
836.064	24764
836.202	24798
836.34	24977
836.478	25065
836.615	24852
836.753	24894
836.891	24958
837.029	25008
837.167	24924
837.305	24859
837.443	24821
837.58	24802
837.718	24795
837.856	24806
837.993	24749
838.131	24840
838.269	24665
838.406	24616
838.544	24456
838.681	24452
838.819	24407
838.956	24281
839.094	24311
839.231	24247
839.369	24384
839.506	24703
839.643	24365
839.781	24205
839.918	24049
840.055	24285
840.193	24232
840.33	24243
840.467	24243
840.604	24365
840.742	24437
840.879	24079
841.016	24171
841.153	24129
841.29	24270
841.427	24125
841.564	24003
841.701	24209
841.838	24011
841.975	24034
842.112	24072
842.249	24057
842.385	23882
842.522	24178
842.659	24053
842.796	23904
842.933	23992
843.069	23897
843.206	23832
843.343	24011
843.479	23923
843.616	23855
843.752	23668
843.889	23767
844.025	23923
844.162	23657
844.298	23798
844.435	23718
844.571	23543
844.708	23760
844.844	23843
844.98	23771
845.117	23847
845.253	23562
845.389	23501
845.525	23554
845.661	23459
845.798	23391
845.934	23440
846.07	23414
846.206	23505
846.342	23619
846.478	23273
846.614	23269
846.75	23033
846.886	23143
847.022	23200
847.158	23170
847.294	23220
847.429	23242
847.565	23086
847.701	23387
847.837	22923
847.972	22759
848.108	22885
848.244	22987
848.379	22740
848.515	22786
848.65	22622
848.786	22729
848.921	22778
849.057	22782
849.192	22873
849.328	22725
849.463	22771
849.598	22679
849.734	22618
849.869	22516
850.004	22565
850.14	22561
850.275	22550
850.41	22443
850.545	22386
850.68	22386
850.815	22618
850.95	22413
851.085	22721
851.22	22717
851.355	22554
851.49	22390
851.625	22432
851.76	22516
851.895	22421
852.03	22424
852.165	22656
852.299	22565
852.434	22592
852.569	22462
852.703	22489
852.838	22440
852.973	22683
853.107	22588
853.242	22375
853.376	22341
853.511	22200
853.645	22242
853.78	22398
853.914	22310
854.048	22306
854.183	22234
854.317	22230
854.451	22470
854.585	22249
854.72	22306
854.854	22375
854.988	22105
855.122	22295
855.256	22177
855.39	22265
855.524	22310
855.658	22344
855.792	22242
855.926	22276
856.06	22481
856.194	22440
856.327	22314
856.461	22226
856.595	22162
856.729	22329
856.862	22299
856.996	22242
857.13	22341
857.263	22333
857.397	22360
857.53	22234
857.664	22382
857.797	22371
857.931	22390
858.064	22333
858.197	22382
858.331	22375
858.464	22242
858.597	22268
858.731	22284
858.864	22238
858.997	22226
859.13	22394
859.263	22352
859.396	22409
859.529	22211
859.662	22265
859.795	22337
859.928	22272
860.061	22367
860.194	22424
860.327	22291
860.46	22382
860.592	22436
860.725	22382
860.858	22440
860.99	22204
861.123	22207
861.256	22261
861.388	22310
861.521	22984
861.653	22112
861.786	22044
861.918	22067
862.05	22223
862.183	22204
862.315	22185
862.447	22238
862.58	22261
862.712	22128
862.844	21911
862.976	22109
863.108	22211
863.24	22432
863.372	21983
863.504	21983
863.636	21975
863.768	21846
863.9	22013
864.032	21857
864.164	22002
864.296	22097
864.428	22158
864.559	22112
864.691	22055
864.823	22086
864.954	22013
865.086	21884
865.217	21922
865.349	21755
865.48	21941
865.612	21895
865.743	22055
865.875	21983
866.006	21831
866.137	21960
866.269	22082
866.4	21915
866.531	21781
866.662	21724
866.793	21690
866.924	21743
867.055	21869
867.186	21873
867.317	21671
867.448	21694
867.579	21770
867.71	21637
867.841	21698
867.972	21888
868.103	21633
868.233	21812
868.364	21850
868.495	21899
868.625	21903
868.756	22147
868.886	21964
869.017	22044
869.147	22139
869.278	22154
869.408	22067
869.539	21994
869.669	22139
869.799	22192
869.929	22219
870.06	22181
870.19	22325
870.32	22295
870.45	22348
870.58	22504
870.71	22516
870.84	22519
870.97	22242
871.1	22527
871.23	22675
871.36	22717
871.489	22565
871.619	22557
871.749	22653
871.879	22713
872.008	22797
872.138	22679
872.267	22622
872.397	22481
872.526	22413
872.656	22561
872.785	22531
872.915	22744
873.044	22736
873.173	22668
873.303	22736
873.432	22668
873.561	22698
873.69	22702
873.819	22637
873.948	22653
874.077	22653
874.206	22554
874.335	22615
874.464	22790
874.593	22877
874.722	22858
874.851	23075
874.979	22923
875.108	22984
875.237	22816
875.365	22717
875.494	22873
875.623	22946
875.751	22892
875.88	22869
876.008	22900
876.136	23105
876.265	23151
876.393	23429
876.521	23242
876.65	23387
876.778	23292
876.906	23242
877.034	23227
877.162	23216
877.29	23246
877.418	23140
877.546	23235
877.674	23181
877.802	23166
877.93	23064
878.058	23105
878.185	23193
878.313	23014
878.441	23151
878.568	23003
878.696	23166
878.824	23296
878.951	23391
879.079	23425
879.206	23429
879.333	23433
879.461	23318
879.588	23326
879.715	23486
879.842	23433
879.97	23223
880.097	23075
880.224	22854
880.351	23094
880.478	23025
880.605	22965
880.732	23075
880.859	23277
880.986	22968
881.112	22854
881.239	22946
881.366	22797
881.493	22687
881.619	22569
881.746	22637
881.872	22554
881.999	22653
882.125	22603
882.252	22653
882.378	22573
882.505	22687
882.631	22596
882.757	22287
882.883	22356
883.01	22363
883.136	22185
883.262	22135
883.388	22116
883.514	22211
883.64	22303
883.766	22226
883.892	22131
884.018	22185
884.143	22192
884.269	22284
884.395	22059
884.52	21922
884.646	21949
884.772	21892
884.897	21895
885.023	21998
885.148	22029
885.274	22044
885.399	22059
885.524	21975
885.65	21987
885.775	21865
885.9	21739
886.025	21972
886.15	21846
886.275	21842
886.4	21705
886.525	21865
886.65	21926
886.775	21778
886.9	21892
887.025	22078
887.149	21880
887.274	21728
887.399	21675
887.523	21751
887.648	21587
887.773	21603
887.897	21705
888.021	21644
888.146	21686
888.27	21720
888.395	21732
888.519	21660
888.643	21682
888.767	21713
888.891	21580
889.015	21583
889.139	21580
889.263	21450
889.387	21564
889.511	21652
889.635	21637
889.759	21454
889.883	21393
890.006	21538
890.13	21481
890.254	21359
890.377	21241
890.501	21142
890.624	21112
890.748	21275
890.871	21112
890.995	20960
891.118	20883
891.241	20990
891.364	21047
891.488	21108
891.611	20975
891.734	20960
891.857	21070
891.98	20998
892.103	20914
892.226	21051
892.349	20944
892.471	20781
892.594	20868
892.717	20910
892.839	20910
892.962	20975
893.085	21009
893.207	20872
893.33	20830
893.452	20788
893.575	20941
893.697	20895
893.819	20967
893.941	21081
894.064	21005
894.186	20853
894.308	20754
894.43	20948
894.552	20906
894.674	20971
894.796	20823
894.918	20823
895.04	20781
895.161	20967
895.283	20910
895.405	20861
895.526	20971
895.648	20838
895.769	20834
895.891	20982
896.012	20921
896.134	20956
896.255	20906
896.376	20769
896.498	20925
896.619	20880
896.74	20830
896.861	20941
896.982	21211
897.103	21344
897.224	21184
897.345	21043
897.466	21058
897.587	21005
897.708	21203
897.828	21074
897.949	21017
898.07	20960
898.19	20967
898.311	21112
898.431	20941
898.552	21055
898.672	21108
898.792	21169
898.913	21127
899.033	20994
899.153	20895
899.273	20876
899.393	20857
899.513	20746
899.633	20891
899.753	20853
899.873	20815
899.993	20899
900.113	20807
900.232	20842
900.352	20724
900.472	20689
900.591	20640
900.711	20587
900.83	20568
900.95	20651
901.069	20640
901.189	20579
901.308	20176
901.427	20100
901.546	20077
901.665	20271
901.784	20084
901.904	20107
902.023	20016
902.141	19674
902.26	19696
902.379	19750
902.498	19601
902.617	19708
902.735	19727
902.854	19674
902.973	19563
903.091	19362
903.21	19362
903.328	19263
903.446	19156
903.565	19145
903.683	19110
903.801	19107
903.919	19129
904.038	19084
904.156	18928
904.274	19023
904.392	18856
904.51	18871
904.627	18871
904.745	18848
904.863	18966
904.981	18620
905.098	18589
905.216	18547
905.334	18639
905.451	18623
905.569	18486
905.686	18566
905.803	18593
905.921	18361
906.038	18441
906.155	18384
906.272	18167
906.389	18216
906.506	18083
906.623	18125
906.74	18072
906.857	18015
906.974	17916
907.091	18148
907.208	18129
907.324	18117
907.441	18030
907.557	17828
907.674	17870
907.79	17718
907.907	17745
908.023	17828
908.139	17798
908.256	17707
908.372	17691
908.488	17672
908.604	17532
908.72	17528
908.836	17440
908.952	17425
909.068	17493
909.184	17630
909.3	17471
909.415	17452
909.531	17497
909.647	17223
909.762	17197
909.878	17178
909.993	17235
910.108	17261
910.224	17159
910.339	17166
910.454	17025
910.57	17067
910.685	16919
910.8	17159
910.915	17162
911.03	17003
911.145	16786
911.259	16793
911.374	16774
911.489	16717
911.604	16626
911.718	16478
911.833	16577
911.947	16531
912.062	16382
912.176	16592
912.291	16478
912.405	16580
912.519	16835
912.633	16782
912.748	16519
912.862	16504
912.976	16303
913.09	16246
913.204	16265
913.318	16363
913.431	16413
913.545	16421
913.659	16489
913.772	16173
913.886	16135
914	16120
914.113	16318
914.226	16219
914.34	16219
914.453	16006
914.566	16139
914.68	16082
914.793	16010
914.906	15846
915.019	15743
915.132	15686
915.245	15679
915.358	15713
915.47	15701
915.583	15675
915.696	15789
915.809	15861
915.921	15884
916.034	15576
916.146	15572
916.259	15614
916.371	15682
916.483	15652
916.595	15545
916.708	15526
916.82	15614
916.932	15507
917.044	15485
917.156	15412
917.268	15317
917.38	15416
917.491	15367
917.603	15374
917.715	15386
917.826	15382
917.938	15222
918.049	15241
918.161	15275
918.272	15420
918.384	15386
918.495	15294
918.606	15192
918.717	15036
918.828	15188
918.939	15127
919.05	14975
919.161	15127
919.272	14861
919.383	14899
919.494	15116
919.604	15192
919.715	15036
919.826	14910
919.936	14998
920.047	15081
920.157	15100
920.267	15260
920.378	15055
920.488	15036
920.598	15226
920.708	15401
920.818	15157
920.928	15074
921.038	15294
921.148	15363
921.258	14967
921.368	14914
921.477	14811
921.587	14746
921.697	14720
921.806	14773
921.916	14750
922.025	14381
922.134	14415
922.244	14381
922.353	14446
922.462	14206
922.571	14218
922.68	14024
922.789	14043
922.898	14164
923.007	14024
923.116	14058
923.224	14031
923.333	13906
923.442	13925
923.55	13909
923.659	13944
923.767	13879
923.876	13704
923.984	13909
924.092	13685
924.201	13769
924.309	13845
924.417	13742
924.525	13609
924.633	13605
924.741	14473
924.849	13525
924.956	13750
925.064	13483
925.172	13369
925.279	13468
925.387	13476
925.494	13445
925.602	13609
925.709	13400
925.816	13369
925.924	13400
926.031	13434
926.138	13388
926.245	13411
926.352	13308
926.459	13354
926.566	13445
926.673	13289
926.779	13247
926.886	13206
926.993	13023
927.099	13027
927.206	13004
927.312	12989
927.419	13069
927.525	13004
927.631	12985
927.737	12882
927.843	12924
927.95	12772
928.056	12829
928.162	12863
928.267	12867
928.373	13499
928.479	12909
928.585	12639
928.69	12711
928.796	12779
928.901	12582
929.007	12521
929.112	12703
929.218	12612
929.323	12559
929.428	12445
929.533	12639
929.638	12388
929.743	12433
929.848	12467
929.953	12513
930.058	12319
930.163	12216
930.267	12178
930.372	12311
930.477	12178
930.581	12346
930.685	12201
930.79	12098
930.894	12136
930.998	12038
931.103	12205
931.207	11885
931.311	11695
931.415	11589
931.519	11406
931.623	11349
