Data from test_V78500241_6.txt Node
Date: Fri Mar 25 15:41:50 CST 2022
User: usil
Spectrometer: V785-0024
Trigger mode: 0
Integration Time (sec): 4.000000E-1
Scans to average: 1
Nonlinearity correction enabled: false
Boxcar width: 0
Storing dark spectrum: false
XAxis mode: Wavelengths
Number of Pixels in Spectrum: 1024
>>>>>Begin Spectral Data<<<<<
801.071	27241
801.214	27017
801.356	26754
801.499	26617
801.641	26549
801.783	26590
801.926	26674
802.068	26362
802.211	26294
802.353	26408
802.496	26206
802.638	26157
802.78	26096
802.923	25966
803.065	25944
803.208	25932
803.35	26058
803.492	26145
803.635	26096
803.777	26016
803.919	26035
804.061	26362
804.204	26054
804.346	26027
804.488	25753
804.63	26035
804.773	25833
804.915	26012
805.057	26088
805.199	25944
805.341	26039
805.483	26073
805.626	26164
805.768	26024
805.91	25997
806.052	26107
806.194	26046
806.336	26313
806.478	26107
806.62	26005
806.762	26096
806.904	26248
807.046	26438
807.188	26317
807.33	26415
807.472	26446
807.614	26263
807.756	26286
807.898	26206
808.04	26191
808.182	26065
808.324	26043
808.465	26183
808.607	26374
808.749	26419
808.891	26457
809.033	26507
809.174	26541
809.316	26343
809.458	26442
809.6	26381
809.741	26484
809.883	26571
810.025	26457
810.166	26800
810.308	26659
810.45	26583
810.591	26488
810.733	26370
810.875	26412
811.016	26161
811.158	26252
811.299	26393
811.441	26499
811.582	26571
811.724	26320
811.865	26301
812.007	26278
812.148	26221
812.29	26339
812.431	26473
812.573	26587
812.714	26625
812.855	26720
812.997	26857
813.138	27020
813.279	26906
813.421	26758
813.562	26811
813.703	26518
813.845	26434
813.986	26100
814.127	25845
814.268	25875
814.41	25795
814.551	25959
814.692	25826
814.833	25894
814.974	25765
815.115	25799
815.256	25780
815.397	25548
815.539	25582
815.68	25590
815.821	25460
815.962	25556
816.103	25381
816.244	25377
816.385	25297
816.526	25228
816.666	25095
816.807	24958
816.948	24954
817.089	25019
817.23	24856
817.371	24901
817.512	24894
817.653	24890
817.793	24821
817.934	24958
818.075	24829
818.216	24878
818.356	24719
818.497	24814
818.638	24490
818.778	24490
818.919	24642
819.06	24555
819.2	24547
819.341	24642
819.481	24661
819.622	24848
819.762	25008
819.903	25137
820.043	24939
820.184	24738
820.324	24867
820.465	24814
820.605	24859
820.746	24871
820.886	24597
821.026	24825
821.167	24753
821.307	24852
821.447	24612
821.588	24681
821.728	24551
821.868	24380
822.008	24136
822.149	24197
822.289	24186
822.429	23935
822.569	23878
822.709	23840
822.849	23627
822.99	23703
823.13	23516
823.27	23493
823.41	23425
823.55	23326
823.69	23398
823.83	23326
823.97	23326
824.11	23159
824.25	23083
824.389	23143
824.529	23239
824.669	23162
824.809	23265
824.949	23311
825.089	23174
825.228	23090
825.368	22942
825.508	22835
825.648	23022
825.787	22774
825.927	22953
826.067	22965
826.206	22957
826.346	22816
826.485	23025
826.625	22900
826.765	22999
826.904	22881
827.044	22645
827.183	22672
827.323	22382
827.462	22607
827.601	22527
827.741	22497
827.88	22519
828.02	22409
828.159	22569
828.298	22466
828.437	22588
828.577	22451
828.716	22611
828.855	22485
828.994	22162
829.134	22352
829.273	22314
829.412	22284
829.551	22211
829.69	22215
829.829	22177
829.968	22211
830.107	22306
830.246	22246
830.385	22143
830.524	22067
830.663	21972
830.802	21865
830.941	21835
831.08	21732
831.219	21808
831.357	21785
831.496	21895
831.635	21755
831.774	21705
831.913	21545
832.051	21633
832.19	21447
832.329	21477
832.467	21439
832.606	21367
832.744	21382
832.883	21313
833.022	21492
833.16	21359
833.299	21355
833.437	21298
833.576	21370
833.714	21374
833.852	21458
833.991	21473
834.129	21393
834.267	21523
834.406	21268
834.544	21397
834.682	21393
834.821	21256
834.959	21549
835.097	21264
835.235	21397
835.373	21389
835.511	21370
835.65	21252
835.788	21138
835.926	21119
836.064	21013
836.202	21017
836.34	21192
836.478	21218
836.615	21275
836.753	21199
836.891	21264
837.029	21161
837.167	21127
837.305	21173
837.443	20967
837.58	21047
837.718	20963
837.856	21184
837.993	21039
838.131	21127
838.269	20929
838.406	21024
838.544	20971
838.681	20686
838.819	20682
838.956	20541
839.094	20530
839.231	20689
839.369	20735
839.506	20937
839.643	20602
839.781	20522
839.918	20419
840.055	20476
840.193	20343
840.33	20366
840.467	20404
840.604	20549
840.742	20625
840.879	20324
841.016	20366
841.153	20347
841.29	20488
841.427	20404
841.564	20488
841.701	20476
841.838	20313
841.975	20320
842.112	20351
842.249	20240
842.385	20122
842.522	20313
842.659	20172
842.796	20153
842.933	20065
843.069	20119
843.206	20001
843.343	20161
843.479	20054
843.616	20100
843.752	19925
843.889	19761
844.025	20020
844.162	19788
844.298	19913
844.435	19852
844.571	19746
844.708	19864
844.844	19955
844.98	20008
845.117	20024
845.253	19734
845.389	19662
845.525	19715
845.661	19731
845.798	19552
845.934	19643
846.07	19499
846.206	19700
846.342	19662
846.478	19480
846.614	19259
846.75	19289
846.886	19168
847.022	19388
847.158	19301
847.294	19278
847.429	19270
847.565	19183
847.701	19449
847.837	18996
847.972	18996
848.108	19103
848.244	19107
848.379	18905
848.515	18867
848.65	18810
848.786	18859
848.921	18806
849.057	18954
849.192	18939
849.328	18829
849.463	18852
849.598	18722
849.734	18779
849.869	18635
850.004	18544
850.14	18677
850.275	18570
850.41	18502
850.545	18483
850.68	18574
850.815	18585
850.95	18650
851.085	18681
851.22	18650
851.355	18738
851.49	18467
851.625	18498
851.76	18319
851.895	18418
852.03	18433
852.165	18547
852.299	18631
852.434	18460
852.569	18601
852.703	18483
852.838	18585
852.973	18787
853.107	18642
853.242	18589
853.376	18338
853.511	18289
853.645	18292
853.78	18445
853.914	18357
854.048	18296
854.183	18247
854.317	18357
854.451	18460
854.585	18201
854.72	18338
854.854	18361
854.988	18197
855.122	18315
855.256	18232
855.39	18270
855.524	18532
855.658	18418
855.792	18262
855.926	18414
856.06	18273
856.194	18555
856.327	18475
856.461	18357
856.595	18315
856.729	18323
856.862	18410
856.996	18391
857.13	18422
857.263	18357
857.397	18414
857.53	18262
857.664	18311
857.797	18441
857.931	18418
858.064	18361
858.197	18475
858.331	18292
858.464	18216
858.597	18243
858.731	18205
858.864	18247
858.997	18292
859.13	18323
859.263	18216
859.396	18399
859.529	18251
859.662	18281
859.795	18247
859.928	18304
860.061	18441
860.194	18437
860.327	18273
860.46	18220
860.592	18281
860.725	18399
860.858	18380
860.99	18350
861.123	18125
861.256	18125
861.388	18254
861.521	18798
861.653	18117
861.786	18091
861.918	18159
862.05	18304
862.183	18262
862.315	18330
862.447	18338
862.58	18338
862.712	18060
862.844	18049
862.976	18076
863.108	18015
863.24	18376
863.372	17999
863.504	17984
863.636	17942
863.768	18072
863.9	17973
864.032	17912
864.164	17889
864.296	17920
864.428	18152
864.559	18079
864.691	18121
864.823	18049
864.954	17965
865.086	17980
865.217	17958
865.349	17920
865.48	17840
865.612	17935
865.743	18057
865.875	18034
866.006	17843
866.137	17942
866.269	17901
866.4	17916
866.531	17851
866.662	17824
866.793	17745
866.924	17908
867.055	17939
867.186	17851
867.317	17882
867.448	17710
867.579	17726
867.71	17809
867.841	17764
867.972	17912
868.103	17863
868.233	17855
868.364	17817
868.495	17965
868.625	18117
868.756	18186
868.886	18019
869.017	18091
869.147	18220
869.278	18182
869.408	18133
869.539	18015
869.669	18152
869.799	18159
869.929	18216
870.06	18129
870.19	18483
870.32	18452
870.45	18483
870.58	18479
870.71	18627
870.84	18608
870.97	18483
871.1	18407
871.23	18700
871.36	18757
871.489	18620
871.619	18726
871.749	18639
871.879	18669
872.008	18833
872.138	18719
872.267	18677
872.397	18627
872.526	18555
872.656	18517
872.785	18555
872.915	18753
873.044	18795
873.173	18791
873.303	18741
873.432	18787
873.561	18909
873.69	18642
873.819	18738
873.948	18810
874.077	18802
874.206	18681
874.335	18871
874.464	18935
874.593	19088
874.722	18897
874.851	18996
874.979	19053
875.108	18993
875.237	19118
875.365	19015
875.494	18996
875.623	19091
875.751	18932
875.88	19019
876.008	19145
876.136	19289
876.265	19472
876.393	19571
876.521	19594
876.65	19499
876.778	19403
876.906	19369
877.034	19369
877.162	19457
877.29	19365
877.418	19457
877.546	19506
877.674	19324
877.802	19327
877.93	19407
878.058	19335
878.185	19297
878.313	19438
878.441	19434
878.568	19129
878.696	19396
878.824	19483
878.951	19453
879.079	19544
879.206	19753
879.333	19537
879.461	19460
879.588	19502
879.715	19575
879.842	19613
879.97	19540
880.097	19137
880.224	19164
880.351	19327
880.478	19320
880.605	19255
880.732	19228
880.859	19445
880.986	19141
881.112	19297
881.239	19168
881.366	19015
881.493	18996
881.619	18848
881.746	18817
881.872	18947
881.999	18890
882.125	18745
882.252	18954
882.378	18886
882.505	19145
882.631	18779
882.757	18696
882.883	18635
883.01	18639
883.136	18582
883.262	18479
883.388	18483
883.514	18635
883.64	18563
883.766	18627
883.892	18456
884.018	18502
884.143	18608
884.269	18726
884.395	18429
884.52	18448
884.646	18357
884.772	18266
884.897	18216
885.023	18254
885.148	18395
885.274	18589
885.399	18506
885.524	18437
885.65	18380
885.775	18319
885.9	18304
886.025	18486
886.15	18391
886.275	18182
886.4	18197
886.525	18273
886.65	18121
886.775	18235
886.9	18350
887.025	18502
887.149	18365
887.274	18034
887.399	18091
887.523	18133
887.648	18030
887.773	17904
887.897	18194
888.021	18076
888.146	17999
888.27	18213
888.395	18186
888.519	18102
888.643	18136
888.767	18117
888.891	18011
889.015	17939
889.139	17897
889.263	17866
889.387	17935
889.511	18076
889.635	17988
889.759	17805
889.883	17767
890.006	17931
890.13	17969
890.254	17760
890.377	17726
890.501	17592
890.624	17539
890.748	17657
890.871	17562
890.995	17440
891.118	17444
891.241	17474
891.364	17509
891.488	17661
891.611	17535
891.734	17482
891.857	17577
891.98	17585
892.103	17676
892.226	17486
892.349	17421
892.471	17277
892.594	17395
892.717	17490
892.839	17547
892.962	17391
893.085	17547
893.207	17406
893.33	17364
893.452	17372
893.575	17577
893.697	17512
893.819	17558
893.941	17707
894.064	17634
894.186	17395
894.308	17482
894.43	17539
894.552	17745
894.674	17589
894.796	17353
894.918	17349
895.04	17509
895.161	17501
895.283	17440
895.405	17421
895.526	17497
895.648	17486
895.769	17589
895.891	17638
896.012	17665
896.134	17589
896.255	17528
896.376	17581
896.498	17547
896.619	17600
896.74	17634
896.861	17680
896.982	17923
897.103	18091
897.224	17874
897.345	17813
897.466	17916
897.587	17767
897.708	17942
897.828	17824
897.949	17775
898.07	17703
898.19	17703
898.311	17916
898.431	17783
898.552	17893
898.672	17916
898.792	17855
898.913	17866
899.033	17745
899.153	17585
899.273	17615
899.393	17691
899.513	17596
899.633	17463
899.753	17539
899.873	17505
899.993	17577
900.113	17421
900.232	17547
900.352	17535
900.472	17474
900.591	17337
900.711	17440
900.83	17406
900.95	17497
901.069	17524
901.189	17318
901.308	17045
901.427	17041
901.546	17086
901.665	17090
901.784	17010
901.904	16927
902.023	16748
902.141	16527
902.26	16523
902.379	16683
902.498	16546
902.617	16485
902.735	16542
902.854	16565
902.973	16470
903.091	16139
903.21	16253
903.328	16295
903.446	16166
903.565	16021
903.683	16093
903.801	15987
903.919	16010
904.038	15960
904.156	15778
904.274	15827
904.392	15873
904.51	15835
904.627	15720
904.745	15861
904.863	15953
904.981	15717
905.098	15462
905.216	15519
905.334	15534
905.451	15488
905.569	15447
905.686	15568
905.803	15428
905.921	15291
906.038	15416
906.155	15237
906.272	15199
906.389	15184
906.506	15043
906.623	15066
906.74	15032
906.857	14952
906.974	14937
907.091	15081
907.208	15131
907.324	15119
907.441	14986
907.557	14800
907.674	14750
907.79	14743
907.907	14693
908.023	14849
908.139	14754
908.256	14735
908.372	14613
908.488	14682
908.604	14396
908.72	14488
908.836	14431
908.952	14461
909.068	14541
909.184	14610
909.3	14499
909.415	14492
909.531	14480
909.647	14176
909.762	14206
909.878	14126
909.993	14138
910.108	14157
910.224	14043
910.339	14168
910.454	14077
910.57	13959
910.685	13826
910.8	14183
910.915	14153
911.03	13993
911.145	13925
911.259	13700
911.374	13822
911.489	13765
911.604	13655
911.718	13643
911.833	13620
911.947	13453
912.062	13422
912.176	13594
912.291	13578
912.405	13624
912.519	13849
912.633	13845
912.748	13571
912.862	13613
912.976	13449
913.09	13236
913.204	13403
913.318	13327
913.431	13449
913.545	13403
913.659	13525
913.772	13335
913.886	13282
914	13183
914.113	13358
914.226	13343
914.34	13251
914.453	13152
914.566	13388
914.68	13190
914.793	13164
914.906	13034
915.019	12913
915.132	12829
915.245	12939
915.358	12920
915.47	12970
915.583	12901
915.696	12932
915.809	13133
915.921	13095
916.034	12916
916.146	12897
916.259	12814
916.371	13004
916.483	12993
916.595	12863
916.708	12856
916.82	12840
916.932	12795
917.044	12825
917.156	12787
917.268	12616
917.38	12753
917.491	12601
917.603	12578
917.715	12722
917.826	12859
917.938	12639
918.049	12525
918.161	12673
918.272	12852
918.384	12711
918.495	12616
918.606	12513
918.717	12384
918.828	12479
918.939	12570
919.05	12380
919.161	12426
919.272	12239
919.383	12376
919.494	12471
919.604	12639
919.715	12456
919.826	12399
919.936	12456
920.047	12433
920.157	12384
920.267	12684
920.378	12403
920.488	12464
920.598	12597
920.708	12776
920.818	12620
920.928	12540
921.038	12776
921.148	12681
921.258	12407
921.368	12266
921.477	12220
921.587	12243
921.697	12117
921.806	12239
921.916	12072
922.025	11893
922.134	11874
922.244	11840
922.353	11977
922.462	11798
922.571	11661
922.68	11596
922.789	11570
922.898	11524
923.007	11448
923.116	11493
923.224	11455
923.333	11509
923.442	11383
923.55	11292
923.659	11353
923.767	11345
923.876	11307
923.984	11482
924.092	11284
924.201	11395
924.309	11220
924.417	11364
924.525	11265
924.633	11231
924.741	12209
924.849	11029
924.956	11155
925.064	11117
925.172	11033
925.279	10968
925.387	11067
925.494	11052
925.602	11204
925.709	11204
925.816	11033
925.924	11029
926.031	11174
926.138	11109
926.245	11117
926.352	10938
926.459	11045
926.566	11079
926.673	10976
926.779	10835
926.886	10771
926.993	10694
927.099	10740
927.206	10668
927.312	10672
927.419	10698
927.525	10714
927.631	10710
927.737	10577
927.843	10618
927.95	10512
928.056	10592
928.162	10584
928.267	10558
928.373	11223
928.479	10626
928.585	10421
928.69	10626
928.796	10588
928.901	10455
929.007	10333
929.112	10447
929.218	10424
929.323	10363
929.428	10363
929.533	10436
929.638	10204
929.743	10299
929.848	10329
929.953	10284
930.058	10196
930.163	9979
930.267	10105
930.372	10257
930.477	10013
930.581	10299
930.685	10093
930.79	9934
930.894	9937
930.998	9911
931.103	10067
931.207	9690
931.311	9660
931.415	9462
931.519	9393
931.623	9428
