Data from test_V78500241_2897.txt Node
Date: Fri Mar 25 16:01:52 CST 2022
User: usil
Spectrometer: V785-0024
Trigger mode: 0
Integration Time (sec): 4.000000E-1
Scans to average: 1
Nonlinearity correction enabled: false
Boxcar width: 0
Storing dark spectrum: false
XAxis mode: Wavelengths
Number of Pixels in Spectrum: 1024
>>>>>Begin Spectral Data<<<<<
801.071	29067
801.214	28896
801.356	28862
801.499	28653
801.641	28675
801.783	28577
801.926	28611
802.068	28717
802.211	28527
802.353	28398
802.496	28253
802.638	28295
802.78	28223
802.923	28249
803.065	28265
803.208	28017
803.35	28242
803.492	28390
803.635	28626
803.777	28462
803.919	28561
804.061	28793
804.204	28497
804.346	28481
804.488	28432
804.63	28713
804.773	28504
804.915	28706
805.057	28588
805.199	28440
805.341	28748
805.483	28843
805.626	28649
805.768	28596
805.91	28831
806.052	28687
806.194	28694
806.336	28896
806.478	28683
806.62	28820
806.762	28934
806.904	28984
807.046	29273
807.188	29018
807.33	29200
807.472	29288
807.614	29109
807.756	29162
807.898	28995
808.04	28904
808.182	29044
808.324	29159
808.465	29075
808.607	29284
808.749	29429
808.891	29577
809.033	29589
809.174	29490
809.316	29486
809.458	29452
809.6	29463
809.741	29554
809.883	29566
810.025	29870
810.166	29764
810.308	29813
810.45	29668
810.591	29760
810.733	29455
810.875	29452
811.016	29353
811.158	29372
811.299	29562
811.441	29767
811.582	29710
811.724	29554
811.865	29364
812.007	29372
812.148	29551
812.29	29395
812.431	29592
812.573	29821
812.714	29798
812.855	29999
812.997	30190
813.138	30133
813.279	30140
813.421	30068
813.562	29923
813.703	29764
813.845	29642
813.986	29528
814.127	29296
814.268	29227
814.41	29193
814.551	29174
814.692	29307
814.833	29197
814.974	29216
815.115	29265
815.256	29075
815.397	29136
815.539	29140
815.68	29014
815.821	28949
815.962	28873
816.103	28999
816.244	28831
816.385	29064
816.526	28961
816.666	28569
816.807	28645
816.948	28584
817.089	28683
817.23	28523
817.371	28481
817.512	28592
817.653	28542
817.793	28352
817.934	28493
818.075	28417
818.216	28588
818.356	28561
818.497	28443
818.638	28131
818.778	28280
818.919	28341
819.06	28432
819.2	28466
819.341	28333
819.481	28455
819.622	28675
819.762	28923
819.903	28824
820.043	28786
820.184	28774
820.324	28683
820.465	28771
820.605	28752
820.746	28656
820.886	28683
821.026	28569
821.167	28596
821.307	28664
821.447	28588
821.588	28500
821.728	28413
821.868	28143
822.008	28154
822.149	28002
822.289	28017
822.429	27568
822.569	27728
822.709	27713
822.849	27397
822.99	27500
823.13	27534
823.27	27530
823.41	27412
823.55	27245
823.69	27408
823.83	27454
823.97	27260
824.11	27028
824.25	27203
824.389	27096
824.529	27321
824.669	27157
824.809	27222
824.949	27157
825.089	27214
825.228	27256
825.368	26899
825.508	26845
825.648	27062
825.787	27161
825.927	27055
826.067	27089
826.206	27058
826.346	27241
826.485	27085
826.625	27028
826.765	27161
826.904	27062
827.044	26845
827.183	26864
827.323	26804
827.462	26933
827.601	26887
827.741	26800
827.88	26708
828.02	26712
828.159	26785
828.298	26788
828.437	26804
828.577	26785
828.716	26796
828.855	26659
828.994	26461
829.134	26537
829.273	26461
829.412	26320
829.551	26301
829.69	26457
829.829	26427
829.968	26594
830.107	26575
830.246	26488
830.385	26393
830.524	26347
830.663	26161
830.802	26237
830.941	26107
831.08	26050
831.219	26180
831.357	26210
831.496	26351
831.635	26008
831.774	25936
831.913	25982
832.051	25925
832.19	25868
832.329	25811
832.467	25765
832.606	25742
832.744	25674
832.883	25750
833.022	25712
833.16	25727
833.299	25769
833.437	25875
833.576	25746
833.714	25830
833.852	25894
833.991	25883
834.129	25989
834.267	25849
834.406	25944
834.544	25757
834.682	25928
834.821	25814
834.959	25997
835.097	25655
835.235	25788
835.373	25940
835.511	25761
835.65	25643
835.788	25590
835.926	25495
836.064	25324
836.202	25468
836.34	25586
836.478	25818
836.615	25643
836.753	25601
836.891	25677
837.029	25597
837.167	25575
837.305	25620
837.443	25506
837.58	25556
837.718	25468
837.856	25518
837.993	25381
838.131	25479
838.269	25343
838.406	25403
838.544	25365
838.681	25091
838.819	25110
838.956	24935
839.094	24882
839.231	25023
839.369	25168
839.506	25373
839.643	25057
839.781	24871
839.918	25004
840.055	24894
840.193	24901
840.33	24642
840.467	24897
840.604	24897
840.742	25137
840.879	24623
841.016	24719
841.153	24753
841.29	24878
841.427	24837
841.564	24867
841.701	24730
841.838	24719
841.975	24722
842.112	24734
842.249	24677
842.385	24509
842.522	24764
842.659	24639
842.796	24627
842.933	24597
843.069	24498
843.206	24418
843.343	24677
843.479	24650
843.616	24650
843.752	24327
843.889	24327
844.025	24399
844.162	24429
844.298	24555
844.435	24353
844.571	24194
844.708	24338
844.844	24395
844.98	24498
845.117	24403
845.253	24289
845.389	24201
845.525	24213
845.661	24091
845.798	24106
845.934	24163
846.07	24060
846.206	24239
846.342	24114
846.478	23965
846.614	23851
846.75	23843
846.886	23699
847.022	23901
847.158	23748
847.294	23874
847.429	23878
847.565	23897
847.701	23999
847.837	23585
847.972	23509
848.108	23646
848.244	23543
848.379	23516
848.515	23425
848.65	23440
848.786	23440
848.921	23356
849.057	23570
849.192	23490
849.328	23326
849.463	23425
849.598	23337
849.734	23299
849.869	23299
850.004	23185
850.14	23166
850.275	23151
850.41	23299
850.545	23094
850.68	23102
850.815	23113
850.95	23159
851.085	23280
851.22	23288
851.355	23128
851.49	23090
851.625	23155
851.76	23155
851.895	23094
852.03	23037
852.165	23162
852.299	23121
852.434	23197
852.569	23174
852.703	23159
852.838	23181
852.973	23330
853.107	23193
853.242	23064
853.376	23064
853.511	22793
853.645	22980
853.78	23064
853.914	22934
854.048	22976
854.183	22854
854.317	23025
854.451	23029
854.585	22991
854.72	22968
854.854	23067
854.988	22866
855.122	22965
855.256	22885
855.39	22828
855.524	23060
855.658	23079
855.792	22991
855.926	22968
856.06	22987
856.194	23067
856.327	22987
856.461	22919
856.595	22828
856.729	22911
856.862	23079
856.996	22984
857.13	23056
857.263	23006
857.397	23056
857.53	22991
857.664	22968
857.797	22968
857.931	23033
858.064	22984
858.197	22984
858.331	22949
858.464	22869
858.597	22786
858.731	22915
858.864	22862
858.997	22862
859.13	22908
859.263	22938
859.396	23044
859.529	22881
859.662	22953
859.795	22885
859.928	22889
860.061	23071
860.194	23029
860.327	22968
860.46	23006
860.592	23124
860.725	23151
860.858	23037
860.99	22972
861.123	22915
861.256	22938
861.388	22927
861.521	23786
861.653	22915
861.786	22797
861.918	22733
862.05	22919
862.183	22801
862.315	22843
862.447	22938
862.58	22828
862.712	22660
862.844	22554
862.976	22793
863.108	22729
863.24	23185
863.372	22615
863.504	22713
863.636	22656
863.768	22675
863.9	22748
864.032	22634
864.164	22577
864.296	22729
864.428	22816
864.559	22694
864.691	22729
864.823	22782
864.954	22645
865.086	22531
865.217	22672
865.349	22519
865.48	22554
865.612	22508
865.743	22672
865.875	22603
866.006	22436
866.137	22535
866.269	22641
866.4	22546
866.531	22535
866.662	22531
866.793	22535
866.924	22440
867.055	22424
867.186	22500
867.317	22493
867.448	22470
867.579	22466
867.71	22360
867.841	22459
867.972	22447
868.103	22466
868.233	22409
868.364	22413
868.495	22607
868.625	22721
868.756	22881
868.886	22599
869.017	22687
869.147	22801
869.278	22763
869.408	22763
869.539	22782
869.669	22687
869.799	22729
869.929	22790
870.06	22767
870.19	23014
870.32	23006
870.45	23067
870.58	23025
870.71	23231
870.84	23121
870.97	23064
871.1	23143
871.23	23273
871.36	23239
871.489	23220
871.619	23372
871.749	23239
871.879	23299
872.008	23421
872.138	23299
872.267	23216
872.397	23242
872.526	23220
872.656	23159
872.785	23037
872.915	23330
873.044	23474
873.173	23467
873.303	23345
873.432	23398
873.561	23505
873.69	23421
873.819	23360
873.948	23356
874.077	23299
874.206	23334
874.335	23330
874.464	23341
874.593	23528
874.722	23562
874.851	23421
874.979	23657
875.108	23554
875.237	23459
875.365	23372
875.494	23459
875.623	23535
875.751	23600
875.88	23493
876.008	23653
876.136	23573
876.265	23950
876.393	23996
876.521	24114
876.65	24018
876.778	23912
876.906	23783
877.034	23866
877.162	23863
877.29	23737
877.418	23851
877.546	23802
877.674	23847
877.802	23813
877.93	23783
878.058	23813
878.185	23760
878.313	23726
878.441	23832
878.568	23630
878.696	23790
878.824	23859
878.951	23786
879.079	24106
879.206	24186
879.333	24064
879.461	23870
879.588	23977
879.715	24003
879.842	24209
879.97	23988
880.097	23733
880.224	23714
880.351	23752
880.478	23779
880.605	23646
880.732	23684
880.859	23882
880.986	23767
881.112	23714
881.239	23653
881.366	23391
881.493	23509
881.619	23277
881.746	23299
881.872	23330
881.999	23353
882.125	23254
882.252	23212
882.378	23246
882.505	23303
882.631	23044
882.757	23006
882.883	22995
883.01	23029
883.136	22991
883.262	22721
883.388	22831
883.514	22987
883.64	22957
883.766	22858
883.892	22596
884.018	22630
884.143	22809
884.269	22949
884.395	22645
884.52	22596
884.646	22489
884.772	22508
884.897	22424
885.023	22683
885.148	22637
885.274	22733
885.399	22694
885.524	22516
885.65	22557
885.775	22645
885.9	22462
886.025	22649
886.15	22645
886.275	22485
886.4	22493
886.525	22508
886.65	22485
886.775	22341
886.9	22618
887.025	22641
887.149	22470
887.274	22360
887.399	22379
887.523	22398
887.648	22238
887.773	22367
887.897	22451
888.021	22363
888.146	22128
888.27	22284
888.395	22424
888.519	22352
888.643	22375
888.767	22249
888.891	22211
889.015	22185
889.139	22147
889.263	22196
889.387	22268
889.511	22280
889.635	22150
889.759	21983
889.883	22173
890.006	22150
890.13	22200
890.254	22109
890.377	22051
890.501	21846
890.624	21835
890.748	21895
890.871	21690
890.995	21675
891.118	21568
891.241	21747
891.364	21530
891.488	21625
891.611	21576
891.734	21641
891.857	21709
891.98	21641
892.103	21713
892.226	21629
892.349	21564
892.471	21416
892.594	21530
892.717	21557
892.839	21557
892.962	21523
893.085	21618
893.207	21610
893.33	21469
893.452	21443
893.575	21557
893.697	21545
893.819	21629
893.941	21675
894.064	21686
894.186	21370
894.308	21386
894.43	21679
894.552	21679
894.674	21534
894.796	21382
894.918	21408
895.04	21466
895.161	21618
895.283	21572
895.405	21351
895.526	21473
895.648	21439
895.769	21367
895.891	21519
896.012	21576
896.134	21641
896.255	21492
896.376	21397
896.498	21408
896.619	21576
896.74	21534
896.861	21549
896.982	21774
897.103	21998
897.224	21724
897.345	21739
897.466	21519
897.587	21724
897.708	21846
897.828	21808
897.949	21682
898.07	21614
898.19	21606
898.311	21743
898.431	21545
898.552	21694
898.672	21660
898.792	21732
898.913	21576
899.033	21454
899.153	21511
899.273	21329
899.393	21507
899.513	21454
899.633	21378
899.753	21431
899.873	21321
899.993	21329
900.113	21382
900.232	21264
900.352	21405
900.472	21161
900.591	21150
900.711	21241
900.83	21116
900.95	21226
901.069	21173
901.189	21058
901.308	20743
901.427	20697
901.546	20826
901.665	20762
901.784	20663
901.904	20594
902.023	20404
902.141	20419
902.26	20339
902.379	20259
902.498	20248
902.617	20103
902.735	20233
902.854	20180
902.973	20229
903.091	19883
903.21	19879
903.328	19860
903.446	19727
903.565	19727
903.683	19647
903.801	19628
903.919	19632
904.038	19582
904.156	19571
904.274	19563
904.392	19312
904.51	19373
904.627	19449
904.745	19392
904.863	19438
904.981	19221
905.098	19088
905.216	19091
905.334	19175
905.451	19050
905.569	19065
905.686	19141
905.803	19110
905.921	18890
906.038	18913
906.155	18924
906.272	18757
906.389	18757
906.506	18631
906.623	18642
906.74	18490
906.857	18517
906.974	18551
907.091	18627
907.208	18646
907.324	18722
907.441	18433
907.557	18247
907.674	18319
907.79	18178
907.907	18372
908.023	18372
908.139	18262
908.256	18270
908.372	18190
908.488	18205
908.604	17996
908.72	17961
908.836	18083
908.952	17954
909.068	18091
909.184	18125
909.3	18117
909.415	18057
909.531	18003
909.647	17828
909.762	17710
909.878	17745
909.993	17733
910.108	17680
910.224	17638
910.339	17649
910.454	17646
910.57	17501
910.685	17467
910.8	17802
910.915	17619
911.03	17505
911.145	17345
911.259	17258
911.374	17273
911.489	17337
911.604	17200
911.718	17064
911.833	17064
911.947	16930
912.062	16896
912.176	17090
912.291	17025
912.405	17006
912.519	17162
912.633	17200
912.748	17022
912.862	16957
912.976	17018
913.09	16790
913.204	16828
913.318	16904
913.431	16965
913.545	16949
913.659	16946
913.772	16824
913.886	16664
914	16664
914.113	16702
914.226	16782
914.34	16702
914.453	16519
914.566	16611
914.68	16542
914.793	16470
914.906	16181
915.019	16204
915.132	16196
915.245	16181
915.358	16287
915.47	16101
915.583	16204
915.696	16207
915.809	16325
915.921	16310
916.034	16112
916.146	16078
916.259	16215
916.371	16147
916.483	16147
916.595	15956
916.708	15861
916.82	15903
916.932	15930
917.044	15964
917.156	15934
917.268	15850
917.38	15816
917.491	15778
917.603	15778
917.715	16013
917.826	15873
917.938	15781
918.049	15656
918.161	15743
918.272	15831
918.384	15838
918.495	15720
918.606	15603
918.717	15424
918.828	15557
918.939	15492
919.05	15370
919.161	15496
919.272	15408
919.383	15405
919.494	15580
919.604	15774
919.715	15534
919.826	15439
919.936	15370
920.047	15538
920.157	15450
920.267	15751
920.378	15519
920.488	15397
920.598	15633
920.708	15743
920.818	15545
920.928	15534
921.038	15778
921.148	15633
921.258	15420
921.368	15351
921.477	15218
921.587	15264
921.697	14986
921.806	15184
921.916	15127
922.025	14887
922.134	14921
922.244	14800
922.353	14834
922.462	14697
922.571	14644
922.68	14499
922.789	14473
922.898	14533
923.007	14400
923.116	14507
923.224	14469
923.333	14320
923.442	14305
923.55	14278
923.659	14385
923.767	14355
923.876	14180
923.984	14282
924.092	14145
924.201	14195
924.309	14195
924.417	14138
924.525	14020
924.633	14050
924.741	15123
924.849	13860
924.956	13997
925.064	13887
925.172	13784
925.279	13753
925.387	13875
925.494	13871
925.602	13974
925.709	13871
925.816	13662
925.924	13727
926.031	13841
926.138	13826
926.245	13841
926.352	13594
926.459	13791
926.566	13769
926.673	13674
926.779	13537
926.886	13521
926.993	13384
927.099	13392
927.206	13320
927.312	13278
927.419	13480
927.525	13343
927.631	13415
927.737	13168
927.843	13297
927.95	13050
928.056	13095
928.162	13240
928.267	13149
928.373	13871
928.479	13175
928.585	13050
928.69	13149
928.796	13156
928.901	12943
929.007	12856
929.112	12939
929.218	13015
929.323	12863
929.428	12909
929.533	13042
929.638	12890
929.743	12844
929.848	12844
929.953	12825
930.058	12681
930.163	12498
930.267	12681
930.372	12684
930.477	12410
930.581	12700
930.685	12650
930.79	12426
930.894	12540
930.998	12372
931.103	12521
931.207	12098
931.311	12117
931.415	11973
931.519	11779
931.623	11809
