Data from test_V78500241_286.txt Node
Date: Fri Mar 25 15:43:46 CST 2022
User: usil
Spectrometer: V785-0024
Trigger mode: 0
Integration Time (sec): 4.000000E-1
Scans to average: 1
Nonlinearity correction enabled: false
Boxcar width: 0
Storing dark spectrum: false
XAxis mode: Wavelengths
Number of Pixels in Spectrum: 1024
>>>>>Begin Spectral Data<<<<<
801.071	29695
801.214	29501
801.356	29440
801.499	29383
801.641	29368
801.783	29284
801.926	29299
802.068	29322
802.211	29265
802.353	29117
802.496	28881
802.638	28873
802.78	29052
802.923	28866
803.065	29006
803.208	29056
803.35	28850
803.492	29094
803.635	29044
803.777	29041
803.919	29277
804.061	29581
804.204	29178
804.346	28980
804.488	28961
804.63	29003
804.773	28999
804.915	29151
805.057	29094
805.199	29136
805.341	29189
805.483	29360
805.626	29239
805.768	29181
805.91	29235
806.052	29090
806.194	29128
806.336	29433
806.478	29318
806.62	29250
806.762	29493
806.904	29672
807.046	29851
807.188	29684
807.33	29665
807.472	29756
807.614	29577
807.756	29642
807.898	29455
808.04	29509
808.182	29345
808.324	29490
808.465	29493
808.607	29638
808.749	29779
808.891	29992
809.033	30087
809.174	29954
809.316	29874
809.458	29920
809.6	29802
809.741	29893
809.883	29916
810.025	30136
810.166	30178
810.308	30194
810.45	30068
810.591	30182
810.733	29912
810.875	29939
811.016	29809
811.158	29912
811.299	30110
811.441	29999
811.582	30049
811.724	29901
811.865	29862
812.007	29821
812.148	30064
812.29	29745
812.431	29969
812.573	30292
812.714	30292
812.855	30361
812.997	30304
813.138	30696
813.279	30540
813.421	30353
813.562	30292
813.703	30304
813.845	30178
813.986	29714
814.127	29703
814.268	29459
814.41	29596
814.551	29581
814.692	29531
814.833	29604
814.974	29436
815.115	29303
815.256	29326
815.397	29315
815.539	29303
815.68	29414
815.821	29318
815.962	29429
816.103	29292
816.244	29064
816.385	28911
816.526	29029
816.666	28820
816.807	28877
816.948	28900
817.089	28885
817.23	28774
817.371	28736
817.512	28786
817.653	28698
817.793	28611
817.934	28805
818.075	28885
818.216	28713
818.356	28717
818.497	28634
818.638	28462
818.778	28474
818.919	28584
819.06	28474
819.2	28580
819.341	28687
819.481	28660
819.622	28919
819.762	28968
819.903	29010
820.043	28740
820.184	28820
820.324	28881
820.465	28927
820.605	28854
820.746	28911
820.886	28862
821.026	28900
821.167	28828
821.307	28748
821.447	28637
821.588	28630
821.728	28538
821.868	28329
822.008	28112
822.149	28059
822.289	28188
822.429	27789
822.569	27781
822.709	27846
822.849	27622
822.99	27656
823.13	27614
823.27	27492
823.41	27462
823.55	27329
823.69	27386
823.83	27534
823.97	27291
824.11	27279
824.25	27332
824.389	27237
824.529	27393
824.669	27203
824.809	27329
824.949	27378
825.089	27256
825.228	27279
825.368	27100
825.508	27058
825.648	27180
825.787	27211
825.927	27211
826.067	27199
826.206	27100
826.346	27157
826.485	27161
826.625	27039
826.765	27184
826.904	27047
827.044	26826
827.183	26796
827.323	26750
827.462	26925
827.601	26800
827.741	26716
827.88	26883
828.02	26777
828.159	26830
828.298	26739
828.437	26750
828.577	26670
828.716	26800
828.855	26575
828.994	26446
829.134	26450
829.273	26469
829.412	26343
829.551	26412
829.69	26511
829.829	26457
829.968	26469
830.107	26385
830.246	26351
830.385	26374
830.524	26317
830.663	26187
830.802	26157
830.941	26077
831.08	25932
831.219	26149
831.357	26035
831.496	26278
831.635	25974
831.774	25936
831.913	25944
832.051	25849
832.19	25674
832.329	25799
832.467	25632
832.606	25635
832.744	25483
832.883	25685
833.022	25597
833.16	25769
833.299	25651
833.437	25685
833.576	25727
833.714	25731
833.852	25742
833.991	25670
834.129	25757
834.267	25753
834.406	25681
834.544	25841
834.682	25628
834.821	25670
834.959	25845
835.097	25616
835.235	25624
835.373	25677
835.511	25639
835.65	25506
835.788	25426
835.926	25278
836.064	25339
836.202	25206
836.34	25468
836.478	25647
836.615	25502
836.753	25537
836.891	25544
837.029	25510
837.167	25400
837.305	25400
837.443	25392
837.58	25411
837.718	25392
837.856	25396
837.993	25289
838.131	25202
838.269	25209
838.406	25099
838.544	25190
838.681	24897
838.819	24909
838.956	24650
839.094	24791
839.231	24817
839.369	24875
839.506	25206
839.643	24886
839.781	24894
839.918	24528
840.055	24635
840.193	24696
840.33	24559
840.467	24639
840.604	24635
840.742	24867
840.879	24528
841.016	24593
841.153	24452
841.29	24631
841.427	24604
841.564	24532
841.701	24422
841.838	24445
841.975	24433
842.112	24445
842.249	24505
842.385	24190
842.522	24578
842.659	24311
842.796	24391
842.933	24232
843.069	24300
843.206	24133
843.343	24315
843.479	24315
843.616	24380
843.752	23999
843.889	24022
844.025	24190
844.162	24125
844.298	24117
844.435	24098
844.571	24155
844.708	24174
844.844	24308
844.98	24152
845.117	24057
845.253	23999
845.389	23904
845.525	23965
845.661	24068
845.798	23714
845.934	23840
846.07	23863
846.206	23828
846.342	23942
846.478	23665
846.614	23562
846.75	23444
846.886	23433
847.022	23528
847.158	23497
847.294	23467
847.429	23535
847.565	23376
847.701	23657
847.837	23311
847.972	23307
848.108	23140
848.244	23273
848.379	23044
848.515	23128
848.65	23124
848.786	23064
848.921	23098
849.057	23155
849.192	23018
849.328	23075
849.463	22968
849.598	23044
849.734	23048
849.869	22911
850.004	22885
850.14	22854
850.275	22740
850.41	22649
850.545	22729
850.68	22759
850.815	22687
850.95	22801
851.085	22919
851.22	22873
851.355	22793
851.49	22752
851.625	22733
851.76	22774
851.895	22664
852.03	22710
852.165	22698
852.299	22755
852.434	22816
852.569	22778
852.703	22915
852.838	22843
852.973	22919
853.107	22778
853.242	22698
853.376	22683
853.511	22466
853.645	22573
853.78	22710
853.914	22675
854.048	22611
854.183	22538
854.317	22580
854.451	22706
854.585	22508
854.72	22596
854.854	22611
854.988	22538
855.122	22565
855.256	22451
855.39	22527
855.524	22687
855.658	22607
855.792	22607
855.926	22630
856.06	22618
856.194	22675
856.327	22557
856.461	22550
856.595	22580
856.729	22527
856.862	22557
856.996	22569
857.13	22622
857.263	22656
857.397	22736
857.53	22489
857.664	22577
857.797	22550
857.931	22698
858.064	22546
858.197	22538
858.331	22596
858.464	22599
858.597	22519
858.731	22470
858.864	22443
858.997	22455
859.13	22459
859.263	22462
859.396	22561
859.529	22459
859.662	22455
859.795	22390
859.928	22478
860.061	22596
860.194	22763
860.327	22637
860.46	22557
860.592	22630
860.725	22706
860.858	22561
860.99	22554
861.123	22519
861.256	22348
861.388	22504
861.521	23242
861.653	22356
861.786	22390
861.918	22356
862.05	22352
862.183	22474
862.315	22478
862.447	22531
862.58	22424
862.712	22219
862.844	22196
862.976	22356
863.108	22272
863.24	22588
863.372	22105
863.504	22131
863.636	22154
863.768	22150
863.9	22257
864.032	22055
864.164	22128
864.296	22246
864.428	22188
864.559	22238
864.691	22211
864.823	22147
864.954	22097
865.086	22147
865.217	22276
865.349	22010
865.48	22162
865.612	21956
865.743	22173
865.875	22055
866.006	22059
866.137	22059
866.269	22112
866.4	22120
866.531	22036
866.662	21930
866.793	21953
866.924	21994
867.055	21934
867.186	21994
867.317	21945
867.448	22059
867.579	22086
867.71	22006
867.841	21842
867.972	22067
868.103	22048
868.233	22040
868.364	21945
868.495	21991
868.625	22181
868.756	22303
868.886	22150
869.017	22116
869.147	22375
869.278	22272
869.408	22341
869.539	22204
869.669	22322
869.799	22295
869.929	22299
870.06	22325
870.19	22538
870.32	22500
870.45	22649
870.58	22607
870.71	22831
870.84	22649
870.97	22691
871.1	22649
871.23	22736
871.36	22835
871.489	22668
871.619	22725
871.749	22812
871.879	22885
872.008	22915
872.138	22748
872.267	22801
872.397	22675
872.526	22691
872.656	22706
872.785	22733
872.915	22877
873.044	22953
873.173	22797
873.303	22869
873.432	22877
873.561	22957
873.69	22816
873.819	22900
873.948	22828
874.077	22854
874.206	22801
874.335	22980
874.464	22938
874.593	23128
874.722	23025
874.851	23170
874.979	23090
875.108	23117
875.237	23025
875.365	22965
875.494	23006
875.623	22991
875.751	23075
875.88	22980
876.008	22972
876.136	23265
876.265	23543
876.393	23687
876.521	23539
876.65	23543
876.778	23391
876.906	23471
877.034	23372
877.162	23376
877.29	23425
877.418	23474
877.546	23448
877.674	23341
877.802	23463
877.93	23440
878.058	23444
878.185	23174
878.313	23353
878.441	23318
878.568	23227
878.696	23318
878.824	23448
878.951	23433
879.079	23551
879.206	23718
879.333	23436
879.461	23391
879.588	23455
879.715	23547
879.842	23710
879.97	23455
880.097	23128
880.224	23216
880.351	23288
880.478	23151
880.605	23181
880.732	23292
880.859	23395
880.986	23315
881.112	23174
881.239	23220
881.366	23033
881.493	22866
881.619	22812
881.746	22866
881.872	22850
881.999	22645
882.125	22877
882.252	22847
882.378	22717
882.505	22858
882.631	22694
882.757	22660
882.883	22459
883.01	22519
883.136	22390
883.262	22367
883.388	22314
883.514	22523
883.64	22516
883.766	22280
883.892	22207
884.018	22280
884.143	22428
884.269	22421
884.395	22192
884.52	22074
884.646	22112
884.772	22059
884.897	22006
885.023	22128
885.148	22238
885.274	22223
885.399	22303
885.524	22116
885.65	22112
885.775	22166
885.9	22109
886.025	22219
886.15	22135
886.275	22078
886.4	21911
886.525	22044
886.65	22078
886.775	21892
886.9	22230
887.025	22234
887.149	22177
887.274	21915
887.399	21781
887.523	21911
887.648	21816
887.773	21804
887.897	21895
888.021	21979
888.146	21804
888.27	21926
888.395	21930
888.519	21823
888.643	21739
888.767	21755
888.891	21759
889.015	21606
889.139	21869
889.263	21599
889.387	21709
889.511	21739
889.635	21644
889.759	21572
889.883	21545
890.006	21686
890.13	21709
890.254	21530
890.377	21492
890.501	21370
890.624	21325
890.748	21291
890.871	21310
890.995	21070
891.118	21085
891.241	21226
891.364	21176
891.488	21230
891.611	21199
891.734	21165
891.857	21154
891.98	21066
892.103	21291
892.226	21184
892.349	21081
892.471	20971
892.594	21096
892.717	21100
892.839	21009
892.962	21062
893.085	21077
893.207	21020
893.33	20910
893.452	20937
893.575	21119
893.697	21077
893.819	21332
893.941	21233
894.064	21222
894.186	20975
894.308	21020
894.43	21180
894.552	21184
894.674	21142
894.796	20811
894.918	21009
895.04	20918
895.161	21119
895.283	20998
895.405	21001
895.526	20975
895.648	21074
895.769	21039
895.891	21032
896.012	21108
896.134	21146
896.255	21112
896.376	21047
896.498	21093
896.619	21096
896.74	21096
896.861	21131
896.982	21519
897.103	21500
897.224	21386
897.345	21218
897.466	21317
897.587	21302
897.708	21435
897.828	21245
897.949	21184
898.07	21192
898.19	21154
898.311	21310
898.431	21203
898.552	21207
898.672	21211
898.792	21222
898.913	21283
899.033	20994
899.153	21032
899.273	20914
899.393	21024
899.513	20918
899.633	20876
899.753	21028
899.873	20937
899.993	20967
900.113	20842
900.232	20861
900.352	20819
900.472	20712
900.591	20731
900.711	20648
900.83	20708
900.95	20792
901.069	20811
901.189	20621
901.308	20332
901.427	20259
901.546	20427
901.665	20256
901.784	20408
901.904	20199
902.023	20005
902.141	19932
902.26	19799
902.379	19799
902.498	19620
902.617	19635
902.735	19822
902.854	19685
902.973	19655
903.091	19476
903.21	19434
903.328	19381
903.446	19282
903.565	19221
903.683	19225
903.801	19129
903.919	19183
904.038	19164
904.156	19069
904.274	19038
904.392	19023
904.51	18909
904.627	18958
904.745	18981
904.863	18943
904.981	18753
905.098	18692
905.216	18673
905.334	18627
905.451	18608
905.569	18536
905.686	18677
905.803	18570
905.921	18471
906.038	18589
906.155	18353
906.272	18304
906.389	18228
906.506	18129
906.623	18144
906.74	18136
906.857	18019
906.974	18064
907.091	18182
907.208	18216
907.324	18140
907.441	18003
907.557	17878
907.674	17980
907.79	17748
907.907	17821
908.023	17901
908.139	17908
908.256	17790
908.372	17646
908.488	17764
908.604	17589
908.72	17562
908.836	17463
908.952	17512
909.068	17573
909.184	17573
909.3	17573
909.415	17528
909.531	17482
909.647	17265
909.762	17200
909.878	17318
909.993	17143
910.108	17246
910.224	17117
910.339	17045
910.454	17094
910.57	17006
910.685	16961
910.8	17079
910.915	17155
911.03	16984
911.145	16866
911.259	16889
911.374	16786
911.489	16793
911.604	16573
911.718	16478
911.833	16558
911.947	16421
912.062	16284
912.176	16516
912.291	16485
912.405	16527
912.519	16687
912.633	16729
912.748	16493
912.862	16573
912.976	16402
913.09	16272
913.204	16238
913.318	16242
913.431	16462
913.545	16413
913.659	16424
913.772	16249
913.886	16177
914	16173
914.113	16097
914.226	16181
914.34	16139
914.453	16002
914.566	16124
914.68	15975
914.793	15964
914.906	15835
915.019	15785
915.132	15682
915.245	15739
915.358	15770
915.47	15720
915.583	15595
915.696	15739
915.809	15766
915.921	15827
916.034	15709
916.146	15732
916.259	15618
916.371	15686
916.483	15622
916.595	15519
916.708	15629
916.82	15507
916.932	15420
917.044	15405
917.156	15412
917.268	15317
917.38	15447
917.491	15294
917.603	15325
917.715	15374
917.826	15397
917.938	15302
918.049	15104
918.161	15340
918.272	15500
918.384	15374
918.495	15325
918.606	15195
918.717	15024
918.828	15017
918.939	15146
919.05	14967
919.161	15119
919.272	14876
919.383	14895
919.494	15028
919.604	15275
919.715	15032
919.826	15017
919.936	15047
920.047	15081
920.157	14944
920.267	15218
920.378	15093
920.488	14998
920.598	15112
920.708	15302
920.818	15104
920.928	15055
921.038	15154
921.148	15222
921.258	14914
921.368	14845
921.477	14781
921.587	14720
921.697	14621
921.806	14716
921.916	14503
922.025	14419
922.134	14434
922.244	14336
922.353	14484
922.462	14271
922.571	14183
922.68	14008
922.789	14073
922.898	13967
923.007	13986
923.116	14016
923.224	13963
923.333	13906
923.442	13860
923.55	13795
923.659	13719
923.767	13868
923.876	13769
923.984	13791
924.092	13575
924.201	13769
924.309	13708
924.417	13738
924.525	13639
924.633	13655
924.741	14469
924.849	13384
924.956	13590
925.064	13396
925.172	13327
925.279	13381
925.387	13335
925.494	13362
925.602	13483
925.709	13491
925.816	13236
925.924	13392
926.031	13419
926.138	13392
926.245	13358
926.352	13285
926.459	13388
926.566	13449
926.673	13350
926.779	13217
926.886	13145
926.993	12977
927.099	12985
927.206	12863
927.312	12802
927.419	12913
927.525	12848
927.631	12913
927.737	12829
927.843	12726
927.95	12563
928.056	12665
928.162	12760
928.267	12810
928.373	13457
928.479	12787
928.585	12639
928.69	12658
928.796	12681
928.901	12650
929.007	12410
929.112	12623
929.218	12532
929.323	12369
929.428	12445
929.533	12570
929.638	12342
929.743	12456
929.848	12448
929.953	12399
930.058	12285
930.163	12167
930.267	12076
930.372	12292
930.477	12060
930.581	12369
930.685	12175
930.79	11999
930.894	12041
930.998	11980
931.103	12053
931.207	11733
931.311	11745
931.415	11532
931.519	11296
931.623	11307
