Data from test_V78500241_1831.txt Node
Date: Fri Mar 25 15:54:29 CST 2022
User: usil
Spectrometer: V785-0024
Trigger mode: 0
Integration Time (sec): 4.000000E-1
Scans to average: 1
Nonlinearity correction enabled: false
Boxcar width: 0
Storing dark spectrum: false
XAxis mode: Wavelengths
Number of Pixels in Spectrum: 1024
>>>>>Begin Spectral Data<<<<<
801.071	28531
801.214	28641
801.356	28375
801.499	28318
801.641	28352
801.783	28348
801.926	28040
802.068	28128
802.211	28215
802.353	28192
802.496	27922
802.638	27808
802.78	27895
802.923	27968
803.065	27789
803.208	27869
803.35	27922
803.492	28120
803.635	28112
803.777	27956
803.919	28207
804.061	28447
804.204	28261
804.346	28105
804.488	28021
804.63	28158
804.773	28097
804.915	28211
805.057	28249
805.199	28188
805.341	28246
805.483	28238
805.626	28379
805.768	28188
805.91	28375
806.052	28211
806.194	28188
806.336	28401
806.478	28246
806.62	28322
806.762	28424
806.904	28588
807.046	28793
807.188	28698
807.33	28877
807.472	28675
807.614	28702
807.756	28816
807.898	28599
808.04	28493
808.182	28569
808.324	28812
808.465	28683
808.607	28877
808.749	29064
808.891	29151
809.033	29159
809.174	29029
809.316	29140
809.458	28976
809.6	28987
809.741	29086
809.883	29048
810.025	29250
810.166	29337
810.308	29227
810.45	29273
810.591	29345
810.733	28930
810.875	28877
811.016	28904
811.158	28782
811.299	29124
811.441	29284
811.582	29029
811.724	29037
811.865	28915
812.007	28877
812.148	28946
812.29	29086
812.431	29136
812.573	29242
812.714	29421
812.855	29509
812.997	29467
813.138	29710
813.279	29608
813.421	29455
813.562	29516
813.703	29326
813.845	29315
813.986	28831
814.127	28866
814.268	28778
814.41	28740
814.551	28717
814.692	28790
814.833	28698
814.974	28580
815.115	28759
815.256	28599
815.397	28554
815.539	28504
815.68	28424
815.821	28360
815.962	28546
816.103	28447
816.244	28390
816.385	28329
816.526	28325
816.666	28006
816.807	28017
816.948	28120
817.089	28128
817.23	28090
817.371	27964
817.512	27953
817.653	27918
817.793	27956
817.934	27907
818.075	28036
818.216	27994
818.356	28032
818.497	27838
818.638	27644
818.778	27972
818.919	27911
819.06	27800
819.2	27778
819.341	28059
819.481	28006
819.622	28169
819.762	28375
819.903	28238
820.043	28303
820.184	28154
820.324	28124
820.465	28173
820.605	28105
820.746	28207
820.886	28067
821.026	28105
821.167	28063
821.307	28261
821.447	27964
821.588	27945
821.728	27743
821.868	27667
822.008	27667
822.149	27534
822.289	27439
822.429	27310
822.569	27351
822.709	27150
822.849	27039
822.99	27138
823.13	27051
823.27	27066
823.41	26895
823.55	26697
823.69	26864
823.83	26788
823.97	26842
824.11	26571
824.25	26701
824.389	26541
824.529	26769
824.669	26640
824.809	26724
824.949	26667
825.089	26705
825.228	26788
825.368	26602
825.508	26503
825.648	26412
825.787	26636
825.927	26552
826.067	26533
826.206	26613
826.346	26594
826.485	26499
826.625	26590
826.765	26648
826.904	26560
827.044	26248
827.183	26309
827.323	26282
827.462	26263
827.601	26290
827.741	26218
827.88	26248
828.02	26195
828.159	26252
828.298	26256
828.437	26210
828.577	26199
828.716	26355
828.855	26214
828.994	25868
829.134	26005
829.273	26035
829.412	25856
829.551	25887
829.69	25917
829.829	25986
829.968	26001
830.107	26027
830.246	25955
830.385	25986
830.524	25795
830.663	25731
830.802	25609
830.941	25624
831.08	25407
831.219	25616
831.357	25647
831.496	25791
831.635	25575
831.774	25415
831.913	25369
832.051	25221
832.19	25396
832.329	25202
832.467	25358
832.606	25179
832.744	25133
832.883	25263
833.022	25091
833.16	25289
833.299	25099
833.437	25324
833.576	25289
833.714	25373
833.852	25350
833.991	25270
834.129	25422
834.267	25392
834.406	25282
834.544	25293
834.682	25228
834.821	25225
834.959	25434
835.097	25225
835.235	25335
835.373	25327
835.511	25312
835.65	25019
835.788	25141
835.926	25012
836.064	24977
836.202	24962
836.34	25095
836.478	25183
836.615	25141
836.753	25000
836.891	25042
837.029	25129
837.167	25057
837.305	25038
837.443	25008
837.58	24996
837.718	25065
837.856	24932
837.993	24878
838.131	24951
838.269	24897
838.406	24913
838.544	24760
838.681	24620
838.819	24608
838.956	24357
839.094	24388
839.231	24388
839.369	24547
839.506	24886
839.643	24776
839.781	24437
839.918	24365
840.055	24464
840.193	24372
840.33	24311
840.467	24338
840.604	24376
840.742	24452
840.879	24098
841.016	24213
841.153	24205
841.29	24422
841.427	24232
841.564	24448
841.701	24277
841.838	24254
841.975	24194
842.112	24201
842.249	24121
842.385	24034
842.522	24266
842.659	24022
842.796	23988
842.933	23958
843.069	23908
843.206	23950
843.343	24091
843.479	23931
843.616	23923
843.752	23851
843.889	23805
844.025	23980
844.162	23733
844.298	24018
844.435	23874
844.571	23729
844.708	23882
844.844	24049
844.98	23912
845.117	23927
845.253	23904
845.389	23672
845.525	23783
845.661	23589
845.798	23566
845.934	23482
846.07	23383
846.206	23608
846.342	23630
846.478	23528
846.614	23368
846.75	23227
846.886	23239
847.022	23387
847.158	23334
847.294	23147
847.429	23307
847.565	23299
847.701	23539
847.837	22942
847.972	22961
848.108	23048
848.244	23086
848.379	22938
848.515	22816
848.65	22892
848.786	22858
848.921	22915
849.057	22965
849.192	22984
849.328	22908
849.463	22908
849.598	22828
849.734	22778
849.869	22698
850.004	22649
850.14	22729
850.275	22584
850.41	22478
850.545	22573
850.68	22626
850.815	22626
850.95	22580
851.085	22881
851.22	22786
851.355	22599
851.49	22527
851.625	22668
851.76	22634
851.895	22573
852.03	22542
852.165	22660
852.299	22611
852.434	22816
852.569	22641
852.703	22611
852.838	22721
852.973	22721
853.107	22771
853.242	22675
853.376	22626
853.511	22356
853.645	22367
853.78	22360
853.914	22470
854.048	22421
854.183	22443
854.317	22386
854.451	22584
854.585	22497
854.72	22447
854.854	22573
854.988	22459
855.122	22367
855.256	22325
855.39	22500
855.524	22523
855.658	22519
855.792	22493
855.926	22443
856.06	22504
856.194	22596
856.327	22485
856.461	22280
856.595	22443
856.729	22440
856.862	22523
856.996	22455
857.13	22573
857.263	22694
857.397	22637
857.53	22577
857.664	22531
857.797	22451
857.931	22538
858.064	22440
858.197	22588
858.331	22512
858.464	22405
858.597	22386
858.731	22398
858.864	22344
858.997	22485
859.13	22478
859.263	22447
859.396	22485
859.529	22405
859.662	22485
859.795	22500
859.928	22459
860.061	22538
860.194	22713
860.327	22508
860.46	22481
860.592	22550
860.725	22569
860.858	22516
860.99	22440
861.123	22333
861.256	22352
861.388	22459
861.521	23083
861.653	22440
861.786	22268
861.918	22360
862.05	22303
862.183	22394
862.315	22382
862.447	22478
862.58	22356
862.712	22204
862.844	22177
862.976	22238
863.108	22181
863.24	22603
863.372	22082
863.504	22131
863.636	22101
863.768	22257
863.9	22200
864.032	22147
864.164	22070
864.296	22177
864.428	22261
864.559	22128
864.691	22379
864.823	22112
864.954	22207
865.086	22090
865.217	22109
865.349	22029
865.48	22013
865.612	21972
865.743	22143
865.875	22044
866.006	22116
866.137	22006
866.269	22082
866.4	21964
866.531	21949
866.662	21979
866.793	22067
866.924	22101
867.055	21949
867.186	21930
867.317	21842
867.448	21835
867.579	21873
867.71	21861
867.841	21998
867.972	21953
868.103	21949
868.233	21816
868.364	21960
868.495	22097
868.625	22234
868.756	22356
868.886	22223
869.017	22128
869.147	22291
869.278	22348
869.408	22185
869.539	22303
869.669	22424
869.799	22196
869.929	22322
870.06	22219
870.19	22485
870.32	22557
870.45	22493
870.58	22584
870.71	22694
870.84	22634
870.97	22668
871.1	22748
871.23	22790
871.36	22828
871.489	22656
871.619	22938
871.749	22816
871.879	22767
872.008	22930
872.138	22889
872.267	22805
872.397	22771
872.526	22694
872.656	22577
872.785	22626
872.915	22793
873.044	22889
873.173	22866
873.303	22904
873.432	22904
873.561	22957
873.69	22805
873.819	22839
873.948	22854
874.077	22824
874.206	22771
874.335	22862
874.464	22877
874.593	23025
874.722	22900
874.851	23174
874.979	23006
875.108	23086
875.237	22980
875.365	22965
875.494	23025
875.623	23140
875.751	22999
875.88	23098
876.008	23117
876.136	23326
876.265	23551
876.393	23608
876.521	23554
876.65	23425
876.778	23372
876.906	23334
877.034	23391
877.162	23429
877.29	23311
877.418	23334
877.546	23436
877.674	23376
877.802	23425
877.93	23379
878.058	23299
878.185	23140
878.313	23254
878.441	23383
878.568	23227
878.696	23364
878.824	23471
878.951	23482
879.079	23539
879.206	23570
879.333	23501
879.461	23425
879.588	23493
879.715	23558
879.842	23710
879.97	23334
880.097	23250
880.224	23117
880.351	23208
880.478	23269
880.605	23204
880.732	23147
880.859	23421
880.986	23197
881.112	23337
881.239	22923
881.366	22908
881.493	22889
881.619	22717
881.746	22892
881.872	22774
881.999	22767
882.125	22622
882.252	22752
882.378	22809
882.505	22847
882.631	22500
882.757	22485
882.883	22554
883.01	22519
883.136	22398
883.262	22318
883.388	22398
883.514	22535
883.64	22451
883.766	22337
883.892	22169
884.018	22135
884.143	22432
884.269	22474
884.395	22139
884.52	22120
884.646	22063
884.772	22021
884.897	21937
885.023	22097
885.148	22306
885.274	22246
885.399	22112
885.524	22139
885.65	22169
885.775	22112
885.9	22086
886.025	22147
886.15	22017
886.275	22101
886.4	21968
886.525	22059
886.65	21991
886.775	21835
886.9	22185
887.025	22257
887.149	21956
887.274	21915
887.399	21945
887.523	21842
887.648	21888
887.773	21698
887.897	21823
888.021	21960
888.146	21770
888.27	21979
888.395	21968
888.519	21797
888.643	21850
888.767	21751
888.891	21774
889.015	21667
889.139	21747
889.263	21739
889.387	21720
889.511	21823
889.635	21698
889.759	21473
889.883	21595
890.006	21633
890.13	21686
890.254	21519
890.377	21519
890.501	21462
890.624	21408
890.748	21431
890.871	21218
890.995	21176
891.118	21135
891.241	21135
891.364	21199
891.488	21329
891.611	21195
891.734	21260
891.857	21287
891.98	21218
892.103	21188
892.226	21154
892.349	21089
892.471	20979
892.594	21020
892.717	21096
892.839	21051
892.962	21062
893.085	21036
893.207	21055
893.33	20963
893.452	20902
893.575	21074
893.697	21077
893.819	21154
893.941	21249
894.064	21157
894.186	21096
894.308	20895
894.43	21077
894.552	21142
894.674	21199
894.796	20842
894.918	20937
895.04	21009
895.161	20994
895.283	21085
895.405	20849
895.526	21043
895.648	20864
895.769	20998
895.891	21032
896.012	21211
896.134	21081
896.255	21028
896.376	21028
896.498	21055
896.619	21173
896.74	21039
896.861	21116
896.982	21348
897.103	21458
897.224	21268
897.345	21203
897.466	21184
897.587	21176
897.708	21329
897.828	21184
897.949	21096
898.07	21112
898.19	21169
898.311	21252
898.431	21233
898.552	21112
898.672	21378
898.792	21252
898.913	21245
899.033	21165
899.153	21066
899.273	20887
899.393	21066
899.513	21089
899.633	21081
899.753	20918
899.873	20967
899.993	20967
900.113	20819
900.232	20811
900.352	20941
900.472	20823
900.591	20716
900.711	20845
900.83	20689
900.95	20792
901.069	20849
901.189	20762
901.308	20488
901.427	20267
901.546	20347
901.665	20294
901.784	20248
901.904	20183
902.023	20081
902.141	19928
902.26	19894
902.379	19944
902.498	19864
902.617	19734
902.735	19875
902.854	19719
902.973	19685
903.091	19441
903.21	19388
903.328	19540
903.446	19384
903.565	19358
903.683	19289
903.801	19225
903.919	19152
904.038	19129
904.156	18920
904.274	19080
904.392	19183
904.51	19004
904.627	18947
904.745	18996
904.863	19004
904.981	18928
905.098	18700
905.216	18669
905.334	18779
905.451	18688
905.569	18677
905.686	18753
905.803	18707
905.921	18559
906.038	18608
906.155	18422
906.272	18410
906.389	18429
906.506	18114
906.623	18209
906.74	18197
906.857	18102
906.974	18098
907.091	18342
907.208	18330
907.324	18262
907.441	18159
907.557	17897
907.674	17984
907.79	17843
907.907	17855
908.023	17935
908.139	17855
908.256	17764
908.372	17737
908.488	17786
908.604	17672
908.72	17642
908.836	17722
908.952	17539
909.068	17668
909.184	17760
909.3	17596
909.415	17649
909.531	17646
909.647	17326
909.762	17353
909.878	17402
909.993	17391
910.108	17277
910.224	17299
910.339	17250
910.454	17235
910.57	17162
910.685	16938
910.8	17402
910.915	17235
911.03	17067
911.145	16987
911.259	16831
911.374	16820
911.489	16911
911.604	16725
911.718	16641
911.833	16607
911.947	16531
912.062	16588
912.176	16660
912.291	16653
912.405	16653
912.519	16812
912.633	16805
912.748	16725
912.862	16611
912.976	16565
913.09	16371
913.204	16405
913.318	16542
913.431	16470
913.545	16481
913.659	16596
913.772	16390
913.886	16318
914	16246
914.113	16348
914.226	16462
914.34	16268
914.453	16116
914.566	16318
914.68	16124
914.793	16071
914.906	15960
915.019	15865
915.132	15873
915.245	15842
915.358	15850
915.47	15800
915.583	15747
915.696	15827
915.809	15880
915.921	15911
916.034	15816
916.146	15759
916.259	15755
916.371	15660
916.483	15785
916.595	15709
916.708	15759
916.82	15564
916.932	15705
917.044	15610
917.156	15625
917.268	15568
917.38	15488
917.491	15428
917.603	15542
917.715	15477
917.826	15469
917.938	15317
918.049	15325
918.161	15405
918.272	15553
918.384	15526
918.495	15382
918.606	15291
918.717	15135
918.828	15230
918.939	15169
919.05	15089
919.161	15180
919.272	14944
919.383	15028
919.494	15302
919.604	15302
919.715	15218
919.826	15077
919.936	15112
920.047	15195
920.157	15154
920.267	15378
920.378	15184
920.488	15108
920.598	15226
920.708	15542
920.818	15321
920.928	15317
921.038	15420
921.148	15310
921.258	15097
921.368	15066
921.477	14883
921.587	14800
921.697	14743
921.806	14849
921.916	14667
922.025	14644
922.134	14473
922.244	14522
922.353	14579
922.462	14450
922.571	14374
922.68	14221
922.789	14123
922.898	14084
923.007	14084
923.116	14164
923.224	14103
923.333	14096
923.442	13951
923.55	14024
923.659	14008
923.767	13868
923.876	13902
923.984	14024
924.092	13837
924.201	13875
924.309	13841
924.417	13875
924.525	13795
924.633	13795
924.741	14488
924.849	13636
924.956	13738
925.064	13586
925.172	13449
925.279	13396
925.387	13616
925.494	13540
925.602	13643
925.709	13594
925.816	13460
925.924	13426
926.031	13540
926.138	13525
926.245	13476
926.352	13343
926.459	13495
926.566	13487
926.673	13320
926.779	13274
926.886	13327
926.993	13129
927.099	12981
927.206	13019
927.312	12935
927.419	13076
927.525	13046
927.631	13103
927.737	12905
927.843	12924
927.95	12768
928.056	12958
928.162	12966
928.267	12920
928.373	13552
928.479	12897
928.585	12707
928.69	12829
928.796	12867
928.901	12715
929.007	12525
929.112	12703
929.218	12669
929.323	12585
929.428	12532
929.533	12684
929.638	12513
929.743	12483
929.848	12544
929.953	12540
930.058	12498
930.163	12232
930.267	12304
930.372	12330
930.477	12224
930.581	12437
930.685	12304
930.79	12121
930.894	12205
930.998	12098
931.103	12254
931.207	11927
931.311	11855
931.415	11718
931.519	11539
931.623	11463
