Data from test_V78500241_1780.txt Node
Date: Fri Mar 25 15:54:07 CST 2022
User: usil
Spectrometer: V785-0024
Trigger mode: 0
Integration Time (sec): 4.000000E-1
Scans to average: 1
Nonlinearity correction enabled: false
Boxcar width: 0
Storing dark spectrum: false
XAxis mode: Wavelengths
Number of Pixels in Spectrum: 1024
>>>>>Begin Spectral Data<<<<<
801.071	28584
801.214	28599
801.356	28394
801.499	28341
801.641	28200
801.783	28219
801.926	28112
802.068	28166
802.211	28051
802.353	28051
802.496	27835
802.638	27979
802.78	27895
802.923	27869
803.065	27789
803.208	27759
803.35	27960
803.492	28059
803.635	28242
803.777	27991
803.919	28040
804.061	28291
804.204	28185
804.346	28013
804.488	28147
804.63	28078
804.773	28036
804.915	28162
805.057	28284
805.199	28097
805.341	28249
805.483	28173
805.626	28223
805.768	28158
805.91	28280
806.052	28299
806.194	28246
806.336	28409
806.478	28284
806.62	28246
806.762	28398
806.904	28653
807.046	28733
807.188	28793
807.33	28850
807.472	28862
807.614	28691
807.756	28615
807.898	28679
808.04	28493
808.182	28531
808.324	28615
808.465	28752
808.607	28862
808.749	28961
808.891	28968
809.033	29117
809.174	28892
809.316	28908
809.458	28862
809.6	28965
809.741	29041
809.883	29109
810.025	29284
810.166	29246
810.308	29155
810.45	29250
810.591	29147
810.733	29010
810.875	28949
811.016	28946
811.158	28888
811.299	29086
811.441	29151
811.582	29098
811.724	28927
811.865	29090
812.007	28888
812.148	28972
812.29	29090
812.431	29181
812.573	29364
812.714	29235
812.855	29520
812.997	29737
813.138	29707
813.279	29581
813.421	29589
813.562	29349
813.703	29311
813.845	29258
813.986	28877
814.127	28816
814.268	28797
814.41	28637
814.551	28622
814.692	28748
814.833	28641
814.974	28717
815.115	28725
815.256	28603
815.397	28592
815.539	28611
815.68	28577
815.821	28287
815.962	28489
816.103	28599
816.244	28341
816.385	28234
816.526	28287
816.666	27964
816.807	27975
816.948	27895
817.089	28093
817.23	27998
817.371	27861
817.512	27987
817.653	27922
817.793	27827
817.934	27956
818.075	27964
818.216	28048
818.356	27884
818.497	27857
818.638	27675
818.778	27583
818.919	27770
819.06	27686
819.2	27914
819.341	27975
819.481	27850
819.622	28116
819.762	28238
819.903	28322
820.043	28234
820.184	28192
820.324	28150
820.465	28196
820.605	28078
820.746	28242
820.886	27987
821.026	28128
821.167	28051
821.307	28116
821.447	27972
821.588	28040
821.728	27667
821.868	27713
822.008	27469
822.149	27507
822.289	27553
822.429	27283
822.569	27249
822.709	27203
822.849	27001
822.99	26998
823.13	26982
823.27	27017
823.41	26689
823.55	26708
823.69	26899
823.83	26845
823.97	26804
824.11	26514
824.25	26613
824.389	26659
824.529	26670
824.669	26613
824.809	26682
824.949	26587
825.089	26804
825.228	26621
825.368	26533
825.508	26415
825.648	26423
825.787	26530
825.927	26488
826.067	26488
826.206	26476
826.346	26457
826.485	26473
826.625	26370
826.765	26556
826.904	26518
827.044	26187
827.183	26476
827.323	26381
827.462	26103
827.601	26122
827.741	26286
827.88	26187
828.02	26111
828.159	26240
828.298	26199
828.437	26252
828.577	26119
828.716	26370
828.855	26176
828.994	25970
829.134	25845
829.273	25928
829.412	26008
829.551	25776
829.69	25936
829.829	25868
829.968	25902
830.107	25932
830.246	25898
830.385	25959
830.524	25833
830.663	25696
830.802	25582
830.941	25457
831.08	25350
831.219	25510
831.357	25601
831.496	25772
831.635	25487
831.774	25350
831.913	25472
832.051	25335
832.19	25339
832.329	25373
832.467	25274
832.606	25133
832.744	25107
832.883	25126
833.022	25190
833.16	25133
833.299	25206
833.437	25164
833.576	25221
833.714	25320
833.852	25240
833.991	25190
834.129	25335
834.267	25312
834.406	25209
834.544	25221
834.682	25240
834.821	25301
834.959	25491
835.097	25209
835.235	25263
835.373	25274
835.511	25255
835.65	25152
835.788	25095
835.926	25042
836.064	24867
836.202	24962
836.34	25019
836.478	25148
836.615	25065
836.753	25057
836.891	25088
837.029	25107
837.167	25080
837.305	24852
837.443	24939
837.58	24924
837.718	24916
837.856	24916
837.993	24631
838.131	24920
838.269	24738
838.406	24760
838.544	24711
838.681	24540
838.819	24505
838.956	24300
839.094	24334
839.231	24441
839.369	24486
839.506	24791
839.643	24627
839.781	24361
839.918	24235
840.055	24361
840.193	24338
840.33	24209
840.467	24319
840.604	24327
840.742	24445
840.879	24174
841.016	24064
841.153	24209
841.29	24311
841.427	24155
841.564	24281
841.701	24201
841.838	24285
841.975	24209
842.112	24152
842.249	24045
842.385	23946
842.522	24266
842.659	24292
842.796	23931
842.933	24018
843.069	23961
843.206	23878
843.343	24007
843.479	23961
843.616	23935
843.752	23745
843.889	23878
844.025	23969
844.162	23843
844.298	23889
844.435	23745
844.571	23832
844.708	23813
844.844	23908
844.98	23843
845.117	23821
845.253	23817
845.389	23570
845.525	23718
845.661	23695
845.798	23433
845.934	23710
846.07	23448
846.206	23372
846.342	23596
846.478	23448
846.614	23360
846.75	23143
846.886	23212
847.022	23349
847.158	23265
847.294	23284
847.429	23227
847.565	23010
847.701	23353
847.837	22984
847.972	22957
848.108	23105
848.244	23170
848.379	22873
848.515	22877
848.65	22904
848.786	22809
848.921	22900
849.057	22938
849.192	22957
849.328	22797
849.463	22854
849.598	22847
849.734	22706
849.869	22721
850.004	22607
850.14	22634
850.275	22504
850.41	22561
850.545	22565
850.68	22550
850.815	22630
850.95	22557
851.085	22752
851.22	22740
851.355	22584
851.49	22565
851.625	22557
851.76	22428
851.895	22402
852.03	22557
852.165	22546
852.299	22592
852.434	22603
852.569	22584
852.703	22512
852.838	22641
852.973	22675
853.107	22752
853.242	22481
853.376	22409
853.511	22325
853.645	22337
853.78	22535
853.914	22447
854.048	22295
854.183	22367
854.317	22455
854.451	22664
854.585	22356
854.72	22306
854.854	22451
854.988	22329
855.122	22500
855.256	22344
855.39	22344
855.524	22413
855.658	22478
855.792	22550
855.926	22500
856.06	22417
856.194	22337
856.327	22421
856.461	22318
856.595	22398
856.729	22253
856.862	22580
856.996	22382
857.13	22516
857.263	22493
857.397	22443
857.53	22390
857.664	22417
857.797	22402
857.931	22523
858.064	22405
858.197	22561
858.331	22284
858.464	22405
858.597	22234
858.731	22409
858.864	22371
858.997	22249
859.13	22306
859.263	22432
859.396	22466
859.529	22375
859.662	22341
859.795	22325
859.928	22386
860.061	22500
860.194	22538
860.327	22386
860.46	22405
860.592	22417
860.725	22580
860.858	22599
860.99	22360
861.123	22329
861.256	22421
861.388	22478
861.521	22980
861.653	22215
861.786	22128
861.918	22211
862.05	22268
862.183	22306
862.315	22436
862.447	22394
862.58	22261
862.712	22029
862.844	22029
862.976	22188
863.108	22154
863.24	22432
863.372	22044
863.504	22010
863.636	21987
863.768	22067
863.9	22116
864.032	22097
864.164	22120
864.296	22192
864.428	22188
864.559	22169
864.691	22139
864.823	22074
864.954	22051
865.086	22112
865.217	21953
865.349	21865
865.48	22002
865.612	21911
865.743	22059
865.875	22048
866.006	21934
866.137	22006
866.269	21956
866.4	22044
866.531	22002
866.662	21812
866.793	21876
866.924	21926
867.055	22010
867.186	21907
867.317	21945
867.448	21755
867.579	21903
867.71	22048
867.841	21892
867.972	21979
868.103	21895
868.233	21937
868.364	21926
868.495	22006
868.625	22036
868.756	22352
868.886	22101
869.017	22131
869.147	22128
869.278	22181
869.408	22169
869.539	22105
869.669	22242
869.799	22299
869.929	22291
870.06	22196
870.19	22466
870.32	22500
870.45	22535
870.58	22523
870.71	22622
870.84	22523
870.97	22580
871.1	22451
871.23	22759
871.36	22721
871.489	22710
871.619	22748
871.749	22733
871.879	22729
872.008	22946
872.138	22755
872.267	22713
872.397	22649
872.526	22660
872.656	22535
872.785	22519
872.915	22626
873.044	22892
873.173	22797
873.303	22812
873.432	22869
873.561	22828
873.69	22694
873.819	22774
873.948	22694
874.077	22729
874.206	22717
874.335	22778
874.464	22908
874.593	22976
874.722	22953
874.851	23048
874.979	22968
875.108	23094
875.237	22915
875.365	22866
875.494	22942
875.623	22984
875.751	22957
875.88	22987
876.008	23197
876.136	23140
876.265	23299
876.393	23425
876.521	23467
876.65	23349
876.778	23345
876.906	23284
877.034	23334
877.162	23414
877.29	23326
877.418	23330
877.546	23360
877.674	23246
877.802	23261
877.93	23273
878.058	23311
878.185	23208
878.313	23277
878.441	23315
878.568	22965
878.696	23269
878.824	23444
878.951	23345
879.079	23482
879.206	23634
879.333	23448
879.461	23379
879.588	23452
879.715	23463
879.842	23566
879.97	23395
880.097	23060
880.224	23128
880.351	23250
880.478	23124
880.605	23159
880.732	23113
880.859	23311
880.986	23109
881.112	23155
881.239	23117
881.366	22968
881.493	22763
881.619	22763
881.746	22679
881.872	22687
881.999	22630
882.125	22645
882.252	22698
882.378	22668
882.505	22763
882.631	22523
882.757	22394
882.883	22455
883.01	22443
883.136	22280
883.262	22135
883.388	22268
883.514	22234
883.64	22348
883.766	22177
883.892	22112
884.018	22166
884.143	22329
884.269	22322
884.395	22063
884.52	22067
884.646	21983
884.772	21941
884.897	21930
885.023	22048
885.148	22093
885.274	22120
885.399	22097
885.524	22021
885.65	22006
885.775	21949
885.9	22032
886.025	21968
886.15	22135
886.275	21876
886.4	21926
886.525	21941
886.65	21793
886.775	21960
886.9	22040
887.025	22230
887.149	21972
887.274	21865
887.399	21808
887.523	21865
887.648	21732
887.773	21709
887.897	21770
888.021	21823
888.146	21656
888.27	21785
888.395	21911
888.519	21819
888.643	21774
888.767	21751
888.891	21618
889.015	21610
889.139	21606
889.263	21500
889.387	21728
889.511	21720
889.635	21618
889.759	21500
889.883	21492
890.006	21599
890.13	21652
890.254	21549
890.377	21435
890.501	21317
890.624	21112
890.748	21264
890.871	21192
890.995	21184
891.118	21039
891.241	21138
891.364	21112
891.488	21188
891.611	21138
891.734	21108
891.857	21176
891.98	21146
892.103	21195
892.226	21138
892.349	21089
892.471	20971
892.594	20986
892.717	21161
892.839	21001
892.962	21039
893.085	20994
893.207	21074
893.33	20853
893.452	20975
893.575	20941
893.697	20918
893.819	21032
893.941	21192
894.064	21077
894.186	20982
894.308	20826
894.43	21127
894.552	21138
894.674	21017
894.796	20918
894.918	21070
895.04	20982
895.161	20975
895.283	20910
895.405	20895
895.526	21020
895.648	20963
895.769	21013
895.891	20967
896.012	20963
896.134	21028
896.255	21043
896.376	21028
896.498	20891
896.619	21043
896.74	20918
896.861	21085
896.982	21184
897.103	21401
897.224	21298
897.345	21272
897.466	21100
897.587	21096
897.708	21230
897.828	21161
897.949	21131
898.07	21036
898.19	21093
898.311	21397
898.431	21058
898.552	21214
898.672	21180
898.792	21207
898.913	21100
899.033	21112
899.153	21017
899.273	20895
899.393	20861
899.513	20960
899.633	20876
899.753	20918
899.873	20880
899.993	20864
900.113	20838
900.232	20956
900.352	20773
900.472	20773
900.591	20693
900.711	20689
900.83	20682
900.95	20697
901.069	20716
901.189	20423
901.308	20290
901.427	20214
901.546	20218
901.665	20290
901.784	20305
901.904	20149
902.023	20054
902.141	19712
902.26	19681
902.379	19803
902.498	19795
902.617	19830
902.735	19845
902.854	19696
902.973	19696
903.091	19365
903.21	19346
903.328	19377
903.446	19266
903.565	19209
903.683	19259
903.801	19027
903.919	19232
904.038	19175
904.156	18928
904.274	18970
904.392	18954
904.51	18977
904.627	18973
904.745	19031
904.863	18973
904.981	18806
905.098	18730
905.216	18635
905.334	18669
905.451	18707
905.569	18589
905.686	18639
905.803	18639
905.921	18399
906.038	18494
906.155	18517
906.272	18384
906.389	18418
906.506	18232
906.623	18182
906.74	18174
906.857	18019
906.974	18007
907.091	18346
907.208	18289
907.324	18190
907.441	18034
907.557	17885
907.674	17874
907.79	17764
907.907	17923
908.023	17824
908.139	17783
908.256	17764
908.372	17798
908.488	17748
908.604	17630
908.72	17589
908.836	17638
908.952	17505
909.068	17551
909.184	17642
909.3	17623
909.415	17668
909.531	17547
909.647	17334
909.762	17197
909.878	17250
909.993	17269
910.108	17345
910.224	17143
910.339	17239
910.454	17185
910.57	17086
910.685	16991
910.8	17227
910.915	17216
911.03	17010
911.145	16942
911.259	16866
911.374	16854
911.489	16889
911.604	16786
911.718	16580
911.833	16626
911.947	16565
912.062	16512
912.176	16626
912.291	16687
912.405	16531
912.519	16694
912.633	16717
912.748	16626
912.862	16603
912.976	16382
913.09	16272
913.204	16238
913.318	16344
913.431	16424
913.545	16519
913.659	16561
913.772	16382
913.886	16230
914	16185
914.113	16344
914.226	16238
914.34	16272
914.453	16116
914.566	16185
914.68	16120
914.793	16032
914.906	15956
915.019	15816
915.132	15797
915.245	15789
915.358	15781
915.47	15816
915.583	15804
915.696	15846
915.809	15937
915.921	15991
916.034	15705
916.146	15633
916.259	15606
916.371	15778
916.483	15732
916.595	15557
916.708	15599
916.82	15644
916.932	15584
917.044	15473
917.156	15424
917.268	15336
917.38	15481
917.491	15428
917.603	15370
917.715	15488
917.826	15454
917.938	15393
918.049	15279
918.161	15389
918.272	15496
918.384	15504
918.495	15317
918.606	15249
918.717	15116
918.828	15237
918.939	15188
919.05	15081
919.161	15123
919.272	14845
919.383	14990
919.494	15188
919.604	15382
919.715	15108
919.826	15017
919.936	14998
920.047	15074
920.157	15108
920.267	15237
920.378	15100
920.488	15081
920.598	15256
920.708	15313
920.818	15184
920.928	15135
921.038	15378
921.148	15336
921.258	15009
921.368	14906
921.477	14845
921.587	14853
921.697	14743
921.806	14834
921.916	14682
922.025	14549
922.134	14393
922.244	14404
922.353	14438
922.462	14366
922.571	14267
922.68	14195
922.789	14199
922.898	14084
923.007	14100
923.116	14084
923.224	14027
923.333	14096
923.442	13921
923.55	13997
923.659	13940
923.767	13963
923.876	13921
923.984	13970
924.092	13738
924.201	13833
924.309	13913
924.417	13803
924.525	13776
924.633	13776
924.741	14499
924.849	13529
924.956	13632
925.064	13529
925.172	13426
925.279	13426
925.387	13605
925.494	13510
925.602	13590
925.709	13529
925.816	13453
925.924	13449
926.031	13491
926.138	13441
926.245	13426
926.352	13301
926.459	13449
926.566	13426
926.673	13350
926.779	13168
926.886	13187
926.993	13042
927.099	13069
927.206	13023
927.312	13008
927.419	13198
927.525	12943
927.631	13050
927.737	12962
927.843	12840
927.95	12749
928.056	12863
928.162	12821
928.267	13008
928.373	13457
928.479	12951
928.585	12673
928.69	12802
928.796	12833
928.901	12662
929.007	12536
929.112	12745
929.218	12570
929.323	12604
929.428	12608
929.533	12665
929.638	12525
929.743	12532
929.848	12593
929.953	12555
930.058	12399
930.163	12213
930.267	12178
930.372	12426
930.477	12232
930.581	12437
930.685	12254
930.79	12121
930.894	12133
930.998	12175
931.103	12232
931.207	11843
931.311	11809
931.415	11684
931.519	11433
931.623	11524
