Data from test_V78500241_1594.txt Node
Date: Fri Mar 25 15:52:50 CST 2022
User: usil
Spectrometer: V785-0024
Trigger mode: 0
Integration Time (sec): 4.000000E-1
Scans to average: 1
Nonlinearity correction enabled: false
Boxcar width: 0
Storing dark spectrum: false
XAxis mode: Wavelengths
Number of Pixels in Spectrum: 1024
>>>>>Begin Spectral Data<<<<<
801.071	28268
801.214	28109
801.356	28017
801.499	27831
801.641	27835
801.783	27724
801.926	27914
802.068	27846
802.211	27701
802.353	27583
802.496	27568
802.638	27431
802.78	27306
802.923	27302
803.065	27325
803.208	27405
803.35	27427
803.492	27690
803.635	27675
803.777	27500
803.919	27583
804.061	27873
804.204	27728
804.346	27644
804.488	27576
804.63	27667
804.773	27530
804.915	27690
805.057	27880
805.199	27778
805.341	27827
805.483	27823
805.626	27713
805.768	27701
805.91	27728
806.052	27846
806.194	27694
806.336	27914
806.478	27728
806.62	27675
806.762	27949
806.904	28002
807.046	28360
807.188	28196
807.33	28272
807.472	28211
807.614	28177
807.756	28291
807.898	28185
808.04	28010
808.182	28074
808.324	28086
808.465	28097
808.607	28246
808.749	28459
808.891	28622
809.033	28535
809.174	28603
809.316	28348
809.458	28424
809.6	28455
809.741	28656
809.883	28561
810.025	28771
810.166	28710
810.308	28786
810.45	28713
810.591	28626
810.733	28455
810.875	28443
811.016	28421
811.158	28325
811.299	28401
811.441	28649
811.582	28618
811.724	28371
811.865	28440
812.007	28470
812.148	28405
812.29	28527
812.431	28596
812.573	28763
812.714	28774
812.855	28900
812.997	29060
813.138	29174
813.279	29117
813.421	28968
813.562	28900
813.703	28847
813.845	28653
813.986	28512
814.127	28348
814.268	28067
814.41	28249
814.551	28116
814.692	28257
814.833	28059
814.974	28242
815.115	28143
815.256	27979
815.397	28051
815.539	28036
815.68	28063
815.821	27854
815.962	27873
816.103	27903
816.244	27770
816.385	27854
816.526	27743
816.666	27610
816.807	27469
816.948	27408
817.089	27473
817.23	27466
817.371	27435
817.512	27572
817.653	27401
817.793	27416
817.934	27507
818.075	27408
818.216	27492
818.356	27431
818.497	27245
818.638	27272
818.778	27074
818.919	27100
819.06	27241
819.2	27359
819.341	27443
819.481	27450
819.622	27595
819.762	27713
819.903	27523
820.043	27660
820.184	27572
820.324	27614
820.465	27656
820.605	27485
820.746	27477
820.886	27443
821.026	27599
821.167	27443
821.307	27572
821.447	27427
821.588	27386
821.728	27195
821.868	26975
822.008	26891
822.149	26979
822.289	26975
822.429	26708
822.569	26575
822.709	26678
822.849	26461
822.99	26332
823.13	26332
823.27	26317
823.41	26259
823.55	26199
823.69	26358
823.83	26237
823.97	26130
824.11	26092
824.25	25925
824.389	26111
824.529	26199
824.669	26050
824.809	26172
824.949	26164
825.089	26180
825.228	26142
825.368	25791
825.508	25993
825.648	26046
825.787	25982
825.927	26081
826.067	25932
826.206	26035
826.346	26005
826.485	26050
826.625	26008
826.765	26092
826.904	26005
827.044	25845
827.183	25753
827.323	25674
827.462	25605
827.601	25674
827.741	25708
827.88	25845
828.02	25460
828.159	25643
828.298	25795
828.437	25685
828.577	25643
828.716	25731
828.855	25651
828.994	25426
829.134	25487
829.273	25407
829.412	25453
829.551	25304
829.69	25354
829.829	25362
829.968	25434
830.107	25552
830.246	25320
830.385	25206
830.524	25263
830.663	25266
830.802	25126
830.941	24905
831.08	24943
831.219	25164
831.357	25019
831.496	25247
831.635	25053
831.774	25008
831.913	24840
832.051	24745
832.19	24768
832.329	24909
832.467	24673
832.606	24464
832.744	24563
832.883	24753
833.022	24661
833.16	24681
833.299	24650
833.437	24681
833.576	24738
833.714	24696
833.852	24878
833.991	24833
834.129	24817
834.267	24776
834.406	24658
834.544	24741
834.682	24779
834.821	24673
834.959	24905
835.097	24639
835.235	24715
835.373	24700
835.511	24616
835.65	24536
835.788	24604
835.926	24448
836.064	24266
836.202	24292
836.34	24570
836.478	24620
836.615	24414
836.753	24536
836.891	24707
837.029	24585
837.167	24502
837.305	24388
837.443	24460
837.58	24414
837.718	24418
837.856	24505
837.993	24319
838.131	24323
838.269	24311
838.406	24372
838.544	24239
838.681	24068
838.819	23996
838.956	23920
839.094	23813
839.231	23889
839.369	24041
839.506	24098
839.643	24072
839.781	23779
839.918	23726
840.055	23779
840.193	23786
840.33	23878
840.467	23863
840.604	23866
840.742	23901
840.879	23630
841.016	23809
841.153	23611
841.29	23863
841.427	23722
841.564	23562
841.701	23733
841.838	23581
841.975	23859
842.112	23665
842.249	23531
842.385	23676
842.522	23840
842.659	23577
842.796	23425
842.933	23539
843.069	23543
843.206	23570
843.343	23516
843.479	23516
843.616	23543
843.752	23311
843.889	23299
844.025	23497
844.162	23288
844.298	23326
844.435	23345
844.571	23242
844.708	23444
844.844	23421
844.98	23334
845.117	23448
845.253	23284
845.389	23147
845.525	23258
845.661	23098
845.798	23037
845.934	23052
846.07	23022
846.206	23075
846.342	23136
846.478	23003
846.614	22812
846.75	22767
846.886	22790
847.022	22805
847.158	22873
847.294	22698
847.429	22793
847.565	22698
847.701	22934
847.837	22462
847.972	22443
848.108	22580
848.244	22569
848.379	22382
848.515	22497
848.65	22363
848.786	22325
848.921	22325
849.057	22398
849.192	22405
849.328	22363
849.463	22344
849.598	22314
849.734	22188
849.869	22086
850.004	22192
850.14	22226
850.275	22158
850.41	22021
850.545	21945
850.68	22093
850.815	22086
850.95	22166
851.085	22348
851.22	22162
851.355	22173
851.49	22070
851.625	22010
851.76	22006
851.895	22032
852.03	22002
852.165	22025
852.299	22036
852.434	22135
852.569	22078
852.703	22177
852.838	22158
852.973	22253
853.107	22135
853.242	22097
853.376	21899
853.511	21812
853.645	21994
853.78	21991
853.914	21915
854.048	21838
854.183	21857
854.317	21972
854.451	22063
854.585	21812
854.72	21937
854.854	22013
854.988	21835
855.122	21941
855.256	21846
855.39	21911
855.524	21987
855.658	21949
855.792	21842
855.926	21937
856.06	21941
856.194	21949
856.327	21949
856.461	21911
856.595	21854
856.729	21854
856.862	22074
856.996	21968
857.13	21915
857.263	22032
857.397	21987
857.53	21911
857.664	22010
857.797	21937
857.931	22029
858.064	21983
858.197	22021
858.331	21865
858.464	21869
858.597	21838
858.731	21823
858.864	21915
858.997	21911
859.13	21987
859.263	21979
859.396	21899
859.529	21899
859.662	21869
859.795	21850
859.928	21975
860.061	21994
860.194	22124
860.327	21884
860.46	21869
860.592	22147
860.725	22025
860.858	21998
860.99	22032
861.123	21930
861.256	21835
861.388	21998
861.521	22641
861.653	21720
861.786	21751
861.918	21781
862.05	21751
862.183	21850
862.315	21899
862.447	21937
862.58	21903
862.712	21690
862.844	21667
862.976	21622
863.108	21736
863.24	22063
863.372	21545
863.504	21557
863.636	21637
863.768	21629
863.9	21675
864.032	21530
864.164	21557
864.296	21694
864.428	21743
864.559	21686
864.691	21789
864.823	21682
864.954	21542
865.086	21542
865.217	21519
865.349	21428
865.48	21485
865.612	21542
865.743	21667
865.875	21367
866.006	21473
866.137	21614
866.269	21595
866.4	21500
866.531	21545
866.662	21466
866.793	21477
866.924	21477
867.055	21458
867.186	21428
867.317	21428
867.448	21302
867.579	21492
867.71	21420
867.841	21340
867.972	21515
868.103	21435
868.233	21321
868.364	21477
868.495	21606
868.625	21599
868.756	21781
868.886	21553
869.017	21713
869.147	21781
869.278	21812
869.408	21812
869.539	21724
869.669	21717
869.799	21739
869.929	21800
870.06	21781
870.19	21994
870.32	22029
870.45	22112
870.58	22036
870.71	22105
870.84	22051
870.97	22162
871.1	22116
871.23	22246
871.36	22303
871.489	22093
871.619	22234
871.749	22337
871.879	22348
872.008	22417
872.138	22284
872.267	22299
872.397	22128
872.526	22074
872.656	22101
872.785	22211
872.915	22356
873.044	22375
873.173	22306
873.303	22299
873.432	22398
873.561	22386
873.69	22234
873.819	22318
873.948	22394
874.077	22310
874.206	22204
874.335	22234
874.464	22474
874.593	22497
874.722	22447
874.851	22478
874.979	22538
875.108	22519
875.237	22466
875.365	22402
875.494	22440
875.623	22607
875.751	22470
875.88	22538
876.008	22679
876.136	22626
876.265	22965
876.393	23067
876.521	22927
876.65	22980
876.778	22984
876.906	22831
877.034	22911
877.162	22957
877.29	22782
877.418	22877
877.546	22801
877.674	22927
877.802	22892
877.93	22778
878.058	22771
878.185	22710
878.313	22725
878.441	22850
878.568	22672
878.696	22782
878.824	22759
878.951	22911
879.079	22995
879.206	23143
879.333	23037
879.461	23029
879.588	22942
879.715	23060
879.842	22972
879.97	23014
880.097	22729
880.224	22675
880.351	22740
880.478	22740
880.605	22519
880.732	22687
880.859	22927
880.986	22683
881.112	22660
881.239	22557
881.366	22375
881.493	22363
881.619	22166
881.746	22322
881.872	22147
881.999	22310
882.125	22280
882.252	22219
882.378	22143
882.505	22367
882.631	22120
882.757	22017
882.883	22109
883.01	21994
883.136	21869
883.262	21698
883.388	21717
883.514	21983
883.64	21972
883.766	21892
883.892	21633
884.018	21583
884.143	21831
884.269	22017
884.395	21663
884.52	21572
884.646	21622
884.772	21443
884.897	21473
885.023	21485
885.148	21614
885.274	21709
885.399	21561
885.524	21572
885.65	21564
885.775	21641
885.9	21595
886.025	21766
886.15	21504
886.275	21462
886.4	21507
886.525	21500
886.65	21408
886.775	21500
886.9	21751
887.025	21778
887.149	21568
887.274	21420
887.399	21389
887.523	21359
887.648	21306
887.773	21291
887.897	21310
888.021	21363
888.146	21283
888.27	21424
888.395	21424
888.519	21348
888.643	21393
888.767	21348
888.891	21298
889.015	21192
889.139	21195
889.263	21157
889.387	21272
889.511	21378
889.635	21241
889.759	21108
889.883	21146
890.006	21112
890.13	21176
890.254	21024
890.377	21119
890.501	20819
890.624	20918
890.748	20933
890.871	20872
890.995	20583
891.118	20636
891.241	20705
891.364	20697
891.488	20944
891.611	20674
891.734	20617
891.857	20670
891.98	20617
892.103	20743
892.226	20739
892.349	20636
892.471	20511
892.594	20640
892.717	20579
892.839	20564
892.962	20727
893.085	20705
893.207	20640
893.33	20389
893.452	20522
893.575	20579
893.697	20507
893.819	20625
893.941	20823
894.064	20765
894.186	20461
894.308	20465
894.43	20625
894.552	20724
894.674	20727
894.796	20545
894.918	20594
895.04	20564
895.161	20636
895.283	20712
895.405	20469
895.526	20530
895.648	20541
895.769	20556
895.891	20651
896.012	20640
896.134	20746
896.255	20606
896.376	20552
896.498	20568
896.619	20648
896.74	20621
896.861	20579
896.982	20815
897.103	20941
897.224	20811
897.345	20815
897.466	20769
897.587	20765
897.708	20880
897.828	20781
897.949	20765
898.07	20640
898.19	20838
898.311	20857
898.431	20674
898.552	20826
898.672	20838
898.792	20830
898.913	20796
899.033	20625
899.153	20583
899.273	20533
899.393	20423
899.513	20655
899.633	20533
899.753	20526
899.873	20446
899.993	20522
900.113	20423
900.232	20488
900.352	20537
900.472	20412
900.591	20332
900.711	20332
900.83	20282
900.95	20530
901.069	20328
901.189	20054
901.308	20073
901.427	19776
901.546	19906
901.665	19788
901.784	19841
901.904	19761
902.023	19693
902.141	19483
902.26	19506
902.379	19544
902.498	19362
902.617	19312
902.735	19453
902.854	19297
902.973	19236
903.091	19126
903.21	19076
903.328	18966
903.446	18962
903.565	18875
903.683	18894
903.801	18757
903.919	18833
904.038	18726
904.156	18726
904.274	18711
904.392	18589
904.51	18559
904.627	18616
904.745	18570
904.863	18639
904.981	18384
905.098	18319
905.216	18251
905.334	18357
905.451	18334
905.569	18224
905.686	18369
905.803	18292
905.921	18049
906.038	18144
906.155	18201
906.272	18003
906.389	17939
906.506	17840
906.623	17870
906.74	17859
906.857	17691
906.974	17668
907.091	17843
907.208	17939
907.324	17779
907.441	17691
907.557	17566
907.674	17516
907.79	17402
907.907	17433
908.023	17528
908.139	17573
908.256	17376
908.372	17330
908.488	17372
908.604	17406
908.72	17231
908.836	17239
908.952	17204
909.068	17223
909.184	17334
909.3	17315
909.415	17239
909.531	17288
909.647	16957
909.762	16938
909.878	16961
909.993	16984
910.108	16835
910.224	16946
910.339	16896
910.454	16752
910.57	16831
910.685	16626
910.8	17025
910.915	16877
911.03	16710
911.145	16660
911.259	16489
911.374	16474
911.489	16474
911.604	16440
911.718	16204
911.833	16204
911.947	16261
912.062	16124
912.176	16238
912.291	16230
912.405	16284
912.519	16470
912.633	16485
912.748	16375
912.862	16272
912.976	16097
913.09	15945
913.204	16059
913.318	16128
913.431	16158
913.545	16120
913.659	16120
913.772	15998
913.886	15926
914	15960
914.113	16048
914.226	16010
914.34	15926
914.453	15778
914.566	15934
914.68	15789
914.793	15812
914.906	15561
915.019	15485
915.132	15500
915.245	15526
915.358	15519
915.47	15473
915.583	15397
915.696	15530
915.809	15629
915.921	15587
916.034	15496
916.146	15408
916.259	15389
916.371	15405
916.483	15447
916.595	15302
916.708	15283
916.82	15298
916.932	15329
917.044	15313
917.156	15268
917.268	15100
917.38	15100
917.491	15119
917.603	15203
917.715	15116
917.826	15207
917.938	15055
918.049	15001
918.161	15062
918.272	15085
918.384	15157
918.495	15039
918.606	14960
918.717	14887
918.828	14800
918.939	14891
919.05	14746
919.161	14796
919.272	14670
919.383	14686
919.494	14910
919.604	15077
919.715	14849
919.826	14724
919.936	14804
920.047	14826
920.157	14853
920.267	15024
920.378	14792
920.488	14804
920.598	14876
920.708	15138
920.818	14902
920.928	14861
921.038	15116
921.148	14998
921.258	14773
921.368	14712
921.477	14575
921.587	14514
921.697	14488
921.806	14598
921.916	14370
922.025	14202
922.134	14218
922.244	14187
922.353	14240
922.462	14100
922.571	14001
922.68	13898
922.789	13902
922.898	13890
923.007	13757
923.116	13932
923.224	13849
923.333	13765
923.442	13670
923.55	13704
923.659	13712
923.767	13765
923.876	13613
923.984	13647
924.092	13571
924.201	13632
924.309	13575
924.417	13582
924.525	13438
924.633	13510
924.741	14457
924.849	13320
924.956	13422
925.064	13282
925.172	13190
925.279	13217
925.387	13282
925.494	13285
925.602	13308
925.709	13285
925.816	13141
925.924	13183
926.031	13327
926.138	13145
926.245	13282
926.352	13137
926.459	13152
926.566	13202
926.673	13099
926.779	13000
926.886	12939
926.993	12825
927.099	12787
927.206	12749
927.312	12757
927.419	12787
927.525	12757
927.631	12810
927.737	12684
927.843	12589
927.95	12555
928.056	12623
928.162	12589
928.267	12722
928.373	13293
928.479	12654
928.585	12513
928.69	12559
928.796	12681
928.901	12433
929.007	12300
929.112	12475
929.218	12395
929.323	12372
929.428	12342
929.533	12521
929.638	12285
929.743	12258
929.848	12224
929.953	12270
930.058	12159
930.163	11927
930.267	12019
930.372	12121
930.477	11958
930.581	12209
930.685	12136
930.79	11843
930.894	11866
930.998	11893
931.103	11935
931.207	11748
931.311	11570
931.415	11493
931.519	11345
931.623	11277
