Data from test_V78500241_2877.txt Node
Date: Fri Mar 25 16:01:43 CST 2022
User: usil
Spectrometer: V785-0024
Trigger mode: 0
Integration Time (sec): 4.000000E-1
Scans to average: 1
Nonlinearity correction enabled: false
Boxcar width: 0
Storing dark spectrum: false
XAxis mode: Wavelengths
Number of Pixels in Spectrum: 1024
>>>>>Begin Spectral Data<<<<<
801.071	28386
801.214	28440
801.356	28200
801.499	28196
801.641	28032
801.783	27979
801.926	28116
802.068	28074
802.211	28135
802.353	27949
802.496	27701
802.638	27793
802.78	27690
802.923	27747
803.065	27641
803.208	27644
803.35	27827
803.492	27759
803.635	27972
803.777	27865
803.919	27880
804.061	28272
804.204	27975
804.346	27899
804.488	27892
804.63	27926
804.773	27865
804.915	28002
805.057	27987
805.199	27869
805.341	28006
805.483	28166
805.626	28063
805.768	27903
805.91	28029
806.052	28097
806.194	28059
806.336	28325
806.478	28166
806.62	28162
806.762	28322
806.904	28352
807.046	28679
807.188	28573
807.33	28386
807.472	28698
807.614	28531
807.756	28516
807.898	28443
808.04	28516
808.182	28371
808.324	28348
808.465	28424
808.607	28687
808.749	28812
808.891	28896
809.033	28885
809.174	28740
809.316	28664
809.458	28858
809.6	28854
809.741	28972
809.883	28953
810.025	29083
810.166	29060
810.308	29041
810.45	29025
810.591	28934
810.733	28858
810.875	28896
811.016	28649
811.158	28694
811.299	28949
811.441	28896
811.582	29014
811.724	28729
811.865	28694
812.007	28801
812.148	28793
812.29	28778
812.431	28972
812.573	29064
812.714	29166
812.855	29299
812.997	29395
813.138	29596
813.279	29349
813.421	29372
813.562	29307
813.703	28961
813.845	29006
813.986	28763
814.127	28577
814.268	28401
814.41	28573
814.551	28424
814.692	28512
814.833	28474
814.974	28500
815.115	28527
815.256	28417
815.397	28337
815.539	28333
815.68	28276
815.821	28192
815.962	28341
816.103	28287
816.244	28310
816.385	28177
816.526	28090
816.666	27892
816.807	27854
816.948	27873
817.089	27994
817.23	27819
817.371	27797
817.512	27728
817.653	27778
817.793	27793
817.934	27842
818.075	27724
818.216	27781
818.356	27671
818.497	27648
818.638	27420
818.778	27576
818.919	27492
819.06	27534
819.2	27690
819.341	27838
819.481	27675
819.622	27964
819.762	28177
819.903	28074
820.043	28147
820.184	27812
820.324	27876
820.465	28143
820.605	27941
820.746	27903
820.886	27789
821.026	27987
821.167	27842
821.307	27918
821.447	27827
821.588	27850
821.728	27603
821.868	27504
822.008	27260
822.149	27237
822.289	27245
822.429	27013
822.569	26994
822.709	26933
822.849	26910
822.99	26819
823.13	26640
823.27	26815
823.41	26514
823.55	26484
823.69	26526
823.83	26594
823.97	26579
824.11	26438
824.25	26313
824.389	26473
824.529	26560
824.669	26442
824.809	26609
824.949	26575
825.089	26552
825.228	26415
825.368	26172
825.508	26275
825.648	26355
825.787	26370
825.927	26442
826.067	26278
826.206	26351
826.346	26233
826.485	26358
826.625	26282
826.765	26404
826.904	26298
827.044	26164
827.183	26077
827.323	26092
827.462	26031
827.601	26001
827.741	26046
827.88	26050
828.02	25936
828.159	25944
828.298	26058
828.437	26046
828.577	25925
828.716	25986
828.855	25917
828.994	25643
829.134	25715
829.273	25807
829.412	25784
829.551	25696
829.69	25575
829.829	25750
829.968	25689
830.107	25791
830.246	25651
830.385	25597
830.524	25525
830.663	25506
830.802	25445
830.941	25301
831.08	25396
831.219	25468
831.357	25540
831.496	25544
831.635	25198
831.774	25232
831.913	25369
832.051	25190
832.19	25053
832.329	25221
832.467	24943
832.606	24821
832.744	24924
832.883	24989
833.022	24928
833.16	24894
833.299	25042
833.437	24981
833.576	24989
833.714	24981
833.852	25027
833.991	25069
834.129	25080
834.267	25194
834.406	25065
834.544	25088
834.682	25080
834.821	25015
834.959	25156
835.097	25027
835.235	25107
835.373	25110
835.511	24985
835.65	24970
835.788	24954
835.926	24646
836.064	24795
836.202	24612
836.34	24844
836.478	24939
836.615	24920
836.753	24837
836.891	25061
837.029	24791
837.167	24696
837.305	24722
837.443	24848
837.58	24768
837.718	24677
837.856	24730
837.993	24681
838.131	24642
838.269	24627
838.406	24654
838.544	24456
838.681	24380
838.819	24308
838.956	24251
839.094	24220
839.231	24197
839.369	24330
839.506	24563
839.643	24285
839.781	24121
839.918	24213
840.055	24125
840.193	24114
840.33	24262
840.467	24167
840.604	24114
840.742	24346
840.879	23942
841.016	24045
841.153	23920
841.29	24300
841.427	24026
841.564	24159
841.701	24140
841.838	23973
841.975	23992
842.112	24018
842.249	23843
842.385	23897
842.522	23973
842.659	23874
842.796	23851
842.933	23779
843.069	23745
843.206	23809
843.343	23992
843.479	23855
843.616	23752
843.752	23657
843.889	23764
844.025	23794
844.162	23687
844.298	23691
844.435	23547
844.571	23615
844.708	23642
844.844	23802
844.98	23676
845.117	23760
845.253	23592
845.389	23474
845.525	23566
845.661	23387
845.798	23330
845.934	23383
846.07	23326
846.206	23337
846.342	23356
846.478	23280
846.614	23140
846.75	22923
846.886	23128
847.022	23277
847.158	23083
847.294	23140
847.429	23140
847.565	22919
847.701	23280
847.837	22885
847.972	22672
848.108	22889
848.244	22771
848.379	22687
848.515	22694
848.65	22615
848.786	22649
848.921	22725
849.057	22748
849.192	22759
849.328	22675
849.463	22713
849.598	22611
849.734	22573
849.869	22546
850.004	22333
850.14	22398
850.275	22356
850.41	22287
850.545	22417
850.68	22443
850.815	22478
850.95	22371
851.085	22694
851.22	22519
851.355	22402
851.49	22470
851.625	22421
851.76	22337
851.895	22291
852.03	22261
852.165	22348
852.299	22402
852.434	22390
852.569	22424
852.703	22466
852.838	22462
852.973	22489
853.107	22508
853.242	22287
853.376	22265
853.511	22006
853.645	22154
853.78	22421
853.914	22276
854.048	22303
854.183	22166
854.317	22200
854.451	22455
854.585	22246
854.72	22207
854.854	22329
854.988	22196
855.122	22139
855.256	22059
855.39	22116
855.524	22181
855.658	22238
855.792	22303
855.926	22280
856.06	22299
856.194	22303
856.327	22177
856.461	22177
856.595	22223
856.729	22147
856.862	22276
856.996	22234
857.13	22230
857.263	22337
857.397	22291
857.53	22265
857.664	22306
857.797	22276
857.931	22158
858.064	22238
858.197	22295
858.331	22287
858.464	22166
858.597	22177
858.731	22207
858.864	22200
858.997	22238
859.13	22211
859.263	22333
859.396	22207
859.529	22226
859.662	22090
859.795	21983
859.928	22276
860.061	22310
860.194	22314
860.327	22265
860.46	22234
860.592	22280
860.725	22348
860.858	22325
860.99	22249
861.123	22166
861.256	22230
861.388	22181
861.521	22873
861.653	22124
861.786	22112
861.918	22044
862.05	22143
862.183	22188
862.315	22067
862.447	22204
862.58	22135
862.712	21922
862.844	21827
862.976	21949
863.108	22131
863.24	22508
863.372	21869
863.504	21880
863.636	21854
863.768	22021
863.9	21960
864.032	21899
864.164	21861
864.296	22029
864.428	22078
864.559	21975
864.691	22044
864.823	21854
864.954	21857
865.086	22010
865.217	21934
865.349	21770
865.48	21766
865.612	21816
865.743	22013
865.875	21823
866.006	21812
866.137	21785
866.269	21789
866.4	21819
866.531	21800
866.662	21785
866.793	21675
866.924	21686
867.055	21838
867.186	21637
867.317	21781
867.448	21671
867.579	21599
867.71	21561
867.841	21633
867.972	21781
868.103	21614
868.233	21869
868.364	21808
868.495	21857
868.625	22048
868.756	22120
868.886	21949
869.017	22002
869.147	22128
869.278	22074
869.408	22010
869.539	22101
869.669	22116
869.799	21854
869.929	22063
870.06	21960
870.19	22238
870.32	22280
870.45	22337
870.58	22405
870.71	22542
870.84	22447
870.97	22390
871.1	22413
871.23	22592
871.36	22546
871.489	22500
871.619	22577
871.749	22596
871.879	22675
872.008	22694
872.138	22630
872.267	22687
872.397	22455
872.526	22474
872.656	22459
872.785	22455
872.915	22516
873.044	22713
873.173	22672
873.303	22721
873.432	22664
873.561	22664
873.69	22660
873.819	22504
873.948	22615
874.077	22622
874.206	22554
874.335	22710
874.464	22892
874.593	22812
874.722	22790
874.851	22790
874.979	22843
875.108	22839
875.237	22725
875.365	22706
875.494	22854
875.623	22965
875.751	22774
875.88	22763
876.008	23010
876.136	23029
876.265	23284
876.393	23341
876.521	23254
876.65	23261
876.778	23159
876.906	23166
877.034	23071
877.162	23105
877.29	23159
877.418	23204
877.546	23235
877.674	23292
877.802	23189
877.93	23166
878.058	23166
878.185	23117
878.313	23052
878.441	23208
878.568	23037
878.696	23075
878.824	23227
878.951	23174
879.079	23254
879.206	23505
879.333	23292
879.461	23250
879.588	23189
879.715	23345
879.842	23417
879.97	23269
880.097	22976
880.224	23003
880.351	22900
880.478	23132
880.605	22961
880.732	22987
880.859	23178
880.986	23025
881.112	22949
881.239	22809
881.366	22622
881.493	22577
881.619	22599
881.746	22596
881.872	22596
881.999	22516
882.125	22402
882.252	22603
882.378	22519
882.505	22596
882.631	22424
882.757	22261
882.883	22284
883.01	22253
883.136	22150
883.262	21983
883.388	22029
883.514	22150
883.64	22318
883.766	22181
883.892	22044
884.018	22051
884.143	22150
884.269	22295
884.395	21991
884.52	21789
884.646	21983
884.772	21861
884.897	21724
885.023	21857
885.148	21983
885.274	21850
885.399	21934
885.524	22010
885.65	21865
885.775	21831
885.9	21831
886.025	21941
886.15	21975
886.275	21850
886.4	21736
886.525	21854
886.65	21713
886.775	21823
886.9	21835
887.025	21987
887.149	21819
887.274	21660
887.399	21698
887.523	21686
887.648	21644
887.773	21534
887.897	21766
888.021	21660
888.146	21500
888.27	21652
888.395	21819
888.519	21591
888.643	21641
888.767	21720
888.891	21473
889.015	21462
889.139	21485
889.263	21363
889.387	21549
889.511	21591
889.635	21469
889.759	21302
889.883	21447
890.006	21485
890.13	21549
890.254	21294
890.377	21458
890.501	21089
890.624	21138
890.748	21188
890.871	21138
890.995	20948
891.118	20975
891.241	21020
891.364	20929
891.488	20971
891.611	21001
891.734	21005
891.857	21009
891.98	20914
892.103	21093
892.226	20880
892.349	20800
892.471	20754
892.594	20952
892.717	20868
892.839	20899
892.962	20861
893.085	20872
893.207	20876
893.33	20648
893.452	20777
893.575	20906
893.697	20857
893.819	21001
893.941	21047
894.064	20963
894.186	20788
894.308	20804
894.43	20895
894.552	20990
894.674	20864
894.796	20861
894.918	20754
895.04	20918
895.161	20937
895.283	20929
895.405	20777
895.526	20792
895.648	20804
895.769	20788
895.891	20819
896.012	20830
896.134	21032
896.255	20830
896.376	20921
896.498	20876
896.619	20899
896.74	20944
896.861	20876
896.982	21165
897.103	21344
897.224	21161
897.345	21070
897.466	20994
897.587	21077
897.708	21214
897.828	20967
897.949	21055
898.07	20914
898.19	20857
898.311	21081
898.431	20899
898.552	21085
898.672	21146
898.792	21100
898.913	21176
899.033	20845
899.153	20819
899.273	20651
899.393	20712
899.513	20861
899.633	20807
899.753	20880
899.873	20705
899.993	20819
900.113	20659
900.232	20720
900.352	20552
900.472	20594
900.591	20385
900.711	20568
900.83	20484
900.95	20636
901.069	20606
901.189	20396
901.308	20187
901.427	20122
901.546	20237
901.665	20130
901.784	20145
901.904	19928
902.023	19818
902.141	19776
902.26	19712
902.379	19719
902.498	19597
902.617	19643
902.735	19586
902.854	19521
902.973	19616
903.091	19449
903.21	19316
903.328	19232
903.446	19187
903.565	19084
903.683	19008
903.801	18993
903.919	19023
904.038	18993
904.156	18764
904.274	18920
904.392	18726
904.51	18817
904.627	18787
904.745	18882
904.863	18791
904.981	18650
905.098	18410
905.216	18582
905.334	18536
905.451	18555
905.569	18521
905.686	18544
905.803	18525
905.921	18289
906.038	18486
906.155	18216
906.272	18209
906.389	18300
906.506	18022
906.623	18087
906.74	18026
906.857	17893
906.974	17980
907.091	18045
907.208	18155
907.324	17980
907.441	17885
907.557	17786
907.674	17813
907.79	17699
907.907	17775
908.023	17866
908.139	17687
908.256	17699
908.372	17710
908.488	17699
908.604	17539
908.72	17493
908.836	17463
908.952	17512
909.068	17490
909.184	17573
909.3	17543
909.415	17452
909.531	17429
909.647	17155
909.762	17136
909.878	17208
909.993	17235
910.108	17086
910.224	17117
910.339	17041
910.454	16991
910.57	16923
910.685	16927
910.8	17189
910.915	17200
911.03	17022
911.145	16820
911.259	16713
911.374	16831
911.489	16767
911.604	16554
911.718	16519
911.833	16489
911.947	16295
912.062	16386
912.176	16470
912.291	16428
912.405	16550
912.519	16710
912.633	16702
912.748	16489
912.862	16413
912.976	16356
913.09	16276
913.204	16287
913.318	16299
913.431	16367
913.545	16363
913.659	16402
913.772	16223
913.886	16173
914	16029
914.113	16169
914.226	16215
914.34	16192
914.453	16029
914.566	16078
914.68	15998
914.793	15983
914.906	15789
915.019	15698
915.132	15660
915.245	15629
915.358	15644
915.47	15686
915.583	15656
915.696	15694
915.809	15793
915.921	15732
916.034	15614
916.146	15545
916.259	15580
916.371	15576
916.483	15648
916.595	15500
916.708	15504
916.82	15530
916.932	15454
917.044	15382
917.156	15408
917.268	15291
917.38	15378
917.491	15291
917.603	15279
917.715	15340
917.826	15294
917.938	15256
918.049	15112
918.161	15283
918.272	15500
918.384	15408
918.495	15214
918.606	15081
918.717	15017
918.828	15028
918.939	15165
919.05	14921
919.161	15017
919.272	14792
919.383	15001
919.494	15135
919.604	15180
919.715	15009
919.826	14944
919.936	15013
920.047	15097
920.157	15081
920.267	15241
920.378	15074
920.488	14899
920.598	15135
920.708	15351
920.818	15081
920.928	15195
921.038	15306
921.148	15294
921.258	14998
921.368	14891
921.477	14750
921.587	14705
921.697	14590
921.806	14777
921.916	14636
922.025	14457
922.134	14446
922.244	14317
922.353	14286
922.462	14256
922.571	14218
922.68	13982
922.789	13982
922.898	14069
923.007	13860
923.116	14020
923.224	14001
923.333	13947
923.442	13940
923.55	13833
923.659	13784
923.767	13887
923.876	13791
923.984	13814
924.092	13769
924.201	13757
924.309	13712
924.417	13712
924.525	13769
924.633	13727
924.741	14629
924.849	13441
924.956	13605
925.064	13506
925.172	13358
925.279	13426
925.387	13358
925.494	13403
925.602	13548
925.709	13422
925.816	13244
925.924	13327
926.031	13403
926.138	13350
926.245	13358
926.352	13297
926.459	13388
926.566	13434
926.673	13282
926.779	13145
926.886	13114
926.993	13080
927.099	12943
927.206	12852
927.312	12806
927.419	13031
927.525	12939
927.631	12920
927.737	12829
927.843	12768
927.95	12688
928.056	12768
928.162	12779
928.267	12856
928.373	13468
928.479	12783
928.585	12597
928.69	12669
928.796	12707
928.901	12536
929.007	12460
929.112	12654
929.218	12563
929.323	12540
929.428	12422
929.533	12601
929.638	12460
929.743	12407
929.848	12494
929.953	12433
930.058	12300
930.163	12186
930.267	12289
930.372	12266
930.477	12060
930.581	12433
930.685	12190
930.79	12057
930.894	12079
930.998	11992
931.103	12155
931.207	11817
931.311	11729
931.415	11634
931.519	11455
931.623	11330
