Data from test_V78500241_168.txt Node
Date: Fri Mar 25 15:42:57 CST 2022
User: usil
Spectrometer: V785-0024
Trigger mode: 0
Integration Time (sec): 4.000000E-1
Scans to average: 1
Nonlinearity correction enabled: false
Boxcar width: 0
Storing dark spectrum: false
XAxis mode: Wavelengths
Number of Pixels in Spectrum: 1024
>>>>>Begin Spectral Data<<<<<
801.071	29566
801.214	29752
801.356	29375
801.499	29315
801.641	29189
801.783	29204
801.926	29288
802.068	29242
802.211	29220
802.353	29006
802.496	28908
802.638	28961
802.78	28858
802.923	28767
803.065	28752
803.208	28694
803.35	28824
803.492	28915
803.635	29071
803.777	28805
803.919	28957
804.061	29170
804.204	29140
804.346	28877
804.488	28805
804.63	28953
804.773	28771
804.915	28927
805.057	28953
805.199	29041
805.341	29048
805.483	29071
805.626	28999
805.768	28930
805.91	29075
806.052	29056
806.194	28972
806.336	29303
806.478	29117
806.62	29048
806.762	29197
806.904	29269
807.046	29501
807.188	29531
807.33	29448
807.472	29619
807.614	29353
807.756	29596
807.898	29258
808.04	29136
808.182	29299
808.324	29277
808.465	29315
808.607	29402
808.749	29577
808.891	29657
809.033	29775
809.174	29646
809.316	29745
809.458	29661
809.6	29547
809.741	29608
809.883	29604
810.025	29878
810.166	29843
810.308	29809
810.45	29866
810.591	29604
810.733	29657
810.875	29520
811.016	29505
811.158	29524
811.299	29779
811.441	29798
811.582	29729
811.724	29649
811.865	29687
812.007	29665
812.148	29581
812.29	29516
812.431	29760
812.573	29813
812.714	29980
812.855	30045
812.997	30110
813.138	30266
813.279	30159
813.421	30087
813.562	30011
813.703	29885
813.845	29832
813.986	29570
814.127	29307
814.268	29147
814.41	29090
814.551	29197
814.692	29242
814.833	29113
814.974	29258
815.115	29239
815.256	28976
815.397	28942
815.539	29018
815.68	28869
815.821	28869
815.962	28942
816.103	28828
816.244	28847
816.385	28668
816.526	28660
816.666	28596
816.807	28348
816.948	28424
817.089	28459
817.23	28424
817.371	28443
817.512	28493
817.653	28382
817.793	28299
817.934	28375
818.075	28348
818.216	28295
818.356	28322
818.497	28287
818.638	28204
818.778	27888
818.919	28051
819.06	28143
819.2	28261
819.341	28272
819.481	28147
819.622	28466
819.762	28546
819.903	28459
820.043	28363
820.184	28417
820.324	28401
820.465	28417
820.605	28398
820.746	28428
820.886	28238
821.026	28356
821.167	28280
821.307	28390
821.447	28177
821.588	28158
821.728	28048
821.868	27835
822.008	27717
822.149	27793
822.289	27660
822.429	27408
822.569	27450
822.709	27439
822.849	27192
822.99	27077
823.13	26967
823.27	27142
823.41	27001
823.55	26804
823.69	27024
823.83	26921
823.97	26937
824.11	26853
824.25	26678
824.389	26735
824.529	26815
824.669	26777
824.809	26895
824.949	26781
825.089	26868
825.228	26834
825.368	26533
825.508	26712
825.648	26575
825.787	26636
825.927	26701
826.067	26518
826.206	26541
826.346	26632
826.485	26583
826.625	26663
826.765	26670
826.904	26758
827.044	26256
827.183	26263
827.323	26427
827.462	26408
827.601	26324
827.741	26161
827.88	26183
828.02	26103
828.159	26073
828.298	26195
828.437	26370
828.577	26077
828.716	26313
828.855	26202
828.994	25921
829.134	25921
829.273	25826
829.412	25978
829.551	25784
829.69	25788
829.829	25936
829.968	26012
830.107	25940
830.246	25791
830.385	25799
830.524	25750
830.663	25647
830.802	25670
830.941	25438
831.08	25445
831.219	25677
831.357	25514
831.496	25689
831.635	25438
831.774	25460
831.913	25301
832.051	25320
832.19	25171
832.329	25263
832.467	25057
832.606	25076
832.744	25076
832.883	25148
833.022	25015
833.16	25107
833.299	24985
833.437	25118
833.576	25183
833.714	25160
833.852	25145
833.991	25129
834.129	25148
834.267	25141
834.406	24970
834.544	25156
834.682	25160
834.821	25000
834.959	25217
835.097	25004
835.235	25194
835.373	25046
835.511	25012
835.65	24943
835.788	25091
835.926	24726
836.064	24692
836.202	24821
836.34	24916
836.478	25012
836.615	24966
836.753	24787
836.891	25038
837.029	25023
837.167	24916
837.305	24791
837.443	24821
837.58	24692
837.718	24779
837.856	24783
837.993	24726
838.131	24658
838.269	24608
838.406	24620
838.544	24433
838.681	24460
838.819	24422
838.956	24266
839.094	24163
839.231	24197
839.369	24289
839.506	24555
839.643	24372
839.781	24155
839.918	24041
840.055	24038
840.193	24125
840.33	23969
840.467	24091
840.604	24045
840.742	24308
840.879	23961
841.016	24038
841.153	23977
841.29	24152
841.427	24064
841.564	24076
841.701	24018
841.838	23912
841.975	23798
842.112	23942
842.249	23836
842.385	23760
842.522	23863
842.659	23764
842.796	23684
842.933	23699
843.069	23786
843.206	23718
843.343	23733
843.479	23729
843.616	23687
843.752	23592
843.889	23417
844.025	23471
844.162	23410
844.298	23497
844.435	23448
844.571	23486
844.708	23570
844.844	23627
844.98	23710
845.117	23535
845.253	23490
845.389	23311
845.525	23448
845.661	23372
845.798	23151
845.934	23174
846.07	23159
846.206	23200
846.342	23280
846.478	23041
846.614	22968
846.75	22900
846.886	22915
847.022	22976
847.158	22866
847.294	22919
847.429	22869
847.565	22778
847.701	23044
847.837	22607
847.972	22615
848.108	22706
848.244	22717
848.379	22493
848.515	22379
848.65	22466
848.786	22424
848.921	22428
849.057	22569
849.192	22497
849.328	22561
849.463	22603
849.598	22356
849.734	22261
849.869	22325
850.004	22185
850.14	22204
850.275	22143
850.41	22116
850.545	22116
850.68	22116
850.815	22185
850.95	22166
851.085	22367
851.22	22185
851.355	22204
851.49	22139
851.625	22112
851.76	22204
851.895	22086
852.03	22055
852.165	22188
852.299	22230
852.434	22242
852.569	22192
852.703	22169
852.838	22131
852.973	22192
853.107	22181
853.242	21987
853.376	21918
853.511	21842
853.645	21903
853.78	22105
853.914	21979
854.048	21934
854.183	21899
854.317	22093
854.451	22093
854.585	21869
854.72	21937
854.854	22013
854.988	21892
855.122	21869
855.256	21819
855.39	21899
855.524	21941
855.658	21979
855.792	21953
855.926	21930
856.06	22025
856.194	22013
856.327	21903
856.461	21800
856.595	21953
856.729	21937
856.862	22105
856.996	21884
857.13	22082
857.263	22044
857.397	21949
857.53	21930
857.664	21941
857.797	21987
857.931	22029
858.064	21941
858.197	21998
858.331	21835
858.464	21743
858.597	21808
858.731	21865
858.864	21762
858.997	21778
859.13	21873
859.263	21835
859.396	21926
859.529	21903
859.662	21835
859.795	21751
859.928	21751
860.061	22067
860.194	21979
860.327	21876
860.46	21800
860.592	21915
860.725	21979
860.858	21941
860.99	21831
861.123	21876
861.256	21728
861.388	21797
861.521	22519
861.653	21823
861.786	21610
861.918	21698
862.05	21926
862.183	21838
862.315	21903
862.447	21956
862.58	21892
862.712	21561
862.844	21530
862.976	21625
863.108	21568
863.24	21922
863.372	21454
863.504	21485
863.636	21553
863.768	21572
863.9	21599
864.032	21496
864.164	21561
864.296	21515
864.428	21595
864.559	21542
864.691	21633
864.823	21561
864.954	21515
865.086	21523
865.217	21428
865.349	21443
865.48	21454
865.612	21526
865.743	21519
865.875	21477
866.006	21279
866.137	21412
866.269	21511
866.4	21344
866.531	21348
866.662	21370
866.793	21340
866.924	21447
867.055	21329
867.186	21488
867.317	21401
867.448	21291
867.579	21264
867.71	21226
867.841	21100
867.972	21310
868.103	21275
868.233	21416
868.364	21382
868.495	21405
868.625	21538
868.756	21751
868.886	21447
869.017	21553
869.147	21660
869.278	21793
869.408	21720
869.539	21622
869.669	21648
869.799	21614
869.929	21614
870.06	21644
870.19	21838
870.32	21869
870.45	22051
870.58	21911
870.71	22021
870.84	22082
870.97	21972
871.1	22070
871.23	22147
871.36	22181
871.489	22002
871.619	22074
871.749	22131
871.879	22268
872.008	22299
872.138	22211
872.267	22200
872.397	22055
872.526	22006
872.656	22021
872.785	22006
872.915	22272
873.044	22360
873.173	22310
873.303	22192
873.432	22257
873.561	22356
873.69	22154
873.819	22211
873.948	22314
874.077	22337
874.206	22185
874.335	22147
874.464	22337
874.593	22352
874.722	22280
874.851	22424
874.979	22508
875.108	22470
875.237	22466
875.365	22185
875.494	22424
875.623	22455
875.751	22352
875.88	22402
876.008	22561
876.136	22740
876.265	22736
876.393	22809
876.521	22934
876.65	22968
876.778	22866
876.906	22805
877.034	22763
877.162	22828
877.29	22721
877.418	22740
877.546	22713
877.674	22847
877.802	22801
877.93	22744
878.058	22748
878.185	22622
878.313	22725
878.441	22717
878.568	22649
878.696	22596
878.824	22725
878.951	22930
879.079	22923
879.206	23064
879.333	22900
879.461	22771
879.588	22889
879.715	22942
879.842	23060
879.97	22858
880.097	22538
880.224	22611
880.351	22596
880.478	22588
880.605	22546
880.732	22599
880.859	22778
880.986	22527
881.112	22569
881.239	22485
881.366	22375
881.493	22246
881.619	22131
881.746	22192
881.872	22162
881.999	22219
882.125	22055
882.252	22200
882.378	22032
882.505	22246
882.631	22070
882.757	21972
882.883	22013
883.01	21937
883.136	21812
883.262	21728
883.388	21568
883.514	21865
883.64	21873
883.766	21789
883.892	21641
884.018	21576
884.143	21823
884.269	21884
884.395	21561
884.52	21530
884.646	21553
884.772	21473
884.897	21466
885.023	21458
885.148	21732
885.274	21557
885.399	21652
885.524	21549
885.65	21625
885.775	21473
885.9	21519
886.025	21595
886.15	21496
886.275	21317
886.4	21359
886.525	21359
886.65	21469
886.775	21485
886.9	21515
887.025	21694
887.149	21515
887.274	21306
887.399	21199
887.523	21203
887.648	21123
887.773	21100
887.897	21306
888.021	21291
888.146	21192
888.27	21351
888.395	21351
888.519	21279
888.643	21157
888.767	21287
888.891	21070
889.015	21009
889.139	21028
889.263	21081
889.387	21211
889.511	21173
889.635	21104
889.759	21036
889.883	21066
890.006	21028
890.13	21074
890.254	20937
890.377	20887
890.501	20743
890.624	20750
890.748	20834
890.871	20545
890.995	20533
891.118	20526
891.241	20602
891.364	20530
891.488	20720
891.611	20613
891.734	20469
891.857	20560
891.98	20609
892.103	20739
892.226	20522
892.349	20412
892.471	20313
892.594	20495
892.717	20412
892.839	20575
892.962	20522
893.085	20457
893.207	20415
893.33	20377
893.452	20427
893.575	20480
893.697	20427
893.819	20571
893.941	20731
894.064	20674
894.186	20431
894.308	20294
894.43	20549
894.552	20488
894.674	20617
894.796	20454
894.918	20518
895.04	20423
895.161	20571
895.283	20423
895.405	20541
895.526	20507
895.648	20324
895.769	20488
895.891	20613
896.012	20609
896.134	20495
896.255	20488
896.376	20541
896.498	20488
896.619	20549
896.74	20590
896.861	20674
896.982	20845
897.103	20925
897.224	20773
897.345	20811
897.466	20720
897.587	20746
897.708	20853
897.828	20682
897.949	20701
898.07	20571
898.19	20629
898.311	20724
898.431	20644
898.552	20712
898.672	20800
898.792	20743
898.913	20697
899.033	20617
899.153	20583
899.273	20461
899.393	20454
899.513	20389
899.633	20415
899.753	20552
899.873	20362
899.993	20434
900.113	20374
900.232	20408
900.352	20324
900.472	20301
900.591	20145
900.711	20153
900.83	20157
900.95	20366
901.069	20237
901.189	20058
901.308	19811
901.427	19734
901.546	19830
901.665	19742
901.784	19734
901.904	19674
902.023	19499
902.141	19358
902.26	19251
902.379	19259
902.498	19175
902.617	19152
902.735	19247
902.854	19217
902.973	19190
903.091	18970
903.21	18901
903.328	18882
903.446	18871
903.565	18760
903.683	18700
903.801	18582
903.919	18566
904.038	18703
904.156	18395
904.274	18582
904.392	18532
904.51	18490
904.627	18513
904.745	18536
904.863	18525
904.981	18239
905.098	18167
905.216	18098
905.334	18174
905.451	18144
905.569	18159
905.686	18163
905.803	18083
905.921	17992
906.038	17904
906.155	17889
906.272	17790
906.389	17680
906.506	17630
906.623	17710
906.74	17551
906.857	17532
906.974	17619
907.091	17649
907.208	17687
907.324	17585
907.441	17623
907.557	17360
907.674	17296
907.79	17296
907.907	17299
908.023	17284
908.139	17242
908.256	17258
908.372	17162
908.488	17197
908.604	17117
908.72	16995
908.836	17060
908.952	17006
909.068	17003
909.184	17064
909.3	17083
909.415	17037
909.531	17102
909.647	16782
909.762	16790
909.878	16641
909.993	16740
910.108	16660
910.224	16580
910.339	16538
910.454	16516
910.57	16413
910.685	16424
910.8	16531
910.915	16550
911.03	16500
911.145	16291
911.259	16215
911.374	16280
911.489	16257
911.604	16059
911.718	16055
911.833	16032
911.947	15972
912.062	15937
912.176	16139
912.291	15979
912.405	15994
912.519	16234
912.633	16139
912.748	16101
912.862	15918
912.976	15770
913.09	15774
913.204	15774
913.318	15800
913.431	15857
913.545	15842
913.659	15873
913.772	15766
913.886	15625
914	15542
914.113	15743
914.226	15580
914.34	15591
914.453	15511
914.566	15629
914.68	15523
914.793	15523
914.906	15256
915.019	15203
915.132	15264
915.245	15184
915.358	15275
915.47	15252
915.583	15245
915.696	15260
915.809	15367
915.921	15386
916.034	15260
916.146	15211
916.259	15051
916.371	15169
916.483	15176
916.595	15070
916.708	15131
916.82	14956
916.932	14971
917.044	14982
917.156	15013
917.268	14902
917.38	14895
917.491	14853
917.603	14826
917.715	14834
917.826	14944
917.938	14823
918.049	14659
918.161	14777
918.272	14872
918.384	14956
918.495	14765
918.606	14651
918.717	14549
918.828	14495
918.939	14651
919.05	14476
919.161	14492
919.272	14282
919.383	14446
919.494	14571
919.604	14796
919.715	14560
919.826	14571
919.936	14469
920.047	14613
920.157	14545
920.267	14727
920.378	14560
920.488	14571
920.598	14697
920.708	14800
920.818	14632
920.928	14575
921.038	14857
921.148	14689
921.258	14518
921.368	14362
921.477	14351
921.587	14229
921.697	14123
921.806	14229
921.916	14092
922.025	13959
922.134	13788
922.244	13772
922.353	13963
922.462	13776
922.571	13731
922.68	13544
922.789	13453
922.898	13445
923.007	13369
923.116	13518
923.224	13495
923.333	13483
923.442	13285
923.55	13400
923.659	13365
923.767	13346
923.876	13263
923.984	13422
924.092	13156
924.201	13304
924.309	13304
924.417	13247
924.525	13263
924.633	13126
924.741	13993
924.849	12939
924.956	13072
925.064	13004
925.172	12856
925.279	12977
925.387	12939
925.494	12935
925.602	13099
925.709	12928
925.816	12909
925.924	12875
926.031	13057
926.138	12852
926.245	12878
926.352	12867
926.459	12970
926.566	12943
926.673	12837
926.779	12848
926.886	12597
926.993	12490
927.099	12536
927.206	12433
927.312	12426
927.419	12540
927.525	12570
927.631	12502
927.737	12403
927.843	12357
927.95	12209
928.056	12247
928.162	12319
928.267	12380
928.373	12916
928.479	12464
928.585	12125
928.69	12327
928.796	12262
928.901	12129
929.007	11996
929.112	12144
929.218	12038
929.323	11999
929.428	12019
929.533	12159
929.638	11923
929.743	12022
929.848	11984
929.953	11897
930.058	11836
930.163	11817
930.267	11699
930.372	11897
930.477	11710
930.581	11942
930.685	11733
930.79	11547
930.894	11573
930.998	11532
931.103	11623
931.207	11337
931.311	11296
931.415	11246
931.519	11003
931.623	10953
