Data from test_V78500241_1554.txt Node
Date: Fri Mar 25 15:52:33 CST 2022
User: usil
Spectrometer: V785-0024
Trigger mode: 0
Integration Time (sec): 4.000000E-1
Scans to average: 1
Nonlinearity correction enabled: false
Boxcar width: 0
Storing dark spectrum: false
XAxis mode: Wavelengths
Number of Pixels in Spectrum: 1024
>>>>>Begin Spectral Data<<<<<
801.071	27819
801.214	27816
801.356	27675
801.499	27515
801.641	27351
801.783	27306
801.926	27386
802.068	27321
802.211	27272
802.353	27294
802.496	27135
802.638	27138
802.78	27043
802.923	27024
803.065	26971
803.208	26910
803.35	27062
803.492	27100
803.635	27283
803.777	27188
803.919	27051
804.061	27603
804.204	27374
804.346	27351
804.488	27165
804.63	27252
804.773	27081
804.915	27203
805.057	27416
805.199	27062
805.341	27302
805.483	27393
805.626	27458
805.768	27416
805.91	27515
806.052	27348
806.194	27458
806.336	27553
806.478	27466
806.62	27374
806.762	27511
806.904	27728
807.046	27865
807.188	27591
807.33	27812
807.472	27899
807.614	27717
807.756	27823
807.898	27637
808.04	27629
808.182	27614
808.324	27797
808.465	27728
808.607	27914
808.749	28029
808.891	28181
809.033	28246
809.174	28086
809.316	28105
809.458	28029
809.6	28097
809.741	28116
809.883	28234
810.025	28329
810.166	28394
810.308	28150
810.45	28177
810.591	28196
810.733	28101
810.875	27972
811.016	27987
811.158	27800
811.299	28166
811.441	28154
811.582	28200
811.724	27914
811.865	27880
812.007	27937
812.148	27922
812.29	28013
812.431	28215
812.573	28265
812.714	28443
812.855	28516
812.997	28596
813.138	28672
813.279	28706
813.421	28557
813.562	28478
813.703	28234
813.845	28360
813.986	27998
814.127	27797
814.268	27781
814.41	27679
814.551	27663
814.692	27827
814.833	27424
814.974	27686
815.115	27625
815.256	27561
815.397	27549
815.539	27519
815.68	27545
815.821	27340
815.962	27603
816.103	27523
816.244	27351
816.385	27370
816.526	27310
816.666	27058
816.807	27062
816.948	27195
817.089	27135
817.23	27142
817.371	26960
817.512	27013
817.653	27001
817.793	26838
817.934	26952
818.075	27104
818.216	26971
818.356	26857
818.497	26804
818.638	26693
818.778	26674
818.919	26773
819.06	26815
819.2	26883
819.341	26979
819.481	27039
819.622	27142
819.762	27310
819.903	27150
820.043	27203
820.184	27146
820.324	27047
820.465	27211
820.605	27108
820.746	27104
820.886	26906
821.026	27062
821.167	27024
821.307	27070
821.447	26963
821.588	26914
821.728	26720
821.868	26609
822.008	26514
822.149	26503
822.289	26465
822.429	26248
822.569	26138
822.709	26195
822.849	25986
822.99	25989
823.13	26050
823.27	25909
823.41	25845
823.55	25624
823.69	25708
823.83	25780
823.97	25807
824.11	25639
824.25	25552
824.389	25586
824.529	25807
824.669	25674
824.809	25712
824.949	25769
825.089	25704
825.228	25586
825.368	25464
825.508	25586
825.648	25590
825.787	25491
825.927	25514
826.067	25518
826.206	25514
826.346	25510
826.485	25422
826.625	25624
826.765	25582
826.904	25525
827.044	25148
827.183	25247
827.323	25183
827.462	25312
827.601	25137
827.741	25141
827.88	25282
828.02	25008
828.159	25164
828.298	25240
828.437	25160
828.577	25118
828.716	25285
828.855	25107
828.994	24829
829.134	24970
829.273	24852
829.412	24882
829.551	24810
829.69	24947
829.829	24829
829.968	24985
830.107	24981
830.246	24825
830.385	24829
830.524	24795
830.663	24642
830.802	24707
830.941	24475
831.08	24479
831.219	24483
831.357	24620
831.496	24772
831.635	24525
831.774	24380
831.913	24479
832.051	24235
832.19	24292
832.329	24330
832.467	24224
832.606	24087
832.744	24148
832.883	24083
833.022	24114
833.16	24125
833.299	24072
833.437	24159
833.576	24334
833.714	24273
833.852	24216
833.991	24232
834.129	24353
834.267	24273
834.406	24209
834.544	24304
834.682	24163
834.821	24251
834.959	24338
835.097	24106
835.235	24220
835.373	24144
835.511	24178
835.65	24038
835.788	24076
835.926	23893
836.064	23817
836.202	23870
836.34	24091
836.478	24102
836.615	23984
836.753	24022
836.891	24167
837.029	23950
837.167	23931
837.305	23889
837.443	23904
837.58	23916
837.718	24091
837.856	23927
837.993	23737
838.131	23813
838.269	23737
838.406	23737
838.544	23809
838.681	23509
838.819	23406
838.956	23273
839.094	23303
839.231	23433
839.369	23562
839.506	23756
839.643	23718
839.781	23372
839.918	23178
840.055	23429
840.193	23326
840.33	23162
840.467	23322
840.604	23372
840.742	23535
840.879	23124
841.016	23166
841.153	23204
841.29	23379
841.427	23341
841.564	23311
841.701	23254
841.838	23113
841.975	23231
842.112	23113
842.249	23064
842.385	22999
842.522	23292
842.659	23124
842.796	23121
842.933	23010
843.069	22949
843.206	22881
843.343	23075
843.479	23022
843.616	22942
843.752	22771
843.889	22713
844.025	23052
844.162	22820
844.298	22820
844.435	22668
844.571	22706
844.708	22866
844.844	22946
844.98	22805
845.117	23014
845.253	22778
845.389	22660
845.525	22664
845.661	22584
845.798	22554
845.934	22637
846.07	22527
846.206	22527
846.342	22588
846.478	22516
846.614	22367
846.75	22360
846.886	22265
847.022	22432
847.158	22303
847.294	22284
847.429	22299
847.565	22280
847.701	22455
847.837	21956
847.972	21876
848.108	22044
848.244	22025
848.379	22002
848.515	21884
848.65	21907
848.786	21808
848.921	21915
849.057	21873
849.192	21979
849.328	21857
849.463	21865
849.598	21762
849.734	21816
849.869	21656
850.004	21618
850.14	21625
850.275	21736
850.41	21549
850.545	21614
850.68	21557
850.815	21625
850.95	21606
851.085	21751
851.22	21705
851.355	21732
851.49	21614
851.625	21576
851.76	21625
851.895	21526
852.03	21580
852.165	21591
852.299	21599
852.434	21709
852.569	21739
852.703	21781
852.838	21698
852.973	21751
853.107	21819
853.242	21492
853.376	21447
853.511	21416
853.645	21408
853.78	21466
853.914	21504
854.048	21428
854.183	21329
854.317	21420
854.451	21641
854.585	21530
854.72	21420
854.854	21500
854.988	21397
855.122	21450
855.256	21294
855.39	21431
855.524	21496
855.658	21500
855.792	21348
855.926	21504
856.06	21416
856.194	21473
856.327	21408
856.461	21260
856.595	21408
856.729	21317
856.862	21488
856.996	21500
857.13	21538
857.263	21606
857.397	21599
857.53	21447
857.664	21694
857.797	21545
857.931	21519
858.064	21462
858.197	21530
858.331	21370
858.464	21447
858.597	21401
858.731	21462
858.864	21382
858.997	21496
859.13	21378
859.263	21424
859.396	21538
859.529	21439
859.662	21370
859.795	21447
859.928	21443
860.061	21629
860.194	21732
860.327	21473
860.46	21488
860.592	21545
860.725	21660
860.858	21473
860.99	21515
861.123	21329
861.256	21355
861.388	21351
861.521	22048
861.653	21188
861.786	21264
861.918	21298
862.05	21291
862.183	21374
862.315	21325
862.447	21416
862.58	21443
862.712	21100
862.844	21161
862.976	21207
863.108	21192
863.24	21656
863.372	21173
863.504	21184
863.636	21104
863.768	21214
863.9	21195
864.032	21074
864.164	21077
864.296	21119
864.428	21260
864.559	21146
864.691	21241
864.823	21112
864.954	21039
865.086	21142
865.217	21051
865.349	20914
865.48	20982
865.612	21001
865.743	21241
865.875	21047
866.006	21089
866.137	21005
866.269	20998
866.4	21119
866.531	21085
866.662	20796
866.793	20979
866.924	20990
867.055	21077
867.186	21043
867.317	20842
867.448	20910
867.579	20834
867.71	20906
867.841	20918
867.972	20868
868.103	20876
868.233	21020
868.364	20921
868.495	21093
868.625	21260
868.756	21294
868.886	21199
869.017	21233
869.147	21252
869.278	21310
869.408	21359
869.539	21310
869.669	21222
869.799	21199
869.929	21397
870.06	21344
870.19	21496
870.32	21424
870.45	21656
870.58	21591
870.71	21644
870.84	21778
870.97	21561
871.1	21553
871.23	21827
871.36	21816
871.489	21739
871.619	21857
871.749	21762
871.879	21854
872.008	21831
872.138	21808
872.267	21915
872.397	21770
872.526	21603
872.656	21732
872.785	21603
872.915	21838
873.044	21956
873.173	21854
873.303	21869
873.432	21869
873.561	21953
873.69	21835
873.819	21759
873.948	21953
874.077	21804
874.206	21835
874.335	21991
874.464	21960
874.593	22010
874.722	22131
874.851	22044
874.979	22082
875.108	22143
875.237	21979
875.365	21949
875.494	22059
875.623	22036
875.751	22109
875.88	22143
876.008	22051
876.136	22276
876.265	22481
876.393	22512
876.521	22554
876.65	22554
876.778	22466
876.906	22421
877.034	22382
877.162	22421
877.29	22367
877.418	22371
877.546	22333
877.674	22284
877.802	22432
877.93	22204
878.058	22360
878.185	22246
878.313	22230
878.441	22272
878.568	22284
878.696	22306
878.824	22402
878.951	22478
879.079	22599
879.206	22569
879.333	22679
879.461	22481
879.588	22508
879.715	22584
879.842	22641
879.97	22474
880.097	22147
880.224	22226
880.351	22257
880.478	22413
880.605	22223
880.732	22280
880.859	22466
880.986	22314
881.112	22265
881.239	22154
881.366	21983
881.493	21892
881.619	21759
881.746	21823
881.872	21800
881.999	21854
882.125	21751
882.252	21876
882.378	21675
882.505	21930
882.631	21557
882.757	21583
882.883	21523
883.01	21610
883.136	21469
883.262	21412
883.388	21291
883.514	21530
883.64	21534
883.766	21477
883.892	21313
884.018	21336
884.143	21481
884.269	21469
884.395	21127
884.52	21199
884.646	21230
884.772	21032
884.897	20998
885.023	21146
885.148	21287
885.274	21268
885.399	21176
885.524	21058
885.65	21089
885.775	21146
885.9	21150
886.025	21302
886.15	21287
886.275	21127
886.4	21096
886.525	21062
886.65	21024
886.775	21077
886.9	21169
887.025	21294
887.149	21009
887.274	20895
887.399	20823
887.523	20982
887.648	20868
887.773	20891
887.897	20990
888.021	20963
888.146	20712
888.27	21005
888.395	21070
888.519	20842
888.643	20902
888.767	21020
888.891	20765
889.015	20545
889.139	20902
889.263	20674
889.387	20979
889.511	20925
889.635	20804
889.759	20792
889.883	20686
890.006	20670
890.13	20853
890.254	20651
890.377	20583
890.501	20499
890.624	20415
890.748	20488
890.871	20423
890.995	20286
891.118	20130
891.241	20366
891.364	20313
891.488	20530
891.611	20221
891.734	20290
891.857	20275
891.98	20294
892.103	20389
892.226	20259
892.349	20092
892.471	20096
892.594	20119
892.717	20271
892.839	20191
892.962	20176
893.085	20240
893.207	20119
893.33	19959
893.452	20077
893.575	20115
893.697	20164
893.819	20298
893.941	20320
894.064	20199
894.186	20134
894.308	20122
894.43	20278
894.552	20339
894.674	20301
894.796	20130
894.918	20145
895.04	20195
895.161	20263
895.283	20191
895.405	20103
895.526	20202
895.648	20172
895.769	20187
895.891	20248
896.012	20202
896.134	20149
896.255	20229
896.376	20130
896.498	20252
896.619	20164
896.74	20096
896.861	20282
896.982	20590
897.103	20689
897.224	20442
897.345	20385
897.466	20305
897.587	20332
897.708	20579
897.828	20404
897.949	20351
898.07	20233
898.19	20431
898.311	20400
898.431	20473
898.552	20408
898.672	20434
898.792	20473
898.913	20309
899.033	20248
899.153	20202
899.273	20122
899.393	20187
899.513	20244
899.633	20240
899.753	20142
899.873	20043
899.993	20130
900.113	20062
900.232	20119
900.352	20153
900.472	20122
900.591	19887
900.711	19959
900.83	19879
900.95	20062
901.069	20046
901.189	19883
901.308	19552
901.427	19613
901.546	19472
901.665	19548
901.784	19480
901.904	19407
902.023	19247
902.141	19038
902.26	19053
902.379	19137
902.498	19057
902.617	18882
902.735	19057
902.854	19023
902.973	18886
903.091	18681
903.21	18730
903.328	18738
903.446	18578
903.565	18612
903.683	18551
903.801	18361
903.919	18414
904.038	18399
904.156	18319
904.274	18391
904.392	18232
904.51	18277
904.627	18171
904.745	18319
904.863	18292
904.981	18087
905.098	17836
905.216	17961
905.334	17916
905.451	17824
905.569	17901
905.686	17969
905.803	17859
905.921	17718
906.038	17775
906.155	17756
906.272	17684
906.389	17539
906.506	17444
906.623	17429
906.74	17452
906.857	17368
906.974	17410
907.091	17535
907.208	17604
907.324	17448
907.441	17299
907.557	17265
907.674	17113
907.79	17159
907.907	17121
908.023	17216
908.139	17231
908.256	17109
908.372	17071
908.488	17060
908.604	16881
908.72	16869
908.836	16850
908.952	16812
909.068	16885
909.184	16980
909.3	16843
909.415	16965
909.531	16904
909.647	16679
909.762	16596
909.878	16656
909.993	16626
910.108	16668
910.224	16546
910.339	16470
910.454	16489
910.57	16417
910.685	16303
910.8	16748
910.915	16634
911.03	16352
911.145	16211
911.259	16192
911.374	16238
911.489	16131
911.604	16147
911.718	15903
911.833	15922
911.947	15949
912.062	15880
912.176	15911
912.291	16013
912.405	15930
912.519	16097
912.633	16150
912.748	15926
912.862	15861
912.976	15694
913.09	15686
913.204	15797
913.318	15819
913.431	15907
913.545	15686
913.659	15930
913.772	15709
913.886	15656
914	15496
914.113	15534
914.226	15629
914.34	15618
914.453	15393
914.566	15606
914.68	15431
914.793	15416
914.906	15211
915.019	15142
915.132	15085
915.245	15211
915.358	15207
915.47	15211
915.583	15138
915.696	15169
915.809	15222
915.921	15294
916.034	15184
916.146	15112
916.259	14982
916.371	15127
916.483	15127
916.595	15017
916.708	15017
916.82	15020
916.932	14906
917.044	14933
917.156	14823
917.268	14880
917.38	14864
917.491	14754
917.603	14845
917.715	14963
917.826	14971
917.938	14697
918.049	14556
918.161	14708
918.272	14921
918.384	14880
918.495	14731
918.606	14644
918.717	14507
918.828	14629
918.939	14522
919.05	14590
919.161	14526
919.272	14332
919.383	14457
919.494	14537
919.604	14777
919.715	14530
919.826	14347
919.936	14533
920.047	14575
920.157	14590
920.267	14621
920.378	14590
920.488	14469
920.598	14796
920.708	14811
920.818	14674
920.928	14640
921.038	14811
921.148	14773
921.258	14427
921.368	14336
921.477	14309
921.587	14248
921.697	14168
921.806	14191
921.916	14153
922.025	14050
922.134	13909
922.244	13864
922.353	13955
922.462	13769
922.571	13719
922.68	13586
922.789	13495
922.898	13605
923.007	13476
923.116	13681
923.224	13594
923.333	13605
923.442	13384
923.55	13411
923.659	13491
923.767	13487
923.876	13343
923.984	13464
924.092	13266
924.201	13236
924.309	13316
924.417	13247
924.525	13228
924.633	13217
924.741	14073
924.849	13069
924.956	13206
925.064	12973
925.172	12932
925.279	12897
925.387	13019
925.494	12966
925.602	13042
925.709	12932
925.816	12901
925.924	12920
926.031	13031
926.138	12947
926.245	12947
926.352	12821
926.459	12916
926.566	12966
926.673	12798
926.779	12665
926.886	12749
926.993	12620
927.099	12608
927.206	12559
927.312	12403
927.419	12525
927.525	12532
927.631	12563
927.737	12467
927.843	12372
927.95	12270
928.056	12388
928.162	12410
928.267	12452
928.373	13019
928.479	12346
928.585	12194
928.69	12410
928.796	12395
928.901	12220
929.007	12144
929.112	12148
929.218	12205
929.323	12140
929.428	12129
929.533	12235
929.638	12019
929.743	12087
929.848	12060
929.953	12007
930.058	11973
930.163	11790
930.267	11786
930.372	11988
930.477	11779
930.581	12022
930.685	11889
930.79	11695
930.894	11649
930.998	11623
931.103	11821
931.207	11433
931.311	11265
931.415	11303
931.519	11090
931.623	11098
