Data from test_V78500241_18.txt Node
Date: Fri Mar 25 15:41:55 CST 2022
User: usil
Spectrometer: V785-0024
Trigger mode: 0
Integration Time (sec): 4.000000E-1
Scans to average: 1
Nonlinearity correction enabled: false
Boxcar width: 0
Storing dark spectrum: false
XAxis mode: Wavelengths
Number of Pixels in Spectrum: 1024
>>>>>Begin Spectral Data<<<<<
801.071	26918
801.214	26883
801.356	26750
801.499	26697
801.641	26663
801.783	26218
801.926	26366
802.068	26408
802.211	26355
802.353	26256
802.496	26142
802.638	26073
802.78	25887
802.923	26031
803.065	25902
803.208	25970
803.35	25826
803.492	25951
803.635	26115
803.777	25978
803.919	26161
804.061	26309
804.204	26138
804.346	25860
804.488	25742
804.63	25868
804.773	25871
804.915	25845
805.057	26008
805.199	25826
805.341	25970
805.483	26088
805.626	26016
805.768	25986
805.91	25989
806.052	26001
806.194	25928
806.336	26149
806.478	25959
806.62	25936
806.762	26084
806.904	26176
807.046	26377
807.188	26362
807.33	26324
807.472	26282
807.614	26248
807.756	26210
807.898	26161
808.04	25928
808.182	26058
808.324	26069
808.465	26043
808.607	26221
808.749	26328
808.891	26469
809.033	26423
809.174	26412
809.316	26366
809.458	26476
809.6	26332
809.741	26362
809.883	26442
810.025	26587
810.166	26659
810.308	26640
810.45	26564
810.591	26511
810.733	26324
810.875	26214
811.016	26100
811.158	26084
811.299	26408
811.441	26400
811.582	26301
811.724	26263
811.865	26221
812.007	26259
812.148	26298
812.29	26210
812.431	26408
812.573	26556
812.714	26571
812.855	26720
812.997	26765
813.138	26937
813.279	26940
813.421	26765
813.562	26682
813.703	26522
813.845	26453
813.986	25959
814.127	25887
814.268	25750
814.41	25917
814.551	25670
814.692	26001
814.833	25750
814.974	25780
815.115	25807
815.256	25563
815.397	25704
815.539	25510
815.68	25491
815.821	25441
815.962	25476
816.103	25343
816.244	25251
816.385	25251
816.526	25046
816.666	24985
816.807	24901
816.948	25000
817.089	24951
817.23	24867
817.371	24798
817.512	24848
817.653	24856
817.793	24741
817.934	24768
818.075	24749
818.216	24722
818.356	24753
818.497	24764
818.638	24540
818.778	24570
818.919	24452
819.06	24597
819.2	24555
819.341	24654
819.481	24608
819.622	24715
819.762	24996
819.903	24909
820.043	24730
820.184	24631
820.324	24802
820.465	24859
820.605	24871
820.746	24661
820.886	24631
821.026	24578
821.167	24684
821.307	24711
821.447	24601
821.588	24601
821.728	24418
821.868	24171
822.008	24049
822.149	23996
822.289	24057
822.429	23764
822.569	23733
822.709	23866
822.849	23661
822.99	23570
823.13	23535
823.27	23490
823.41	23345
823.55	23227
823.69	23299
823.83	23356
823.97	23223
824.11	23109
824.25	22995
824.389	23056
824.529	23349
824.669	23018
824.809	23220
824.949	23235
825.089	23178
825.228	23200
825.368	22873
825.508	22877
825.648	23037
825.787	22949
825.927	22889
826.067	22862
826.206	22736
826.346	22968
826.485	22923
826.625	22824
826.765	22927
826.904	22896
827.044	22641
827.183	22489
827.323	22421
827.462	22565
827.601	22542
827.741	22413
827.88	22325
828.02	22363
828.159	22360
828.298	22535
828.437	22603
828.577	22363
828.716	22508
828.855	22447
828.994	22204
829.134	22207
829.273	22253
829.412	22147
829.551	22093
829.69	22181
829.829	22226
829.968	22295
830.107	22143
830.246	22051
830.385	21991
830.524	22143
830.663	21838
830.802	21884
830.941	21751
831.08	21660
831.219	21816
831.357	21797
831.496	21972
831.635	21591
831.774	21595
831.913	21618
832.051	21416
832.19	21374
832.329	21469
832.467	21454
832.606	21252
832.744	21344
832.883	21401
833.022	21222
833.16	21310
833.299	21329
833.437	21332
833.576	21332
833.714	21416
833.852	21462
833.991	21317
834.129	21526
834.267	21306
834.406	21401
834.544	21211
834.682	21447
834.821	21355
834.959	21538
835.097	21344
835.235	21283
835.373	21325
835.511	21272
835.65	21245
835.788	21184
835.926	21112
836.064	21039
836.202	20986
836.34	21173
836.478	21222
836.615	21192
836.753	21180
836.891	21241
837.029	21184
837.167	21195
837.305	21100
837.443	21062
837.58	21112
837.718	21100
837.856	21036
837.993	21020
838.131	21062
838.269	20849
838.406	20948
838.544	20838
838.681	20743
838.819	20587
838.956	20461
839.094	20415
839.231	20522
839.369	20632
839.506	20819
839.643	20720
839.781	20404
839.918	20366
840.055	20298
840.193	20317
840.33	20393
840.467	20412
840.604	20366
840.742	20594
840.879	20237
841.016	20294
841.153	20275
841.29	20511
841.427	20324
841.564	20298
841.701	20313
841.838	20305
841.975	20206
842.112	20195
842.249	20248
842.385	20069
842.522	20286
842.659	20180
842.796	20058
842.933	20168
843.069	19951
843.206	20020
843.343	20161
843.479	20168
843.616	19989
843.752	19906
843.889	19765
844.025	19845
844.162	19784
844.298	19795
844.435	19807
844.571	19719
844.708	19803
844.844	19940
844.98	19887
845.117	19845
845.253	19769
845.389	19613
845.525	19616
845.661	19689
845.798	19499
845.934	19518
846.07	19457
846.206	19552
846.342	19685
846.478	19472
846.614	19419
846.75	19266
846.886	19213
847.022	19282
847.158	19270
847.294	19194
847.429	19202
847.565	19107
847.701	19419
847.837	19008
847.972	18993
848.108	19038
848.244	19057
848.379	18897
848.515	18734
848.65	18696
848.786	18867
848.921	18741
849.057	19004
849.192	18768
849.328	18745
849.463	18730
849.598	18806
849.734	18684
849.869	18654
850.004	18563
850.14	18623
850.275	18483
850.41	18380
850.545	18319
850.68	18380
850.815	18642
850.95	18475
851.085	18730
851.22	18441
851.355	18471
851.49	18452
851.625	18486
851.76	18506
851.895	18426
852.03	18483
852.165	18456
852.299	18631
852.434	18574
852.569	18513
852.703	18464
852.838	18563
852.973	18623
853.107	18563
853.242	18361
853.376	18304
853.511	18311
853.645	18330
853.78	18441
853.914	18304
854.048	18254
854.183	18247
854.317	18292
854.451	18448
854.585	18372
854.72	18334
854.854	18277
854.988	18319
855.122	18334
855.256	18220
855.39	18178
855.524	18414
855.658	18384
855.792	18300
855.926	18334
856.06	18414
856.194	18399
856.327	18338
856.461	18182
856.595	18323
856.729	18216
856.862	18509
856.996	18380
857.13	18334
857.263	18361
857.397	18414
857.53	18239
857.664	18292
857.797	18197
857.931	18395
858.064	18353
858.197	18342
858.331	18292
858.464	18266
858.597	18155
858.731	18197
858.864	18239
858.997	18045
859.13	18201
859.263	18136
859.396	18410
859.529	18201
859.662	18209
859.795	18163
859.928	18235
860.061	18407
860.194	18391
860.327	18365
860.46	18159
860.592	18304
860.725	18353
860.858	18353
860.99	18015
861.123	18190
861.256	18136
861.388	18159
861.521	18738
861.653	18072
861.786	18034
861.918	18216
862.05	18289
862.183	18395
862.315	18304
862.447	18342
862.58	18224
862.712	18038
862.844	17904
862.976	18152
863.108	18114
863.24	18407
863.372	17878
863.504	18045
863.636	17927
863.768	17961
863.9	17931
864.032	17813
864.164	17859
864.296	17973
864.428	18064
864.559	18030
864.691	18060
864.823	17965
864.954	17859
865.086	17927
865.217	17832
865.349	17920
865.48	17764
865.612	17920
865.743	18030
865.875	17779
866.006	17847
866.137	17931
866.269	17984
866.4	17824
866.531	17851
866.662	17843
866.793	17802
866.924	17790
867.055	17946
867.186	17847
867.317	17840
867.448	17752
867.579	17760
867.71	17653
867.841	17684
867.972	17794
868.103	17847
868.233	17904
868.364	17847
868.495	17977
868.625	18064
868.756	18140
868.886	17958
869.017	17977
869.147	18136
869.278	18148
869.408	18072
869.539	18034
869.669	18186
869.799	18057
869.929	18110
870.06	18228
870.19	18353
870.32	18186
870.45	18365
870.58	18464
870.71	18658
870.84	18574
870.97	18445
871.1	18342
871.23	18673
871.36	18688
871.489	18612
871.619	18700
871.749	18684
871.879	18661
872.008	18814
872.138	18612
872.267	18738
872.397	18521
872.526	18498
872.656	18494
872.785	18437
872.915	18711
873.044	18863
873.173	18692
873.303	18791
873.432	18760
873.561	18745
873.69	18707
873.819	18684
873.948	18779
874.077	18833
874.206	18627
874.335	18798
874.464	18863
874.593	18973
874.722	18837
874.851	19065
874.979	19015
875.108	18985
875.237	18890
875.365	18821
875.494	18989
875.623	19091
875.751	19008
875.88	18985
876.008	19114
876.136	19209
876.265	19419
876.393	19499
876.521	19552
876.65	19430
876.778	19415
876.906	19331
877.034	19350
877.162	19422
877.29	19316
877.418	19339
877.546	19365
877.674	19388
877.802	19430
877.93	19331
878.058	19381
878.185	19316
878.313	19339
878.441	19251
878.568	19297
878.696	19343
878.824	19308
878.951	19411
879.079	19521
879.206	19765
879.333	19449
879.461	19434
879.588	19472
879.715	19506
879.842	19795
879.97	19445
880.097	19217
880.224	19278
880.351	19282
880.478	19251
880.605	19206
880.732	19274
880.859	19540
880.986	19362
881.112	19297
881.239	19057
881.366	18977
881.493	18939
881.619	18935
881.746	18825
881.872	18856
881.999	18726
882.125	18791
882.252	18909
882.378	18798
882.505	18970
882.631	18783
882.757	18703
882.883	18665
883.01	18639
883.136	18494
883.262	18517
883.388	18467
883.514	18692
883.64	18582
883.766	18544
883.892	18521
884.018	18456
884.143	18608
884.269	18700
884.395	18429
884.52	18277
884.646	18201
884.772	18201
884.897	18334
885.023	18216
885.148	18289
885.274	18441
885.399	18289
885.524	18239
885.65	18296
885.775	18292
885.9	18254
886.025	18426
886.15	18289
886.275	18091
886.4	18114
886.525	18197
886.65	18174
886.775	18106
886.9	18369
887.025	18380
887.149	18247
887.274	18019
887.399	18030
887.523	18022
887.648	17961
887.773	17980
887.897	18049
888.021	18041
888.146	18003
888.27	18072
888.395	18152
888.519	18060
888.643	18079
888.767	18041
888.891	18003
889.015	17920
889.139	17893
889.263	17790
889.387	18057
889.511	17992
889.635	17927
889.759	17783
889.883	17722
890.006	17912
890.13	17828
890.254	17756
890.377	17760
890.501	17642
890.624	17577
890.748	17634
890.871	17440
890.995	17402
891.118	17364
891.241	17444
891.364	17425
891.488	17604
891.611	17497
891.734	17600
891.857	17543
891.98	17406
892.103	17554
892.226	17436
892.349	17501
892.471	17265
892.594	17360
892.717	17455
892.839	17433
892.962	17547
893.085	17444
893.207	17402
893.33	17360
893.452	17376
893.575	17436
893.697	17440
893.819	17661
893.941	17847
894.064	17600
894.186	17318
894.308	17345
894.43	17524
894.552	17619
894.674	17471
894.796	17425
894.918	17425
895.04	17433
895.161	17528
895.283	17410
895.405	17436
895.526	17406
895.648	17528
895.769	17505
895.891	17524
896.012	17581
896.134	17573
896.255	17543
896.376	17486
896.498	17596
896.619	17623
896.74	17558
896.861	17623
896.982	17878
897.103	18026
897.224	17805
897.345	17843
897.466	17642
897.587	17756
897.708	17946
897.828	17817
897.949	17741
898.07	17585
898.19	17726
898.311	17855
898.431	17748
898.552	17798
898.672	17802
898.792	17923
898.913	17863
899.033	17760
899.153	17493
899.273	17376
899.393	17532
899.513	17646
899.633	17516
899.753	17486
899.873	17490
899.993	17532
900.113	17452
900.232	17547
900.352	17414
900.472	17425
900.591	17200
900.711	17372
900.83	17315
900.95	17433
901.069	17490
901.189	17231
901.308	17071
901.427	16999
901.546	16942
901.665	17022
901.784	16968
901.904	16946
902.023	16748
902.141	16626
902.26	16558
902.379	16558
902.498	16626
902.617	16413
902.735	16451
902.854	16424
902.973	16455
903.091	16185
903.21	16097
903.328	16200
903.446	16223
903.565	16166
903.683	16002
903.801	15800
903.919	16055
904.038	15964
904.156	15850
904.274	15808
904.392	15793
904.51	15816
904.627	15846
904.745	15903
904.863	15778
904.981	15557
905.098	15488
905.216	15542
905.334	15454
905.451	15393
905.569	15443
905.686	15538
905.803	15492
905.921	15317
906.038	15481
906.155	15363
906.272	15233
906.389	15203
906.506	15020
906.623	15039
906.74	15070
906.857	14868
906.974	14819
907.091	15058
907.208	15157
907.324	15005
907.441	14914
907.557	14777
907.674	14800
907.79	14651
907.907	14606
908.023	14762
908.139	14693
908.256	14655
908.372	14621
908.488	14659
908.604	14408
908.72	14374
908.836	14351
908.952	14457
909.068	14461
909.184	14438
909.3	14469
909.415	14412
909.531	14320
909.647	14172
909.762	14206
909.878	14035
909.993	14012
910.108	14031
910.224	14046
910.339	14111
910.454	14016
910.57	13947
910.685	13879
910.8	14180
910.915	14077
911.03	13982
911.145	13822
911.259	13784
911.374	13807
911.489	13624
911.604	13552
911.718	13609
911.833	13521
911.947	13472
912.062	13438
912.176	13632
912.291	13658
912.405	13506
912.519	13685
912.633	13746
912.748	13609
912.862	13468
912.976	13343
913.09	13240
913.204	13335
913.318	13339
913.431	13320
913.545	13400
913.659	13392
913.772	13377
913.886	13209
914	13149
914.113	13213
914.226	13282
914.34	13236
914.453	13129
914.566	13270
914.68	13168
914.793	13145
914.906	12871
915.019	12939
915.132	12840
915.245	12806
915.358	12867
915.47	12886
915.583	12871
915.696	12966
915.809	12966
915.921	12943
916.034	12913
916.146	12840
916.259	12745
916.371	12867
916.483	12798
916.595	12734
916.708	12787
916.82	12741
916.932	12642
917.044	12684
917.156	12700
917.268	12662
917.38	12650
917.491	12593
917.603	12620
917.715	12669
917.826	12555
917.938	12502
918.049	12471
918.161	12608
918.272	12711
918.384	12719
918.495	12597
918.606	12429
918.717	12350
918.828	12422
918.939	12448
919.05	12281
919.161	12319
919.272	12186
919.383	12125
919.494	12475
919.604	12646
919.715	12422
919.826	12357
919.936	12350
920.047	12475
920.157	12467
920.267	12585
920.378	12410
920.488	12395
920.598	12494
920.708	12673
920.818	12513
920.928	12566
921.038	12719
921.148	12544
921.258	12342
921.368	12247
921.477	12190
921.587	12186
921.697	11965
921.806	12239
921.916	12064
922.025	11912
922.134	11828
922.244	11840
922.353	11805
922.462	11786
922.571	11661
922.68	11509
922.789	11509
922.898	11543
923.007	11383
923.116	11516
923.224	11471
923.333	11448
923.442	11356
923.55	11307
923.659	11452
923.767	11448
923.876	11212
923.984	11334
924.092	11353
924.201	11322
924.309	11299
924.417	11292
924.525	11098
924.633	11258
924.741	12224
924.849	10991
924.956	11246
925.064	10984
925.172	10968
925.279	10934
925.387	11029
925.494	10968
925.602	11212
925.709	11121
925.816	10930
925.924	10972
926.031	11098
926.138	10984
926.245	11025
926.352	10824
926.459	11029
926.566	11113
926.673	10938
926.779	10862
926.886	10820
926.993	10694
927.099	10725
927.206	10599
927.312	10683
927.419	10710
927.525	10683
927.631	10599
927.737	10516
927.843	10618
927.95	10462
928.056	10516
928.162	10500
928.267	10558
928.373	11197
928.479	10653
928.585	10329
928.69	10447
928.796	10470
928.901	10417
929.007	10284
929.112	10363
929.218	10337
929.323	10291
929.428	10272
929.533	10413
929.638	10238
929.743	10268
929.848	10329
929.953	10215
930.058	10177
930.163	9953
930.267	9975
930.372	10150
930.477	9945
930.581	10105
930.685	10090
930.79	9861
930.894	9949
930.998	9865
931.103	9991
931.207	9663
931.311	9603
931.415	9469
931.519	9291
931.623	9313
