Data from test_V78500241_1927.txt Node
Date: Fri Mar 25 15:55:09 CST 2022
User: usil
Spectrometer: V785-0024
Trigger mode: 0
Integration Time (sec): 4.000000E-1
Scans to average: 1
Nonlinearity correction enabled: false
Boxcar width: 0
Storing dark spectrum: false
XAxis mode: Wavelengths
Number of Pixels in Spectrum: 1024
>>>>>Begin Spectral Data<<<<<
801.071	28584
801.214	28649
801.356	28401
801.499	28398
801.641	28310
801.783	28219
801.926	28242
802.068	28310
802.211	28223
802.353	28223
802.496	28074
802.638	27987
802.78	27888
802.923	27880
803.065	27663
803.208	27907
803.35	27926
803.492	28162
803.635	28192
803.777	28082
803.919	28299
804.061	28630
804.204	28261
804.346	27983
804.488	28090
804.63	28291
804.773	28063
804.915	28215
805.057	28306
805.199	28185
805.341	28287
805.483	28329
805.626	28478
805.768	28276
805.91	28284
806.052	28436
806.194	28337
806.336	28519
806.478	28211
806.62	28379
806.762	28531
806.904	28573
807.046	28793
807.188	28748
807.33	28660
807.472	28858
807.614	28774
807.756	28736
807.898	28721
808.04	28508
808.182	28607
808.324	28679
808.465	28698
808.607	28930
808.749	29048
808.891	29086
809.033	29200
809.174	29102
809.316	28923
809.458	28881
809.6	28984
809.741	29067
809.883	29166
810.025	29147
810.166	29181
810.308	29360
810.45	29341
810.591	29204
810.733	28991
810.875	29033
811.016	28873
811.158	28850
811.299	29109
811.441	29029
811.582	29071
811.724	29071
811.865	29147
812.007	28854
812.148	28991
812.29	29083
812.431	29250
812.573	29296
812.714	29520
812.855	29497
812.997	29554
813.138	29817
813.279	29703
813.421	29436
813.562	29512
813.703	29474
813.845	29208
813.986	29025
814.127	28820
814.268	28736
814.41	28694
814.551	28706
814.692	28866
814.833	28637
814.974	28618
815.115	28843
815.256	28519
815.397	28656
815.539	28687
815.68	28508
815.821	28516
815.962	28596
816.103	28596
816.244	28394
816.385	28386
816.526	28295
816.666	28078
816.807	28029
816.948	28135
817.089	28154
817.23	28200
817.371	28010
817.512	28021
817.653	28021
817.793	28063
817.934	28025
818.075	28055
818.216	27926
818.356	27991
818.497	27914
818.638	27812
818.778	27937
818.919	27808
819.06	27846
819.2	27991
819.341	28048
819.481	27975
819.622	28242
819.762	28432
819.903	28295
820.043	28280
820.184	28192
820.324	28010
820.465	28143
820.605	28181
820.746	28036
820.886	27941
821.026	28109
821.167	28169
821.307	28154
821.447	28048
821.588	28082
821.728	27880
821.868	27679
822.008	27663
822.149	27519
822.289	27382
822.429	27241
822.569	27233
822.709	27184
822.849	27039
822.99	26971
823.13	27195
823.27	26910
823.41	26811
823.55	26731
823.69	26857
823.83	26967
823.97	26800
824.11	26674
824.25	26579
824.389	26735
824.529	26724
824.669	26648
824.809	26689
824.949	26830
825.089	26857
825.228	26773
825.368	26579
825.508	26427
825.648	26499
825.787	26564
825.927	26568
826.067	26533
826.206	26545
826.346	26549
826.485	26750
826.625	26629
826.765	26594
826.904	26632
827.044	26339
827.183	26229
827.323	26244
827.462	26336
827.601	26271
827.741	26176
827.88	26157
828.02	26183
828.159	26221
828.298	26256
828.437	26457
828.577	26206
828.716	26434
828.855	26183
828.994	25940
829.134	25913
829.273	26111
829.412	25887
829.551	25822
829.69	25989
829.829	26005
829.968	25944
830.107	25970
830.246	26001
830.385	25803
830.524	25902
830.663	25852
830.802	25655
830.941	25613
831.08	25476
831.219	25559
831.357	25620
831.496	25643
831.635	25571
831.774	25460
831.913	25377
832.051	25297
832.19	25369
832.329	25343
832.467	25266
832.606	25194
832.744	25175
832.883	25190
833.022	25236
833.16	25247
833.299	25343
833.437	25213
833.576	25263
833.714	25312
833.852	25362
833.991	25358
834.129	25396
834.267	25247
834.406	25339
834.544	25346
834.682	25266
834.821	25278
834.959	25499
835.097	25289
835.235	25285
835.373	25206
835.511	25019
835.65	25171
835.788	25320
835.926	25050
836.064	24882
836.202	25080
836.34	25038
836.478	25129
836.615	25072
836.753	25209
836.891	25099
837.029	25160
837.167	25114
837.305	24943
837.443	24928
837.58	24798
837.718	25031
837.856	25091
837.993	24840
838.131	24886
838.269	24852
838.406	24821
838.544	24810
838.681	24627
838.819	24627
838.956	24498
839.094	24437
839.231	24654
839.369	24661
839.506	24757
839.643	24601
839.781	24342
839.918	24437
840.055	24334
840.193	24342
840.33	24308
840.467	24311
840.604	24247
840.742	24673
840.879	24163
841.016	24289
841.153	24167
841.29	24490
841.427	24270
841.564	24235
841.701	24395
841.838	24159
841.975	24133
842.112	24232
842.249	24178
842.385	24026
842.522	24281
842.659	24197
842.796	24041
842.933	23965
843.069	23984
843.206	24091
843.343	24239
843.479	24064
843.616	24015
843.752	23821
843.889	23840
844.025	23958
844.162	23817
844.298	23927
844.435	23737
844.571	23912
844.708	23889
844.844	23927
844.98	23939
845.117	23904
845.253	23802
845.389	23729
845.525	23722
845.661	23741
845.798	23646
845.934	23661
846.07	23600
846.206	23623
846.342	23619
846.478	23539
846.614	23436
846.75	23189
846.886	23208
847.022	23326
847.158	23326
847.294	23227
847.429	23322
847.565	23395
847.701	23471
847.837	22953
847.972	22995
848.108	23155
848.244	23064
848.379	22930
848.515	22999
848.65	22850
848.786	22881
848.921	22919
849.057	22919
849.192	23014
849.328	22812
849.463	22968
849.598	22824
849.734	22729
849.869	22748
850.004	22599
850.14	22672
850.275	22607
850.41	22493
850.545	22546
850.68	22702
850.815	22580
850.95	22550
851.085	22809
851.22	22812
851.355	22710
851.49	22653
851.625	22702
851.76	22599
851.895	22523
852.03	22489
852.165	22698
852.299	22596
852.434	22687
852.569	22694
852.703	22599
852.838	22748
852.973	22790
853.107	22774
853.242	22607
853.376	22459
853.511	22451
853.645	22405
853.78	22603
853.914	22611
854.048	22421
854.183	22462
854.317	22371
854.451	22599
854.585	22405
854.72	22443
854.854	22516
854.988	22436
855.122	22554
855.256	22436
855.39	22470
855.524	22588
855.658	22356
855.792	22470
855.926	22466
856.06	22478
856.194	22565
856.327	22310
856.461	22303
856.595	22436
856.729	22394
856.862	22615
856.996	22447
857.13	22577
857.263	22394
857.397	22637
857.53	22352
857.664	22474
857.797	22611
857.931	22538
858.064	22466
858.197	22516
858.331	22413
858.464	22356
858.597	22428
858.731	22417
858.864	22367
858.997	22451
859.13	22413
859.263	22443
859.396	22504
859.529	22432
859.662	22500
859.795	22405
859.928	22474
860.061	22538
860.194	22653
860.327	22618
860.46	22679
860.592	22561
860.725	22683
860.858	22546
860.99	22531
861.123	22382
861.256	22352
861.388	22436
861.521	23216
861.653	22348
861.786	22211
861.918	22310
862.05	22371
862.183	22329
862.315	22329
862.447	22398
862.58	22402
862.712	22086
862.844	22090
862.976	22238
863.108	22268
863.24	22626
863.372	22139
863.504	22070
863.636	22188
863.768	22192
863.9	22299
864.032	22135
864.164	22101
864.296	22173
864.428	22306
864.559	22253
864.691	22192
864.823	22162
864.954	22097
865.086	22215
865.217	22048
865.349	21876
865.48	22101
865.612	22032
865.743	22261
865.875	22120
866.006	22021
866.137	21968
866.269	22074
866.4	22116
866.531	22086
866.662	21960
866.793	21956
866.924	21968
867.055	21930
867.186	21972
867.317	21895
867.448	21846
867.579	21983
867.71	21816
867.841	21884
867.972	21964
868.103	21926
868.233	21926
868.364	21991
868.495	22036
868.625	22082
868.756	22329
868.886	22139
869.017	22090
869.147	22344
869.278	22238
869.408	22257
869.539	22238
869.669	22352
869.799	22291
869.929	22333
870.06	22284
870.19	22508
870.32	22535
870.45	22512
870.58	22569
870.71	22660
870.84	22641
870.97	22679
871.1	22470
871.23	22748
871.36	22759
871.489	22778
871.619	22797
871.749	22839
871.879	22908
872.008	23048
872.138	22797
872.267	22805
872.397	22896
872.526	22573
872.656	22645
872.785	22485
872.915	22866
873.044	22930
873.173	22938
873.303	23003
873.432	22835
873.561	22839
873.69	22885
873.819	22805
873.948	22987
874.077	22869
874.206	22790
874.335	22919
874.464	23018
874.593	23143
874.722	22968
874.851	23067
874.979	23029
875.108	23079
875.237	22961
875.365	22915
875.494	23083
875.623	23037
875.751	23006
875.88	23064
876.008	23258
876.136	23132
876.265	23330
876.393	23482
876.521	23425
876.65	23543
876.778	23547
876.906	23334
877.034	23356
877.162	23398
877.29	23303
877.418	23383
877.546	23448
877.674	23242
877.802	23505
877.93	23330
878.058	23315
878.185	23395
878.313	23311
878.441	23337
878.568	23159
878.696	23326
878.824	23395
878.951	23448
879.079	23509
879.206	23627
879.333	23528
879.461	23520
879.588	23501
879.715	23535
879.842	23726
879.97	23455
880.097	23166
880.224	23204
880.351	23193
880.478	23208
880.605	23166
880.732	23105
880.859	23360
880.986	23284
881.112	23235
881.239	23159
881.366	22889
881.493	22839
881.619	22679
881.746	22793
881.872	22774
881.999	22854
882.125	22664
882.252	22725
882.378	22843
882.505	22771
882.631	22698
882.757	22481
882.883	22436
883.01	22516
883.136	22360
883.262	22398
883.388	22154
883.514	22375
883.64	22447
883.766	22333
883.892	22249
884.018	22352
884.143	22371
884.269	22470
884.395	22048
884.52	22128
884.646	22067
884.772	21987
884.897	21987
885.023	21979
885.148	22147
885.274	22105
885.399	22082
885.524	22063
885.65	22105
885.775	22093
885.9	22101
886.025	22181
886.15	22154
886.275	22070
886.4	21956
886.525	21998
886.65	22013
886.775	22006
886.9	22158
887.025	22120
887.149	22044
887.274	21907
887.399	21899
887.523	21846
887.648	21736
887.773	21690
887.897	21880
888.021	21789
888.146	21709
888.27	21991
888.395	21865
888.519	21766
888.643	21854
888.767	21827
888.891	21808
889.015	21610
889.139	21614
889.263	21667
889.387	21728
889.511	21895
889.635	21766
889.759	21545
889.883	21523
890.006	21656
890.13	21690
890.254	21618
890.377	21458
890.501	21389
890.624	21275
890.748	21329
890.871	21211
890.995	21070
891.118	21161
891.241	21119
891.364	21112
891.488	21363
891.611	21188
891.734	21116
891.857	21150
891.98	21138
892.103	21211
892.226	21161
892.349	21024
892.471	20910
892.594	21138
892.717	21108
892.839	21043
892.962	21119
893.085	21112
893.207	21096
893.33	20933
893.452	21005
893.575	21127
893.697	20975
893.819	21355
893.941	21252
894.064	21294
894.186	21062
894.308	21017
894.43	21119
894.552	21173
894.674	21077
894.796	21062
894.918	21051
895.04	21001
895.161	20952
895.283	21009
895.405	20952
895.526	21070
895.648	20929
895.769	20994
895.891	21039
896.012	21131
896.134	20982
896.255	21047
896.376	20921
896.498	20975
896.619	21024
896.74	20982
896.861	21074
896.982	21340
897.103	21488
897.224	21313
897.345	21260
897.466	21184
897.587	21264
897.708	21367
897.828	21275
897.949	21256
898.07	21017
898.19	21161
898.311	21272
898.431	21165
898.552	21378
898.672	21302
898.792	21256
898.913	21161
899.033	21055
899.153	21005
899.273	20834
899.393	20944
899.513	21036
899.633	20902
899.753	20986
899.873	20883
899.993	20944
900.113	20777
900.232	20941
900.352	20982
900.472	20819
900.591	20568
900.711	20788
900.83	20712
900.95	20826
901.069	20777
901.189	20590
901.308	20377
901.427	20351
901.546	20294
901.665	20202
901.784	20282
901.904	20145
902.023	20054
902.141	19890
902.26	19887
902.379	19887
902.498	19799
902.617	19769
902.735	19875
902.854	19757
902.973	19685
903.091	19483
903.21	19384
903.328	19582
903.446	19441
903.565	19244
903.683	19297
903.801	19171
903.919	19327
904.038	19209
904.156	19004
904.274	19171
904.392	19088
904.51	19023
904.627	19057
904.745	19145
904.863	19137
904.981	18779
905.098	18650
905.216	18688
905.334	18757
905.451	18741
905.569	18661
905.686	18787
905.803	18650
905.921	18509
906.038	18532
906.155	18574
906.272	18388
906.389	18369
906.506	18235
906.623	18220
906.74	18239
906.857	18144
906.974	18171
907.091	18228
907.208	18277
907.324	18213
907.441	18159
907.557	17992
907.674	17988
907.79	17748
907.907	18015
908.023	17931
908.139	17885
908.256	17824
908.372	17870
908.488	17828
908.604	17657
908.72	17490
908.836	17771
908.952	17566
909.068	17710
909.184	17676
909.3	17608
909.415	17627
909.531	17756
909.647	17425
909.762	17372
909.878	17292
909.993	17318
910.108	17318
910.224	17258
910.339	17258
910.454	17159
910.57	17105
910.685	17105
910.8	17376
910.915	17288
911.03	17075
911.145	17018
911.259	16923
911.374	16930
911.489	16771
911.604	16797
911.718	16569
911.833	16660
911.947	16569
912.062	16573
912.176	16637
912.291	16607
912.405	16580
912.519	16809
912.633	16831
912.748	16664
912.862	16630
912.976	16596
913.09	16360
913.204	16424
913.318	16470
913.431	16607
913.545	16497
913.659	16516
913.772	16265
913.886	16322
914	16246
914.113	16299
914.226	16344
914.34	16329
914.453	16109
914.566	16185
914.68	16147
914.793	16040
914.906	15968
915.019	15888
915.132	15755
915.245	15819
915.358	15831
915.47	15797
915.583	15781
915.696	15842
915.809	15892
915.921	15850
916.034	15827
916.146	15759
916.259	15781
916.371	15888
916.483	15785
916.595	15530
916.708	15629
916.82	15656
916.932	15603
917.044	15534
917.156	15496
917.268	15450
917.38	15439
917.491	15443
917.603	15466
917.715	15492
917.826	15591
917.938	15359
918.049	15336
918.161	15492
918.272	15564
918.384	15538
918.495	15458
918.606	15275
918.717	15176
918.828	15283
918.939	15249
919.05	15146
919.161	15104
919.272	14971
919.383	15005
919.494	15298
919.604	15416
919.715	15188
919.826	15058
919.936	15127
920.047	15180
920.157	15093
920.267	15321
920.378	15207
920.488	15104
920.598	15298
920.708	15370
920.818	15329
920.928	15329
921.038	15412
921.148	15321
921.258	15138
921.368	15036
921.477	14933
921.587	14929
921.697	14762
921.806	14891
921.916	14701
922.025	14629
922.134	14568
922.244	14492
922.353	14507
922.462	14408
922.571	14339
922.68	14195
922.789	14218
922.898	14176
923.007	14062
923.116	14187
923.224	14145
923.333	14145
923.442	14024
923.55	13963
923.659	13898
923.767	14031
923.876	13917
923.984	14020
924.092	13837
924.201	13871
924.309	13814
924.417	13852
924.525	13772
924.633	13814
924.741	14693
924.849	13548
924.956	13750
925.064	13605
925.172	13499
925.279	13472
925.387	13464
925.494	13605
925.602	13715
925.709	13647
925.816	13415
925.924	13533
926.031	13590
926.138	13468
926.245	13510
926.352	13365
926.459	13464
926.566	13506
926.673	13438
926.779	13308
926.886	13247
926.993	13164
927.099	13145
927.206	13137
927.312	13080
927.419	13160
927.525	13019
927.631	13152
927.737	12886
927.843	12916
927.95	12852
928.056	12821
928.162	12886
928.267	12909
928.373	13548
928.479	12886
928.585	12707
928.69	12768
928.796	12882
928.901	12760
929.007	12684
929.112	12692
929.218	12783
929.323	12620
929.428	12612
929.533	12730
929.638	12544
929.743	12509
929.848	12623
929.953	12498
930.058	12506
930.163	12235
930.267	12262
930.372	12464
930.477	12235
930.581	12490
930.685	12407
930.79	12114
930.894	12163
930.998	12144
931.103	12243
931.207	11855
931.311	11859
931.415	11783
931.519	11585
931.623	11490
