Data from test_V78500241_2412.txt Node
Date: Fri Mar 25 15:58:30 CST 2022
User: usil
Spectrometer: V785-0024
Trigger mode: 0
Integration Time (sec): 4.000000E-1
Scans to average: 1
Nonlinearity correction enabled: false
Boxcar width: 0
Storing dark spectrum: false
XAxis mode: Wavelengths
Number of Pixels in Spectrum: 1024
>>>>>Begin Spectral Data<<<<<
801.071	28580
801.214	28386
801.356	28177
801.499	28063
801.641	28002
801.783	27960
801.926	28074
802.068	28051
802.211	28040
802.353	27873
802.496	27937
802.638	27873
802.78	27751
802.923	27701
803.065	27705
803.208	27789
803.35	27663
803.492	27907
803.635	27903
803.777	27941
803.919	28013
804.061	28147
804.204	28013
804.346	27949
804.488	27918
804.63	27964
804.773	27918
804.915	27934
805.057	28063
805.199	27964
805.341	28036
805.483	28234
805.626	28192
805.768	28177
805.91	28078
806.052	28143
806.194	28017
806.336	28166
806.478	28166
806.62	28177
806.762	28249
806.904	28363
807.046	28736
807.188	28645
807.33	28748
807.472	28554
807.614	28421
807.756	28607
807.898	28424
808.04	28382
808.182	28310
808.324	28462
808.465	28527
808.607	28630
808.749	28717
808.891	28862
809.033	28987
809.174	28793
809.316	28862
809.458	28698
809.6	28869
809.741	28733
809.883	28930
810.025	29086
810.166	29128
810.308	29147
810.45	28961
810.591	29083
810.733	28831
810.875	28809
811.016	28706
811.158	28755
811.299	28892
811.441	29029
811.582	28908
811.724	28877
811.865	28809
812.007	28877
812.148	28797
812.29	28812
812.431	28911
812.573	29060
812.714	29364
812.855	29307
812.997	29387
813.138	29509
813.279	29505
813.421	29292
813.562	29216
813.703	29086
813.845	29079
813.986	28790
814.127	28580
814.268	28500
814.41	28432
814.551	28493
814.692	28596
814.833	28356
814.974	28481
815.115	28565
815.256	28379
815.397	28451
815.539	28565
815.68	28363
815.821	28280
815.962	28314
816.103	28360
816.244	28166
816.385	28078
816.526	28032
816.666	27846
816.807	27895
816.948	27861
817.089	27804
817.23	27869
817.371	27770
817.512	27781
817.653	27755
817.793	27739
817.934	27876
818.075	27865
818.216	27953
818.356	27705
818.497	27743
818.638	27488
818.778	27705
818.919	27644
819.06	27610
819.2	27701
819.341	27998
819.481	27835
819.622	27827
819.762	28074
819.903	28067
820.043	28032
820.184	27842
820.324	27918
820.465	27892
820.605	27778
820.746	27979
820.886	27827
821.026	27956
821.167	27892
821.307	27914
821.447	27823
821.588	27675
821.728	27580
821.868	27462
822.008	27458
822.149	27256
822.289	27256
822.429	27089
822.569	26967
822.709	27009
822.849	26750
822.99	26746
823.13	26667
823.27	26743
823.41	26499
823.55	26431
823.69	26663
823.83	26606
823.97	26606
824.11	26499
824.25	26396
824.389	26393
824.529	26507
824.669	26541
824.809	26511
824.949	26461
825.089	26712
825.228	26465
825.368	26343
825.508	26396
825.648	26317
825.787	26320
825.927	26347
826.067	26336
826.206	26355
826.346	26267
826.485	26286
826.625	26324
826.765	26423
826.904	26412
827.044	26119
827.183	26058
827.323	26001
827.462	26054
827.601	26027
827.741	26107
827.88	26096
828.02	25959
828.159	26069
828.298	26103
828.437	26134
828.577	25947
828.716	26069
828.855	25925
828.994	25666
829.134	25666
829.273	25765
829.412	25753
829.551	25864
829.69	25727
829.829	25704
829.968	25894
830.107	25803
830.246	25757
830.385	25643
830.524	25635
830.663	25597
830.802	25346
830.941	25308
831.08	25217
831.219	25487
831.357	25388
831.496	25464
831.635	25331
831.774	25133
831.913	25198
832.051	25107
832.19	25126
832.329	25053
832.467	25015
832.606	24882
832.744	24928
832.883	25031
833.022	24989
833.16	24943
833.299	25046
833.437	24894
833.576	25107
833.714	25118
833.852	25076
833.991	25141
834.129	25099
834.267	25183
834.406	24992
834.544	25088
834.682	24989
834.821	25015
834.959	25183
835.097	24932
835.235	25107
835.373	25099
835.511	25065
835.65	24882
835.788	24871
835.926	24757
836.064	24734
836.202	24642
836.34	24852
836.478	25004
836.615	24871
836.753	24825
836.891	25137
837.029	24859
837.167	24920
837.305	24871
837.443	24787
837.58	24726
837.718	24760
837.856	24856
837.993	24661
838.131	24707
838.269	24589
838.406	24726
838.544	24711
838.681	24391
838.819	24338
838.956	24315
839.094	24251
839.231	24300
839.369	24422
839.506	24608
839.643	24464
839.781	24117
839.918	24174
840.055	24228
840.193	24091
840.33	24053
840.467	24110
840.604	24163
840.742	24452
840.879	24041
841.016	23923
841.153	24007
841.29	24292
841.427	24072
841.564	24228
841.701	24129
841.838	23996
841.975	24076
842.112	24034
842.249	23878
842.385	23798
842.522	24057
842.659	23999
842.796	23752
842.933	23836
843.069	23767
843.206	23851
843.343	23878
843.479	23988
843.616	23836
843.752	23543
843.889	23665
844.025	23893
844.162	23767
844.298	23707
844.435	23596
844.571	23573
844.708	23608
844.844	23817
844.98	23767
845.117	23714
845.253	23619
845.389	23512
845.525	23463
845.661	23444
845.798	23372
845.934	23368
846.07	23330
846.206	23391
846.342	23395
846.478	23356
846.614	23147
846.75	23064
846.886	23003
847.022	23098
847.158	23056
847.294	23109
847.429	23075
847.565	23140
847.701	23303
847.837	22885
847.972	22801
848.108	23029
848.244	22908
848.379	22835
848.515	22717
848.65	22592
848.786	22683
848.921	22816
849.057	22694
849.192	22687
849.328	22706
849.463	22611
849.598	22573
849.734	22634
849.869	22455
850.004	22455
850.14	22371
850.275	22527
850.41	22249
850.545	22481
850.68	22424
850.815	22588
850.95	22462
851.085	22596
851.22	22538
851.355	22546
851.49	22504
851.625	22405
851.76	22405
851.895	22352
852.03	22398
852.165	22356
852.299	22493
852.434	22592
852.569	22489
852.703	22344
852.838	22653
852.973	22596
853.107	22626
853.242	22344
853.376	22333
853.511	22169
853.645	22147
853.78	22329
853.914	22249
854.048	22219
854.183	22173
854.317	22249
854.451	22352
854.585	22147
854.72	22257
854.854	22413
854.988	22093
855.122	22223
855.256	22169
855.39	22276
855.524	22310
855.658	22318
855.792	22246
855.926	22105
856.06	22348
856.194	22405
856.327	22268
856.461	22246
856.595	22226
856.729	22109
856.862	22466
856.996	22341
857.13	22192
857.263	22375
857.397	22333
857.53	22291
857.664	22318
857.797	22375
857.931	22303
858.064	22367
858.197	22325
858.331	22200
858.464	22158
858.597	22287
858.731	22223
858.864	22177
858.997	22272
859.13	22249
859.263	22276
859.396	22367
859.529	22124
859.662	22284
859.795	22192
859.928	22272
860.061	22462
860.194	22428
860.327	22265
860.46	22402
860.592	22352
860.725	22417
860.858	22287
860.99	22276
861.123	22147
861.256	22291
861.388	22147
861.521	22972
861.653	22131
861.786	21998
861.918	22131
862.05	22036
862.183	22059
862.315	22280
862.447	22196
862.58	22139
862.712	21960
862.844	21975
862.976	22051
863.108	22150
863.24	22409
863.372	21922
863.504	21899
863.636	21979
863.768	21987
863.9	22010
864.032	21907
864.164	21968
864.296	21930
864.428	21994
864.559	22181
864.691	22112
864.823	22074
864.954	21941
865.086	21884
865.217	21903
865.349	21766
865.48	21785
865.612	21850
865.743	21983
865.875	21934
866.006	21747
866.137	21793
866.269	21774
866.4	21797
866.531	21789
866.662	21656
866.793	21736
866.924	21656
867.055	21755
867.186	21842
867.317	21717
867.448	21652
867.579	21720
867.71	21667
867.841	21660
867.972	21842
868.103	21781
868.233	21648
868.364	21759
868.495	21945
868.625	21926
868.756	22143
868.886	21876
869.017	21934
869.147	22040
869.278	22120
869.408	21983
869.539	22029
869.669	22150
869.799	22093
869.929	22109
870.06	22173
870.19	22379
870.32	22185
870.45	22424
870.58	22489
870.71	22493
870.84	22455
870.97	22291
871.1	22382
871.23	22577
871.36	22672
871.489	22599
871.619	22603
871.749	22577
871.879	22523
872.008	22736
872.138	22462
872.267	22550
872.397	22584
872.526	22428
872.656	22527
872.785	22493
872.915	22649
873.044	22675
873.173	22675
873.303	22725
873.432	22717
873.561	22778
873.69	22713
873.819	22675
873.948	22679
874.077	22607
874.206	22447
874.335	22706
874.464	22698
874.593	22782
874.722	22759
874.851	22896
874.979	22949
875.108	22858
875.237	22713
875.365	22771
875.494	22763
875.623	22904
875.751	22858
875.88	22900
876.008	22843
876.136	23014
876.265	23193
876.393	23398
876.521	23315
876.65	23258
876.778	23307
876.906	23254
877.034	23113
877.162	23258
877.29	23140
877.418	23239
877.546	23170
877.674	23220
877.802	23258
877.93	23178
878.058	23159
878.185	23140
878.313	23109
878.441	23124
878.568	23075
878.696	23041
878.824	23174
878.951	23239
879.079	23387
879.206	23547
879.333	23433
879.461	23315
879.588	23231
879.715	23303
879.842	23566
879.97	23315
880.097	22976
880.224	23086
880.351	23147
880.478	23010
880.605	23041
880.732	22976
880.859	23235
880.986	23086
881.112	23014
881.239	22946
881.366	22767
881.493	22672
881.619	22577
881.746	22637
881.872	22706
881.999	22630
882.125	22474
882.252	22569
882.378	22485
882.505	22641
882.631	22402
882.757	22398
882.883	22276
883.01	22310
883.136	22188
883.262	22120
883.388	22131
883.514	22352
883.64	22333
883.766	22185
883.892	22029
884.018	21926
884.143	22150
884.269	22337
884.395	21861
884.52	21835
884.646	21899
884.772	21785
884.897	21743
885.023	21964
885.148	22021
885.274	22017
885.399	22021
885.524	21895
885.65	21968
885.775	21846
885.9	21865
886.025	21945
886.15	21945
886.275	21922
886.4	21842
886.525	21975
886.65	21854
886.775	21755
886.9	21979
887.025	22067
887.149	21804
887.274	21739
887.399	21606
887.523	21610
887.648	21603
887.773	21553
887.897	21728
888.021	21709
888.146	21519
888.27	21857
888.395	21705
888.519	21694
888.643	21599
888.767	21781
888.891	21644
889.015	21511
889.139	21523
889.263	21526
889.387	21473
889.511	21728
889.635	21477
889.759	21492
889.883	21416
890.006	21488
890.13	21523
890.254	21405
890.377	21405
890.501	21329
890.624	21104
890.748	21207
890.871	21085
890.995	21077
891.118	20910
891.241	21001
891.364	20990
891.488	21119
891.611	20944
891.734	20963
891.857	21013
891.98	20948
892.103	20975
892.226	20982
892.349	20895
892.471	20762
892.594	20990
892.717	21005
892.839	20773
892.962	20910
893.085	20986
893.207	20864
893.33	20781
893.452	20762
893.575	20979
893.697	20929
893.819	21058
893.941	21085
894.064	20925
894.186	20769
894.308	20819
894.43	20941
894.552	20952
894.674	21005
894.796	20842
894.918	20743
895.04	20781
895.161	20914
895.283	20956
895.405	20724
895.526	20830
895.648	20765
895.769	20857
895.891	20910
896.012	21039
896.134	20845
896.255	20910
896.376	20944
896.498	20815
896.619	20834
896.74	20830
896.861	20853
896.982	21272
897.103	21150
897.224	21142
897.345	21142
897.466	21085
897.587	21074
897.708	21192
897.828	21199
897.949	21032
898.07	20853
898.19	20998
898.311	21233
898.431	21039
898.552	21017
898.672	21017
898.792	21028
898.913	21017
899.033	20845
899.153	20872
899.273	20826
899.393	20777
899.513	20693
899.633	20701
899.753	20910
899.873	20663
899.993	20857
900.113	20777
900.232	20743
900.352	20834
900.472	20613
900.591	20526
900.711	20579
900.83	20495
900.95	20708
901.069	20651
901.189	20511
901.308	20180
901.427	19959
901.546	20161
901.665	20088
901.784	20161
901.904	20020
902.023	19982
902.141	19738
902.26	19731
902.379	19852
902.498	19635
902.617	19552
902.735	19723
902.854	19647
902.973	19518
903.091	19316
903.21	19400
903.328	19358
903.446	19160
903.565	19152
903.683	19156
903.801	18878
903.919	19023
904.038	19072
904.156	18897
904.274	18962
904.392	18947
904.51	18951
904.627	18833
904.745	18935
904.863	18916
904.981	18719
905.098	18555
905.216	18498
905.334	18574
905.451	18536
905.569	18608
905.686	18483
905.803	18490
905.921	18338
906.038	18376
906.155	18262
906.272	18110
906.389	18163
906.506	18106
906.623	18076
906.74	18072
906.857	17885
906.974	17897
907.091	18079
907.208	18277
907.324	18171
907.441	17923
907.557	17843
907.674	17870
907.79	17672
907.907	17779
908.023	17855
908.139	17783
908.256	17745
908.372	17646
908.488	17707
908.604	17532
908.72	17440
908.836	17520
908.952	17444
909.068	17383
909.184	17676
909.3	17440
909.415	17463
909.531	17474
909.647	17185
909.762	17197
909.878	17292
909.993	17178
910.108	17212
910.224	17064
910.339	17155
910.454	17128
910.57	16953
910.685	17003
910.8	17189
910.915	17075
911.03	16942
911.145	16984
911.259	16790
911.374	16816
911.489	16729
911.604	16504
911.718	16588
911.833	16478
911.947	16455
912.062	16386
912.176	16577
912.291	16478
912.405	16527
912.519	16752
912.633	16736
912.748	16512
912.862	16478
912.976	16405
913.09	16242
913.204	16329
913.318	16287
913.431	16325
913.545	16344
913.659	16447
913.772	16261
913.886	16192
914	16048
914.113	16238
914.226	16223
914.34	16188
914.453	16013
914.566	16124
914.68	15994
914.793	16025
914.906	15682
915.019	15789
915.132	15591
915.245	15618
915.358	15743
915.47	15641
915.583	15606
915.696	15762
915.809	15865
915.921	15781
916.034	15656
916.146	15572
916.259	15549
916.371	15717
916.483	15641
916.595	15603
916.708	15591
916.82	15614
916.932	15431
917.044	15496
917.156	15458
917.268	15287
917.38	15275
917.491	15310
917.603	15370
917.715	15344
917.826	15530
917.938	15275
918.049	15127
918.161	15192
918.272	15363
918.384	15359
918.495	15325
918.606	15131
918.717	15074
918.828	15009
918.939	15169
919.05	15028
919.161	15051
919.272	14880
919.383	14864
919.494	15116
919.604	15260
919.715	15100
919.826	15036
919.936	14967
920.047	14994
920.157	15074
920.267	15226
920.378	14929
920.488	15039
920.598	15188
920.708	15325
920.818	15176
920.928	15264
921.038	15249
921.148	15230
921.258	14952
921.368	15043
921.477	14785
921.587	14765
921.697	14693
921.806	14762
921.916	14606
922.025	14518
922.134	14438
922.244	14377
922.353	14377
922.462	14301
922.571	14225
922.68	14081
922.789	14039
922.898	14024
923.007	13955
923.116	14088
923.224	13974
923.333	14035
923.442	13875
923.55	13890
923.659	13864
923.767	13852
923.876	13830
923.984	13921
924.092	13818
924.201	13833
924.309	13814
924.417	13753
924.525	13689
924.633	13670
924.741	14419
924.849	13495
924.956	13628
925.064	13449
925.172	13369
925.279	13396
925.387	13480
925.494	13499
925.602	13571
925.709	13483
925.816	13373
925.924	13369
926.031	13457
926.138	13373
926.245	13282
926.352	13320
926.459	13460
926.566	13365
926.673	13228
926.779	13084
926.886	13168
926.993	13000
927.099	12958
927.206	12886
927.312	12958
927.419	13053
927.525	12954
927.631	12973
927.737	12920
927.843	12829
927.95	12776
928.056	12776
928.162	12764
928.267	12776
928.373	13400
928.479	12875
928.585	12700
928.69	12722
928.796	12783
928.901	12639
929.007	12521
929.112	12654
929.218	12642
929.323	12555
929.428	12506
929.533	12658
929.638	12445
929.743	12414
929.848	12536
929.953	12479
930.058	12311
930.163	12117
930.267	12159
930.372	12388
930.477	12133
930.581	12403
930.685	12201
930.79	12057
930.894	12144
930.998	11950
931.103	12148
931.207	11809
931.311	11722
931.415	11691
931.519	11429
931.623	11345
