Data from test_V78500241_3419.txt Node
Date: Fri Mar 25 16:05:29 CST 2022
User: usil
Spectrometer: V785-0024
Trigger mode: 0
Integration Time (sec): 4.000000E-1
Scans to average: 1
Nonlinearity correction enabled: false
Boxcar width: 0
Storing dark spectrum: false
XAxis mode: Wavelengths
Number of Pixels in Spectrum: 1024
>>>>>Begin Spectral Data<<<<<
801.071	28763
801.214	28850
801.356	28622
801.499	28474
801.641	28447
801.783	28542
801.926	28500
802.068	28337
802.211	28428
802.353	28371
802.496	28166
802.638	28238
802.78	28230
802.923	28139
803.065	28063
803.208	28150
803.35	28158
803.492	28344
803.635	28371
803.777	28192
803.919	28432
804.061	28713
804.204	28310
804.346	28329
804.488	28268
804.63	28363
804.773	28371
804.915	28519
805.057	28459
805.199	28447
805.341	28478
805.483	28554
805.626	28497
805.768	28459
805.91	28489
806.052	28584
806.194	28474
806.336	28611
806.478	28538
806.62	28504
806.762	28736
806.904	28854
807.046	28999
807.188	29064
807.33	28999
807.472	29071
807.614	28881
807.756	29060
807.898	28987
808.04	28767
808.182	28801
808.324	28923
808.465	28923
808.607	29052
808.749	29303
808.891	29398
809.033	29444
809.174	29398
809.316	29315
809.458	29330
809.6	29151
809.741	29364
809.883	29318
810.025	29482
810.166	29539
810.308	29729
810.45	29558
810.591	29299
810.733	29364
810.875	29265
811.016	29162
811.158	29159
811.299	29307
811.441	29353
811.582	29497
811.724	29375
811.865	29231
812.007	29337
812.148	29353
812.29	29311
812.431	29471
812.573	29589
812.714	29771
812.855	29821
812.997	29870
813.138	30011
813.279	30053
813.421	29847
813.562	29885
813.703	29661
813.845	29535
813.986	29280
814.127	29151
814.268	29025
814.41	29075
814.551	28991
814.692	28957
814.833	28953
814.974	28976
815.115	28968
815.256	28972
815.397	28904
815.539	28774
815.68	28797
815.821	28805
815.962	28854
816.103	28919
816.244	28683
816.385	28649
816.526	28489
816.666	28409
816.807	28341
816.948	28401
817.089	28504
817.23	28405
817.371	28268
817.512	28413
817.653	28276
817.793	28200
817.934	28356
818.075	28276
818.216	28405
818.356	28223
818.497	28139
818.638	27964
818.778	28040
818.919	28078
819.06	28188
819.2	28192
819.341	28291
819.481	28329
819.622	28531
819.762	28668
819.903	28637
820.043	28603
820.184	28523
820.324	28489
820.465	28489
820.605	28546
820.746	28459
820.886	28405
821.026	28322
821.167	28299
821.307	28443
821.447	28512
821.588	28173
821.728	28287
821.868	27827
822.008	27873
822.149	27816
822.289	27850
822.429	27591
822.569	27603
822.709	27469
822.849	27321
822.99	27306
823.13	27359
823.27	27302
823.41	27192
823.55	26986
823.69	27138
823.83	27211
823.97	26998
824.11	26956
824.25	26868
824.389	26971
824.529	27081
824.669	27017
824.809	27047
824.949	27001
825.089	27112
825.228	26944
825.368	26883
825.508	26792
825.648	27017
825.787	26982
825.927	26921
826.067	26853
826.206	26914
826.346	26979
826.485	26895
826.625	26800
826.765	26918
826.904	26834
827.044	26667
827.183	26689
827.323	26533
827.462	26686
827.601	26674
827.741	26404
827.88	26735
828.02	26461
828.159	26598
828.298	26693
828.437	26701
828.577	26408
828.716	26625
828.855	26450
828.994	26248
829.134	26016
829.273	26393
829.412	26294
829.551	26122
829.69	26225
829.829	26248
829.968	26427
830.107	26309
830.246	26366
830.385	26126
830.524	26202
830.663	26081
830.802	26077
830.941	25890
831.08	25795
831.219	25887
831.357	25906
831.496	26005
831.635	25902
831.774	25822
831.913	25814
832.051	25597
832.19	25616
832.329	25639
832.467	25609
832.606	25495
832.744	25400
832.883	25537
833.022	25544
833.16	25605
833.299	25590
833.437	25548
833.576	25677
833.714	25609
833.852	25578
833.991	25662
834.129	25788
834.267	25738
834.406	25655
834.544	25582
834.682	25670
834.821	25605
834.959	25780
835.097	25582
835.235	25651
835.373	25632
835.511	25651
835.65	25449
835.788	25502
835.926	25301
836.064	25343
836.202	25148
836.34	25388
836.478	25354
836.615	25388
836.753	25468
836.891	25502
837.029	25381
837.167	25407
837.305	25407
837.443	25339
837.58	25304
837.718	25331
837.856	25312
837.993	25133
838.131	25343
838.269	25076
838.406	25175
838.544	25099
838.681	25053
838.819	24909
838.956	24825
839.094	24738
839.231	24806
839.369	24897
839.506	25042
839.643	24848
839.781	24696
839.918	24604
840.055	24726
840.193	24639
840.33	24658
840.467	24726
840.604	24696
840.742	24848
840.879	24555
841.016	24563
841.153	24445
841.29	24593
841.427	24646
841.564	24741
841.701	24673
841.838	24521
841.975	24471
842.112	24547
842.249	24388
842.385	24391
842.522	24631
842.659	24460
842.796	24403
842.933	24429
843.069	24330
843.206	24380
843.343	24433
843.479	24391
843.616	24327
843.752	24148
843.889	24144
844.025	24270
844.162	24220
844.298	24197
844.435	24125
844.571	24133
844.708	24110
844.844	24258
844.98	24319
845.117	24254
845.253	24098
845.389	23958
845.525	24057
845.661	23969
845.798	23931
845.934	24114
846.07	23950
846.206	24038
846.342	24034
846.478	23927
846.614	23764
846.75	23482
846.886	23695
847.022	23657
847.158	23714
847.294	23676
847.429	23642
847.565	23642
847.701	23950
847.837	23337
847.972	23216
848.108	23474
848.244	23433
848.379	23383
848.515	23284
848.65	23235
848.786	23231
848.921	23212
849.057	23398
849.192	23345
849.328	23155
849.463	23204
849.598	23128
849.734	23075
849.869	23109
850.004	22976
850.14	23044
850.275	23018
850.41	22900
850.545	22915
850.68	22930
850.815	22972
850.95	23052
851.085	23178
851.22	23155
851.355	23052
851.49	22889
851.625	23098
851.76	22919
851.895	22866
852.03	22904
852.165	22949
852.299	22980
852.434	22961
852.569	23003
852.703	22942
852.838	23022
852.973	23010
853.107	23044
853.242	22889
853.376	22854
853.511	22630
853.645	22752
853.78	22908
853.914	22816
854.048	22839
854.183	22797
854.317	22881
854.451	23037
854.585	22904
854.72	22778
854.854	22904
854.988	22622
855.122	22831
855.256	22733
855.39	22828
855.524	22831
855.658	22847
855.792	22816
855.926	22694
856.06	22771
856.194	22889
856.327	22713
856.461	22793
856.595	22656
856.729	22683
856.862	22934
856.996	22892
857.13	22805
857.263	22934
857.397	22896
857.53	22740
857.664	22748
857.797	22809
857.931	23044
858.064	22816
858.197	22866
858.331	22706
858.464	22755
858.597	22683
858.731	22869
858.864	22725
858.997	22630
859.13	22805
859.263	22850
859.396	22991
859.529	22771
859.662	22694
859.795	22698
859.928	22892
860.061	22911
860.194	23014
860.327	22858
860.46	22752
860.592	22858
860.725	22911
860.858	22957
860.99	22744
861.123	22717
861.256	22771
861.388	22733
861.521	23482
861.653	22634
861.786	22611
861.918	22611
862.05	22729
862.183	22622
862.315	22790
862.447	22691
862.58	22706
862.712	22512
862.844	22379
862.976	22607
863.108	22535
863.24	22869
863.372	22436
863.504	22554
863.636	22443
863.768	22538
863.9	22599
864.032	22474
864.164	22466
864.296	22413
864.428	22596
864.559	22656
864.691	22615
864.823	22546
864.954	22409
865.086	22447
865.217	22451
865.349	22356
865.48	22379
865.612	22234
865.743	22447
865.875	22402
866.006	22379
866.137	22306
866.269	22299
866.4	22402
866.531	22306
866.662	22303
866.793	22268
866.924	22291
867.055	22329
867.186	22249
867.317	22219
867.448	22284
867.579	22249
867.71	22150
867.841	22070
867.972	22268
868.103	22314
868.233	22223
868.364	22344
868.495	22322
868.625	22462
868.756	22565
868.886	22466
869.017	22489
869.147	22668
869.278	22660
869.408	22641
869.539	22512
869.669	22599
869.799	22626
869.929	22618
870.06	22577
870.19	22869
870.32	22744
870.45	22942
870.58	22919
870.71	22919
870.84	23060
870.97	22972
871.1	22896
871.23	23109
871.36	23056
871.489	23178
871.619	23083
871.749	23048
871.879	23200
872.008	23239
872.138	23269
872.267	23105
872.397	22991
872.526	22915
872.656	22908
872.785	22908
872.915	23159
873.044	23204
873.173	23197
873.303	23052
873.432	23136
873.561	23235
873.69	23178
873.819	23105
873.948	23269
874.077	23151
874.206	23227
874.335	23227
874.464	23269
874.593	23387
874.722	23433
874.851	23299
874.979	23299
875.108	23239
875.237	23322
875.365	23322
875.494	23299
875.623	23417
875.751	23433
875.88	23395
876.008	23490
876.136	23478
876.265	23695
876.393	23813
876.521	23779
876.65	23745
876.778	23707
876.906	23619
877.034	23676
877.162	23783
877.29	23512
877.418	23756
877.546	23695
877.674	23714
877.802	23718
877.93	23729
878.058	23676
878.185	23547
878.313	23718
878.441	23665
878.568	23478
878.696	23524
878.824	23615
878.951	23714
879.079	23855
879.206	23809
879.333	23756
879.461	23737
879.588	23851
879.715	23851
879.842	23961
879.97	23855
880.097	23539
880.224	23596
880.351	23535
880.478	23535
880.605	23414
880.732	23497
880.859	23741
880.986	23554
881.112	23722
881.239	23341
881.366	23170
881.493	23094
881.619	23052
881.746	23136
881.872	23079
881.999	23185
882.125	22984
882.252	23140
882.378	22995
882.505	23075
882.631	22847
882.757	22793
882.883	22885
883.01	22835
883.136	22736
883.262	22687
883.388	22546
883.514	22850
883.64	22831
883.766	22607
883.892	22462
884.018	22413
884.143	22668
884.269	22752
884.395	22436
884.52	22352
884.646	22417
884.772	22333
884.897	22402
885.023	22424
885.148	22417
885.274	22447
885.399	22519
885.524	22261
885.65	22394
885.775	22459
885.9	22325
886.025	22512
886.15	22580
886.275	22230
886.4	22337
886.525	22268
886.65	22287
886.775	22280
886.9	22382
887.025	22542
887.149	22246
887.274	22162
887.399	22097
887.523	22029
887.648	22044
887.773	22078
887.897	22185
888.021	22257
888.146	22040
888.27	22192
888.395	22226
888.519	22173
888.643	22192
888.767	22021
888.891	22010
889.015	22006
889.139	21876
889.263	21857
889.387	21934
889.511	22101
889.635	22093
889.759	21888
889.883	21953
890.006	21876
890.13	21979
890.254	21899
890.377	21892
890.501	21724
890.624	21561
890.748	21781
890.871	21583
890.995	21443
891.118	21401
891.241	21454
891.364	21466
891.488	21614
891.611	21458
891.734	21583
891.857	21583
891.98	21599
892.103	21526
892.226	21431
892.349	21439
892.471	21214
892.594	21351
892.717	21458
892.839	21332
892.962	21313
893.085	21355
893.207	21408
893.33	21214
893.452	21294
893.575	21336
893.697	21260
893.819	21496
893.941	21542
894.064	21523
894.186	21203
894.308	21173
894.43	21481
894.552	21344
894.674	21283
894.796	21226
894.918	21310
895.04	21222
895.161	21458
895.283	21389
895.405	21321
895.526	21298
895.648	21192
895.769	21386
895.891	21233
896.012	21344
896.134	21378
896.255	21389
896.376	21218
896.498	21351
896.619	21412
896.74	21367
896.861	21370
896.982	21656
897.103	21732
897.224	21610
897.345	21473
897.466	21431
897.587	21603
897.708	21568
897.828	21542
897.949	21492
898.07	21367
898.19	21420
898.311	21553
898.431	21473
898.552	21431
898.672	21587
898.792	21458
898.913	21492
899.033	21382
899.153	21363
899.273	21161
899.393	21306
899.513	21188
899.633	21279
899.753	21275
899.873	21218
899.993	21233
900.113	21260
900.232	21165
900.352	21116
900.472	21062
900.591	20990
900.711	20998
900.83	20937
900.95	21119
901.069	21036
901.189	20906
901.308	20602
901.427	20537
901.546	20602
901.665	20526
901.784	20602
901.904	20461
902.023	20309
902.141	20145
902.26	19989
902.379	20225
902.498	20084
902.617	20073
902.735	20073
902.854	20027
902.973	20084
903.091	19750
903.21	19712
903.328	19772
903.446	19632
903.565	19521
903.683	19533
903.801	19430
903.919	19441
904.038	19476
904.156	19358
904.274	19392
904.392	19339
904.51	19263
904.627	19259
904.745	19343
904.863	19324
904.981	18985
905.098	18954
905.216	19076
905.334	19012
905.451	18939
905.569	18985
905.686	18916
905.803	18913
905.921	18715
906.038	18867
906.155	18783
906.272	18593
906.389	18669
906.506	18433
906.623	18536
906.74	18498
906.857	18441
906.974	18414
907.091	18467
907.208	18642
907.324	18506
907.441	18247
907.557	18247
907.674	18239
907.79	18121
907.907	18178
908.023	18220
908.139	18148
908.256	18133
908.372	18174
908.488	18102
908.604	17980
908.72	17923
908.836	17904
908.952	17836
909.068	17901
909.184	17931
909.3	17942
909.415	17882
909.531	17794
909.647	17646
909.762	17505
909.878	17490
909.993	17668
910.108	17566
910.224	17596
910.339	17581
910.454	17360
910.57	17414
910.685	17334
910.8	17611
910.915	17463
911.03	17421
911.145	17128
911.259	17220
911.374	17162
911.489	17140
911.604	17060
911.718	16976
911.833	16999
911.947	16771
912.062	16694
912.176	16908
912.291	16915
912.405	16930
912.519	17132
912.633	17060
912.748	16938
912.862	16877
912.976	16729
913.09	16596
913.204	16660
913.318	16637
913.431	16782
913.545	16793
913.659	16801
913.772	16675
913.886	16436
914	16542
914.113	16622
914.226	16565
914.34	16535
914.453	16375
914.566	16489
914.68	16352
914.793	16242
914.906	16169
915.019	16013
915.132	16017
915.245	16021
915.358	16120
915.47	16074
915.583	16002
915.696	16036
915.809	16169
915.921	16169
916.034	16025
916.146	15960
916.259	16010
916.371	16093
916.483	15937
916.595	15835
916.708	15960
916.82	15869
916.932	15873
917.044	15835
917.156	15819
917.268	15671
917.38	15667
917.491	15652
917.603	15698
917.715	15759
917.826	15778
917.938	15568
918.049	15545
918.161	15644
918.272	15709
918.384	15724
918.495	15603
918.606	15412
918.717	15336
918.828	15393
918.939	15454
919.05	15298
919.161	15439
919.272	15241
919.383	15306
919.494	15435
919.604	15519
919.715	15374
919.826	15351
919.936	15348
920.047	15317
920.157	15447
920.267	15511
920.378	15340
920.488	15294
920.598	15515
920.708	15622
920.818	15424
920.928	15492
921.038	15614
921.148	15561
921.258	15359
921.368	15264
921.477	15112
921.587	15131
921.697	14975
921.806	15108
921.916	14887
922.025	14819
922.134	14800
922.244	14670
922.353	14811
922.462	14610
922.571	14495
922.68	14385
922.789	14320
922.898	14438
923.007	14370
923.116	14374
923.224	14381
923.333	14282
923.442	14233
923.55	14168
923.659	14115
923.767	14229
923.876	14195
923.984	14218
924.092	14111
924.201	14069
924.309	14039
924.417	14084
924.525	13959
924.633	14077
924.741	14899
924.849	13845
924.956	13928
925.064	13746
925.172	13693
925.279	13704
925.387	13753
925.494	13655
925.602	13833
925.709	13849
925.816	13677
925.924	13723
926.031	13788
926.138	13651
926.245	13609
926.352	13616
926.459	13719
926.566	13791
926.673	13521
926.779	13388
926.886	13411
926.993	13365
927.099	13297
927.206	13209
927.312	13141
927.419	13324
927.525	13198
927.631	13301
927.737	13129
927.843	13072
927.95	13072
928.056	13053
928.162	13099
928.267	13137
928.373	13719
928.479	13133
928.585	12909
928.69	13076
928.796	13042
928.901	12916
929.007	12913
929.112	12909
929.218	12932
929.323	12901
929.428	12703
929.533	12996
929.638	12711
929.743	12662
929.848	12768
929.953	12726
930.058	12551
930.163	12369
930.267	12490
930.372	12620
930.477	12327
930.581	12688
930.685	12448
930.79	12350
930.894	12376
930.998	12311
931.103	12464
931.207	12095
931.311	12003
931.415	11866
931.519	11767
931.623	11627
