Data from test_V78500241_2794.txt Node
Date: Fri Mar 25 16:01:09 CST 2022
User: usil
Spectrometer: V785-0024
Trigger mode: 0
Integration Time (sec): 4.000000E-1
Scans to average: 1
Nonlinearity correction enabled: false
Boxcar width: 0
Storing dark spectrum: false
XAxis mode: Wavelengths
Number of Pixels in Spectrum: 1024
>>>>>Begin Spectral Data<<<<<
801.071	29216
801.214	29250
801.356	28843
801.499	28858
801.641	28835
801.783	28698
801.926	28896
802.068	28858
802.211	28649
802.353	28717
802.496	28470
802.638	28531
802.78	28504
802.923	28310
803.065	28348
803.208	28356
803.35	28577
803.492	28417
803.635	28683
803.777	28641
803.919	28683
804.061	28957
804.204	28740
804.346	28656
804.488	28626
804.63	28706
804.773	28580
804.915	28672
805.057	28919
805.199	28782
805.341	28835
805.483	28934
805.626	28866
805.768	28911
805.91	28885
806.052	28915
806.194	28809
806.336	28972
806.478	29060
806.62	29014
806.762	29079
806.904	29265
807.046	29265
807.188	29353
807.33	29356
807.472	29372
807.614	29235
807.756	29315
807.898	29303
808.04	29117
808.182	29254
808.324	29353
808.465	29334
808.607	29474
808.749	29718
808.891	29764
809.033	29646
809.174	29710
809.316	29547
809.458	29642
809.6	29623
809.741	29493
809.883	29836
810.025	29916
810.166	29961
810.308	29984
810.45	29832
810.591	29824
810.733	29767
810.875	29687
811.016	29581
811.158	29497
811.299	29874
811.441	29817
811.582	29691
811.724	29619
811.865	29596
812.007	29691
812.148	29600
812.29	29687
812.431	29779
812.573	29999
812.714	30045
812.855	30114
812.997	30319
813.138	30452
813.279	30315
813.421	30136
813.562	30144
813.703	29988
813.845	29961
813.986	29554
814.127	29562
814.268	29482
814.41	29497
814.551	29417
814.692	29318
814.833	29322
814.974	29288
815.115	29528
815.256	29356
815.397	29231
815.539	29151
815.68	29227
815.821	29239
815.962	29280
816.103	29204
816.244	29018
816.385	28938
816.526	28942
816.666	28763
816.807	28637
816.948	28790
817.089	28873
817.23	28645
817.371	28523
817.512	28569
817.653	28611
817.793	28721
817.934	28664
818.075	28740
818.216	28630
818.356	28656
818.497	28668
818.638	28459
818.778	28470
818.919	28459
819.06	28584
819.2	28577
819.341	28694
819.481	28771
819.622	28934
819.762	29151
819.903	28987
820.043	28824
820.184	28774
820.324	28923
820.465	28908
820.605	28839
820.746	28778
820.886	28618
821.026	28782
821.167	28729
821.307	28942
821.447	28725
821.588	28542
821.728	28538
821.868	28481
822.008	28204
822.149	28055
822.289	28211
822.429	27979
822.569	27865
822.709	28017
822.849	27652
822.99	27701
823.13	27819
823.27	27694
823.41	27507
823.55	27553
823.69	27599
823.83	27622
823.97	27450
824.11	27450
824.25	27378
824.389	27386
824.529	27408
824.669	27412
824.809	27553
824.949	27454
825.089	27515
825.228	27344
825.368	27157
825.508	27173
825.648	27237
825.787	27279
825.927	27169
826.067	27325
826.206	27252
826.346	27272
826.485	27291
826.625	27313
826.765	27363
826.904	27306
827.044	27009
827.183	27028
827.323	26952
827.462	27055
827.601	27112
827.741	27043
827.88	26994
828.02	26868
828.159	26868
828.298	27070
828.437	27028
828.577	27017
828.716	27005
828.855	26777
828.994	26708
829.134	26606
829.273	26701
829.412	26739
829.551	26583
829.69	26594
829.829	26712
829.968	26651
830.107	26834
830.246	26663
830.385	26659
830.524	26507
830.663	26518
830.802	26495
830.941	26119
831.08	26115
831.219	26377
831.357	26431
831.496	26419
831.635	26119
831.774	26244
831.913	26168
832.051	26062
832.19	26157
832.329	26008
832.467	25795
832.606	25879
832.744	25928
832.883	26039
833.022	25849
833.16	25894
833.299	26001
833.437	25875
833.576	26054
833.714	26035
833.852	25989
833.991	25966
834.129	26024
834.267	26065
834.406	26100
834.544	26073
834.682	25982
834.821	26035
834.959	26138
835.097	25868
835.235	25963
835.373	25845
835.511	25940
835.65	25795
835.788	25795
835.926	25628
836.064	25746
836.202	25582
836.34	25746
836.478	25986
836.615	25776
836.753	25841
836.891	25894
837.029	25940
837.167	25715
837.305	25651
837.443	25651
837.58	25624
837.718	25647
837.856	25582
837.993	25746
838.131	25613
838.269	25426
838.406	25514
838.544	25533
838.681	25293
838.819	25278
838.956	25137
839.094	25202
839.231	25202
839.369	25331
839.506	25396
839.643	25297
839.781	25221
839.918	25080
840.055	25148
840.193	25084
840.33	24932
840.467	24920
840.604	25110
840.742	25209
840.879	24977
841.016	25031
841.153	24920
841.29	25126
841.427	25031
841.564	24947
841.701	24886
841.838	24935
841.975	24928
842.112	24928
842.249	24844
842.385	24768
842.522	24913
842.659	24901
842.796	24745
842.933	24814
843.069	24681
843.206	24802
843.343	24829
843.479	24749
843.616	24753
843.752	24654
843.889	24566
844.025	24631
844.162	24563
844.298	24734
844.435	24456
844.571	24540
844.708	24566
844.844	24650
844.98	24783
845.117	24681
845.253	24544
845.389	24467
845.525	24483
845.661	24467
845.798	24243
845.934	24258
846.07	24304
846.206	24224
846.342	24403
846.478	24152
846.614	23965
846.75	23866
846.886	24041
847.022	23920
847.158	24095
847.294	23973
847.429	23889
847.565	23942
847.701	24072
847.837	23786
847.972	23764
848.108	23680
848.244	23783
848.379	23558
848.515	23661
848.65	23558
848.786	23611
848.921	23551
849.057	23638
849.192	23710
849.328	23551
849.463	23627
849.598	23630
849.734	23516
849.869	23528
850.004	23330
850.14	23406
850.275	23467
850.41	23360
850.545	23395
850.68	23159
850.815	23326
850.95	23326
851.085	23478
851.22	23455
851.355	23387
851.49	23220
851.625	23376
851.76	23345
851.895	23326
852.03	23140
852.165	23417
852.299	23311
852.434	23543
852.569	23288
852.703	23417
852.838	23360
852.973	23482
853.107	23589
853.242	23288
853.376	23311
853.511	23044
853.645	23083
853.78	23311
853.914	23204
854.048	23109
854.183	23166
854.317	23216
854.451	23376
854.585	23200
854.72	23033
854.854	23296
854.988	23181
855.122	23090
855.256	23052
855.39	23094
855.524	23189
855.658	23166
855.792	23258
855.926	23155
856.06	23242
856.194	23254
856.327	23109
856.461	23128
856.595	23018
856.729	23022
856.862	23307
856.996	23216
857.13	23227
857.263	23166
857.397	23204
857.53	23121
857.664	23208
857.797	23239
857.931	23261
858.064	23170
858.197	23269
858.331	23159
858.464	23090
858.597	23060
858.731	23083
858.864	23170
858.997	22911
859.13	23197
859.263	23140
859.396	23254
859.529	23052
859.662	23117
859.795	23113
859.928	23052
860.061	23280
860.194	23349
860.327	23143
860.46	23185
860.592	23311
860.725	23356
860.858	23307
860.99	23311
861.123	23098
861.256	23105
861.388	23246
861.521	23737
861.653	22987
861.786	22847
861.918	22980
862.05	23083
862.183	23003
862.315	23079
862.447	23113
862.58	22999
862.712	22797
862.844	22904
862.976	23025
863.108	22854
863.24	23425
863.372	22873
863.504	22850
863.636	22748
863.768	22828
863.9	22850
864.032	22748
864.164	22915
864.296	22908
864.428	23014
864.559	22782
864.691	23003
864.823	22778
864.954	22828
865.086	22668
865.217	22774
865.349	22691
865.48	22626
865.612	22805
865.743	22915
865.875	22687
866.006	22641
866.137	22656
866.269	22611
866.4	22706
866.531	22607
866.662	22584
866.793	22592
866.924	22828
867.055	22584
867.186	22607
867.317	22557
867.448	22626
867.579	22573
867.71	22519
867.841	22565
867.972	22615
868.103	22592
868.233	22626
868.364	22675
868.495	22721
868.625	22824
868.756	22934
868.886	22809
869.017	22904
869.147	22984
869.278	22961
869.408	22786
869.539	22991
869.669	23048
869.799	22892
869.929	22972
870.06	23033
870.19	23223
870.32	23159
870.45	23147
870.58	23292
870.71	23364
870.84	23406
870.97	23315
871.1	23296
871.23	23387
871.36	23436
871.489	23261
871.619	23414
871.749	23414
871.879	23573
872.008	23604
872.138	23497
872.267	23493
872.397	23440
872.526	23353
872.656	23288
872.785	23265
872.915	23467
873.044	23581
873.173	23589
873.303	23528
873.432	23501
873.561	23497
873.69	23512
873.819	23478
873.948	23570
874.077	23520
874.206	23455
874.335	23509
874.464	23558
874.593	23783
874.722	23619
874.851	23672
874.979	23745
875.108	23733
875.237	23653
875.365	23627
875.494	23722
875.623	23729
875.751	23718
875.88	23748
876.008	23832
876.136	23821
876.265	24060
876.393	24110
876.521	24155
876.65	24076
876.778	24159
876.906	24087
877.034	23961
877.162	24053
877.29	23977
877.418	24091
877.546	24018
877.674	23999
877.802	24095
877.93	23927
878.058	23946
878.185	23973
878.313	23935
878.441	24041
878.568	23935
878.696	24079
878.824	24022
878.951	24125
879.079	24117
879.206	24327
879.333	24327
879.461	24060
879.588	24155
879.715	24209
879.842	24361
879.97	24102
880.097	23984
880.224	23920
880.351	23885
880.478	23771
880.605	23748
880.732	23855
880.859	24041
880.986	23741
881.112	23878
881.239	23901
881.366	23653
881.493	23608
881.619	23452
881.746	23490
881.872	23467
881.999	23376
882.125	23356
882.252	23265
882.378	23326
882.505	23425
882.631	23299
882.757	23071
882.883	23246
883.01	23037
883.136	22980
883.262	22869
883.388	22968
883.514	23044
883.64	23067
883.766	22980
883.892	22911
884.018	22740
884.143	23014
884.269	23189
884.395	22809
884.52	22668
884.646	22710
884.772	22656
884.897	22504
885.023	22725
885.148	22820
885.274	22812
885.399	22748
885.524	22675
885.65	22786
885.775	22778
885.9	22675
886.025	22748
886.15	22820
886.275	22592
886.4	22603
886.525	22778
886.65	22599
886.775	22531
886.9	22691
887.025	22828
887.149	22630
887.274	22440
887.399	22436
887.523	22485
887.648	22352
887.773	22310
887.897	22455
888.021	22561
888.146	22360
888.27	22565
888.395	22478
888.519	22421
888.643	22470
888.767	22447
888.891	22382
889.015	22261
889.139	22310
889.263	22158
889.387	22268
889.511	22421
889.635	22261
889.759	22306
889.883	22181
890.006	22303
890.13	22287
890.254	22226
890.377	22147
890.501	21972
890.624	22105
890.748	21846
890.871	21759
890.995	21835
891.118	21759
891.241	21770
891.364	21823
891.488	21838
891.611	21755
891.734	21644
891.857	21751
891.98	21781
892.103	21846
892.226	21785
892.349	21793
892.471	21435
892.594	21671
892.717	21751
892.839	21606
892.962	21667
893.085	21671
893.207	21720
893.33	21496
893.452	21530
893.575	21675
893.697	21599
893.819	21751
893.941	21812
894.064	21857
894.186	21599
894.308	21595
894.43	21717
894.552	21873
894.674	21675
894.796	21458
894.918	21629
895.04	21671
895.161	21770
895.283	21656
895.405	21507
895.526	21660
895.648	21675
895.769	21603
895.891	21652
896.012	21686
896.134	21682
896.255	21618
896.376	21469
896.498	21583
896.619	21614
896.74	21603
896.861	21637
896.982	21956
897.103	21953
897.224	21823
897.345	21759
897.466	21774
897.587	21907
897.708	21884
897.828	21846
897.949	21759
898.07	21583
898.19	21842
898.311	21850
898.431	21667
898.552	21876
898.672	21987
898.792	21854
898.913	21812
899.033	21705
899.153	21485
899.273	21587
899.393	21511
899.513	21545
899.633	21583
899.753	21625
899.873	21454
899.993	21458
900.113	21454
900.232	21488
900.352	21428
900.472	21378
900.591	21283
900.711	21279
900.83	21203
900.95	21386
901.069	21355
901.189	21180
901.308	20933
901.427	20849
901.546	20914
901.665	20906
901.784	20876
901.904	20648
902.023	20625
902.141	20461
902.26	20461
902.379	20480
902.498	20347
902.617	20263
902.735	20343
902.854	20427
902.973	20244
903.091	20054
903.21	19944
903.328	20050
903.446	19830
903.565	19719
903.683	19734
903.801	19723
903.919	19613
904.038	19685
904.156	19556
904.274	19582
904.392	19480
904.51	19651
904.627	19468
904.745	19594
904.863	19681
904.981	19358
905.098	19255
905.216	19282
905.334	19206
905.451	19327
905.569	19266
905.686	19232
905.803	19179
905.921	18973
906.038	19061
906.155	18901
906.272	18867
906.389	18924
906.506	18757
906.623	18798
906.74	18764
906.857	18608
906.974	18646
907.091	18783
907.208	18886
907.324	18776
907.441	18745
907.557	18509
907.674	18475
907.79	18292
907.907	18353
908.023	18494
908.139	18506
908.256	18357
908.372	18285
908.488	18292
908.604	18273
908.72	18136
908.836	18163
908.952	18136
909.068	18159
909.184	18194
909.3	18110
909.415	18133
909.531	18186
909.647	17874
909.762	17904
909.878	17840
909.993	17863
910.108	17775
910.224	17843
910.339	17756
910.454	17760
910.57	17665
910.685	17528
910.8	17802
910.915	17756
911.03	17585
911.145	17379
911.259	17296
911.374	17337
911.489	17322
911.604	17364
911.718	17075
911.833	17341
911.947	17086
912.062	16961
912.176	17174
912.291	17299
912.405	17113
912.519	17383
912.633	17277
912.748	17140
912.862	17124
912.976	16980
913.09	16892
913.204	16930
913.318	17045
913.431	17056
913.545	16923
913.659	17003
913.772	16957
913.886	16801
914	16805
914.113	16771
914.226	16820
914.34	16721
914.453	16588
914.566	16706
914.68	16504
914.793	16706
914.906	16390
915.019	16299
915.132	16280
915.245	16276
915.358	16363
915.47	16257
915.583	16230
915.696	16314
915.809	16318
915.921	16428
916.034	16284
916.146	16109
916.259	16196
916.371	16299
916.483	16204
916.595	16093
916.708	16162
916.82	16059
916.932	16017
917.044	16006
917.156	16097
917.268	15880
917.38	15975
917.491	15850
917.603	15865
917.715	15953
917.826	15972
917.938	15854
918.049	15778
918.161	15918
918.272	15964
918.384	16055
918.495	15778
918.606	15713
918.717	15606
918.828	15576
918.939	15629
919.05	15549
919.161	15682
919.272	15477
919.383	15473
919.494	15542
919.604	15941
919.715	15637
919.826	15545
919.936	15511
920.047	15728
920.157	15603
920.267	15770
920.378	15462
920.488	15606
920.598	15671
920.708	15930
920.818	15625
920.928	15755
921.038	15926
921.148	15850
921.258	15549
921.368	15412
921.477	15359
921.587	15218
921.697	15203
921.806	15348
921.916	15195
922.025	15020
922.134	14899
922.244	14963
922.353	14941
922.462	14834
922.571	14716
922.68	14617
922.789	14511
922.898	14514
923.007	14518
923.116	14625
923.224	14583
923.333	14655
923.442	14419
923.55	14408
923.659	14434
923.767	14434
923.876	14294
923.984	14404
924.092	14225
924.201	14317
924.309	14351
924.417	14248
924.525	14183
924.633	14134
924.741	15058
924.849	13993
924.956	14134
925.064	13993
925.172	13970
925.279	13997
925.387	13963
925.494	13959
925.602	13989
925.709	13951
925.816	13765
925.924	13826
926.031	13978
926.138	13826
926.245	13932
926.352	13811
926.459	13852
926.566	13822
926.673	13852
926.779	13613
926.886	13647
926.993	13533
927.099	13441
927.206	13354
927.312	13400
927.419	13495
927.525	13464
927.631	13487
927.737	13297
927.843	13270
927.95	13187
928.056	13263
928.162	13259
928.267	13270
928.373	13757
928.479	13362
928.585	13019
928.69	13194
928.796	13149
928.901	13046
929.007	12970
929.112	13175
929.218	13057
929.323	13023
929.428	13008
929.533	13015
929.638	12882
929.743	12848
929.848	13023
929.953	12890
930.058	12760
930.163	12639
930.267	12521
930.372	12760
930.477	12612
930.581	12856
930.685	12654
930.79	12509
930.894	12467
930.998	12471
931.103	12582
931.207	12281
931.311	12163
931.415	12125
931.519	11912
931.623	11828
