Data from test_V78500241_2876.txt Node
Date: Fri Mar 25 16:01:43 CST 2022
User: usil
Spectrometer: V785-0024
Trigger mode: 0
Integration Time (sec): 4.000000E-1
Scans to average: 1
Nonlinearity correction enabled: false
Boxcar width: 0
Storing dark spectrum: false
XAxis mode: Wavelengths
Number of Pixels in Spectrum: 1024
>>>>>Begin Spectral Data<<<<<
801.071	28215
801.214	28177
801.356	27968
801.499	28017
801.641	27819
801.783	27914
801.926	27907
802.068	27857
802.211	27781
802.353	27774
802.496	27603
802.638	27504
802.78	27542
802.923	27557
803.065	27450
803.208	27458
803.35	27477
803.492	27789
803.635	27720
803.777	27652
803.919	27747
804.061	28017
804.204	27705
804.346	27751
804.488	27690
804.63	27713
804.773	27599
804.915	27682
805.057	27892
805.199	27884
805.341	27876
805.483	27930
805.626	27778
805.768	27785
805.91	27903
806.052	27964
806.194	27903
806.336	28090
806.478	27865
806.62	27926
806.762	28048
806.904	28192
807.046	28432
807.188	28337
807.33	28428
807.472	28360
807.614	28352
807.756	28246
807.898	28143
808.04	28158
808.182	28150
808.324	28006
808.465	28120
808.607	28481
808.749	28481
808.891	28626
809.033	28774
809.174	28618
809.316	28561
809.458	28637
809.6	28500
809.741	28554
809.883	28470
810.025	28892
810.166	28888
810.308	28839
810.45	28767
810.591	28755
810.733	28679
810.875	28584
811.016	28531
811.158	28409
811.299	28698
811.441	28733
811.582	28694
811.724	28550
811.865	28531
812.007	28573
812.148	28653
812.29	28603
812.431	28763
812.573	28774
812.714	28881
812.855	29041
812.997	29166
813.138	29315
813.279	29098
813.421	29155
813.562	28904
813.703	28869
813.845	28702
813.986	28512
814.127	28314
814.268	28287
814.41	28333
814.551	28230
814.692	28310
814.833	28124
814.974	28257
815.115	28219
815.256	28185
815.397	28109
815.539	28074
815.68	28021
815.821	28051
815.962	28173
816.103	27892
816.244	27873
816.385	27831
816.526	27766
816.666	27747
816.807	27534
816.948	27823
817.089	27477
817.23	27564
817.371	27519
817.512	27519
817.653	27511
817.793	27477
817.934	27523
818.075	27519
818.216	27530
818.356	27466
818.497	27374
818.638	27374
818.778	27325
818.919	27336
819.06	27378
819.2	27412
819.341	27534
819.481	27561
819.622	27724
819.762	27854
819.903	27964
820.043	27720
820.184	27747
820.324	27568
820.465	27701
820.605	27781
820.746	27751
820.886	27595
821.026	27675
821.167	27538
821.307	27618
821.447	27656
821.588	27504
821.728	27348
821.868	27123
822.008	26982
822.149	27036
822.289	27001
822.429	26731
822.569	26762
822.709	26815
822.849	26514
822.99	26648
823.13	26473
823.27	26549
823.41	26328
823.55	26229
823.69	26385
823.83	26389
823.97	26423
824.11	26119
824.25	26172
824.389	26157
824.529	26244
824.669	26237
824.809	26339
824.949	26275
825.089	26324
825.228	26176
825.368	26016
825.508	26142
825.648	26107
825.787	26005
825.927	26138
826.067	26157
826.206	25966
826.346	26126
826.485	25997
826.625	26024
826.765	26142
826.904	26092
827.044	25830
827.183	25826
827.323	25689
827.462	25830
827.601	25757
827.741	25769
827.88	25662
828.02	25639
828.159	25605
828.298	25879
828.437	26012
828.577	25696
828.716	25761
828.855	25658
828.994	25578
829.134	25434
829.273	25533
829.412	25518
829.551	25445
829.69	25327
829.829	25422
829.968	25533
830.107	25544
830.246	25422
830.385	25259
830.524	25304
830.663	25297
830.802	25076
830.941	25114
831.08	24996
831.219	25137
831.357	25126
831.496	25304
831.635	25152
831.774	25053
831.913	24992
832.051	24848
832.19	24916
832.329	24848
832.467	24760
832.606	24715
832.744	24700
832.883	24654
833.022	24688
833.16	24665
833.299	24802
833.437	24791
833.576	24700
833.714	24867
833.852	24897
833.991	24810
834.129	24924
834.267	24859
834.406	24806
834.544	24753
834.682	24734
834.821	24814
834.959	25046
835.097	24711
835.235	24916
835.373	24806
835.511	24661
835.65	24764
835.788	24658
835.926	24498
836.064	24395
836.202	24460
836.34	24536
836.478	24749
836.615	24502
836.753	24604
836.891	24608
837.029	24696
837.167	24498
837.305	24521
837.443	24448
837.58	24403
837.718	24513
837.856	24620
837.993	24467
838.131	24319
838.269	24270
838.406	24456
838.544	24300
838.681	24163
838.819	24159
838.956	23984
839.094	23980
839.231	24057
839.369	24049
839.506	24311
839.643	24171
839.781	23958
839.918	23931
840.055	23942
840.193	23885
840.33	23851
840.467	23984
840.604	23931
840.742	24144
840.879	23748
841.016	23912
841.153	23783
841.29	23843
841.427	23874
841.564	23897
841.701	23843
841.838	23783
841.975	23661
842.112	23824
842.249	23718
842.385	23649
842.522	23752
842.659	23745
842.796	23543
842.933	23531
843.069	23501
843.206	23600
843.343	23752
843.479	23615
843.616	23509
843.752	23368
843.889	23311
844.025	23577
844.162	23417
844.298	23482
844.435	23341
844.571	23330
844.708	23417
844.844	23562
844.98	23524
845.117	23573
845.253	23318
845.389	23307
845.525	23261
845.661	23216
845.798	23041
845.934	23231
846.07	22904
846.206	23185
846.342	23288
846.478	23052
846.614	22858
846.75	22809
846.886	22672
847.022	22934
847.158	22767
847.294	22679
847.429	22843
847.565	22679
847.701	23014
847.837	22584
847.972	22527
848.108	22573
848.244	22729
848.379	22459
848.515	22421
848.65	22432
848.786	22379
848.921	22447
849.057	22569
849.192	22481
849.328	22421
849.463	22459
849.598	22367
849.734	22360
849.869	22287
850.004	22261
850.14	22204
850.275	22150
850.41	22021
850.545	22143
850.68	22204
850.815	22204
850.95	22219
851.085	22451
851.22	22284
851.355	22242
851.49	22181
851.625	22249
851.76	22238
851.895	22128
852.03	22162
852.165	22097
852.299	22200
852.434	22185
852.569	22246
852.703	22249
852.838	22177
852.973	22424
853.107	22177
853.242	22036
853.376	22006
853.511	21968
853.645	21949
853.78	22215
853.914	21983
854.048	22086
854.183	21994
854.317	22032
854.451	22223
854.585	22040
854.72	22017
854.854	22013
854.988	22006
855.122	22013
855.256	21808
855.39	22002
855.524	22013
855.658	22070
855.792	22101
855.926	22010
856.06	22139
856.194	21987
856.327	22029
856.461	21907
856.595	21975
856.729	22109
856.862	22131
856.996	22017
857.13	21972
857.263	22112
857.397	22154
857.53	22067
857.664	22021
857.797	22090
857.931	22253
858.064	22021
858.197	22128
858.331	21983
858.464	22048
858.597	21922
858.731	21975
858.864	22044
858.997	22010
859.13	21964
859.263	22086
859.396	22051
859.529	21949
859.662	22048
859.795	21918
859.928	22025
860.061	22287
860.194	22204
860.327	22109
860.46	22177
860.592	22196
860.725	22158
860.858	22211
860.99	22120
861.123	21994
861.256	21865
861.388	22021
861.521	22691
861.653	21941
861.786	21869
861.918	21819
862.05	22021
862.183	21915
862.315	21953
862.447	21968
862.58	21736
862.712	21667
862.844	21705
862.976	21888
863.108	21827
863.24	22200
863.372	21660
863.504	21625
863.636	21610
863.768	21793
863.9	21759
864.032	21675
864.164	21610
864.296	21667
864.428	21819
864.559	21709
864.691	21785
864.823	21762
864.954	21713
865.086	21637
865.217	21606
865.349	21447
865.48	21568
865.612	21587
865.743	21694
865.875	21652
866.006	21515
866.137	21549
866.269	21629
866.4	21530
866.531	21549
866.662	21511
866.793	21454
866.924	21549
867.055	21443
867.186	21488
867.317	21458
867.448	21542
867.579	21504
867.71	21447
867.841	21473
867.972	21610
868.103	21576
868.233	21599
868.364	21538
868.495	21591
868.625	21553
868.756	21884
868.886	21641
869.017	21724
869.147	21808
869.278	21926
869.408	21724
869.539	21812
869.669	21941
869.799	21869
869.929	21823
870.06	21945
870.19	21926
870.32	22067
870.45	22070
870.58	22261
870.71	22272
870.84	22299
870.97	22181
871.1	22105
871.23	22367
871.36	22409
871.489	22284
871.619	22299
871.749	22470
871.879	22379
872.008	22470
872.138	22261
872.267	22310
872.397	22333
872.526	22230
872.656	22306
872.785	22185
872.915	22356
873.044	22584
873.173	22375
873.303	22398
873.432	22337
873.561	22489
873.69	22493
873.819	22371
873.948	22565
874.077	22455
874.206	22413
874.335	22341
874.464	22611
874.593	22615
874.722	22588
874.851	22698
874.979	22607
875.108	22637
875.237	22615
875.365	22451
875.494	22577
875.623	22645
875.751	22615
875.88	22630
876.008	22786
876.136	22782
876.265	23029
876.393	23090
876.521	23056
876.65	23071
876.778	23029
876.906	22938
877.034	22885
877.162	22850
877.29	22934
877.418	23067
877.546	22995
877.674	22904
877.802	22987
877.93	22919
878.058	23010
878.185	22733
878.313	22873
878.441	23048
878.568	22710
878.696	22980
878.824	23044
878.951	23109
879.079	23086
879.206	23242
879.333	23064
879.461	22847
879.588	23033
879.715	23109
879.842	23212
879.97	23003
880.097	22744
880.224	22839
880.351	22816
880.478	22797
880.605	22782
880.732	22771
880.859	23006
880.986	22812
881.112	22801
881.239	22729
881.366	22561
881.493	22485
881.619	22238
881.746	22341
881.872	22325
881.999	22314
882.125	22188
882.252	22398
882.378	22265
882.505	22455
882.631	22097
882.757	22143
882.883	22166
883.01	22013
883.136	22002
883.262	21922
883.388	21766
883.514	22013
883.64	21972
883.766	21880
883.892	21869
884.018	21770
884.143	21941
884.269	22040
884.395	21869
884.52	21633
884.646	21766
884.772	21564
884.897	21542
885.023	21675
885.148	21816
885.274	21831
885.399	21732
885.524	21576
885.65	21701
885.775	21709
885.9	21564
886.025	21911
886.15	21690
886.275	21542
886.4	21576
886.525	21656
886.65	21576
886.775	21610
886.9	21694
887.025	21964
887.149	21599
887.274	21458
887.399	21492
887.523	21424
887.648	21317
887.773	21302
887.897	21458
888.021	21462
888.146	21298
888.27	21431
888.395	21690
888.519	21435
888.643	21462
888.767	21534
888.891	21355
889.015	21287
889.139	21211
889.263	21279
889.387	21260
889.511	21450
889.635	21351
889.759	21203
889.883	21237
890.006	21249
890.13	21317
890.254	21127
890.377	21112
890.501	21013
890.624	20963
890.748	21074
890.871	20914
890.995	20716
891.118	20777
891.241	20716
891.364	20769
891.488	20834
891.611	20739
891.734	20762
891.857	20777
891.98	20750
892.103	20826
892.226	20724
892.349	20819
892.471	20602
892.594	20640
892.717	20781
892.839	20640
892.962	20674
893.085	20746
893.207	20796
893.33	20727
893.452	20579
893.575	20743
893.697	20739
893.819	20842
893.941	20864
894.064	20727
894.186	20663
894.308	20625
894.43	20754
894.552	20826
894.674	20781
894.796	20495
894.918	20663
895.04	20667
895.161	20754
895.283	20754
895.405	20541
895.526	20621
895.648	20667
895.769	20762
895.891	20762
896.012	20823
896.134	20750
896.255	20663
896.376	20712
896.498	20689
896.619	20792
896.74	20598
896.861	20826
896.982	20982
897.103	21074
897.224	20941
897.345	21024
897.466	20773
897.587	20849
897.708	21085
897.828	20998
897.949	20788
898.07	20781
898.19	20632
898.311	20956
898.431	20769
898.552	20925
898.672	20902
898.792	20918
898.913	20979
899.033	20701
899.153	20705
899.273	20518
899.393	20697
899.513	20564
899.633	20590
899.753	20640
899.873	20545
899.993	20708
900.113	20602
900.232	20613
900.352	20602
900.472	20571
900.591	20374
900.711	20434
900.83	20366
900.95	20598
901.069	20457
901.189	20267
901.308	20115
901.427	19982
901.546	19947
901.665	19917
901.784	20024
901.904	19864
902.023	19655
902.141	19510
902.26	19514
902.379	19499
902.498	19377
902.617	19434
902.735	19537
902.854	19430
902.973	19403
903.091	19148
903.21	19175
903.328	19190
903.446	19091
903.565	18863
903.683	18920
903.801	18821
903.919	18920
904.038	18958
904.156	18779
904.274	18897
904.392	18639
904.51	18623
904.627	18612
904.745	18776
904.863	18741
904.981	18506
905.098	18289
905.216	18426
905.334	18384
905.451	18323
905.569	18380
905.686	18456
905.803	18384
905.921	18152
906.038	18429
906.155	18182
906.272	18022
906.389	18083
906.506	17893
906.623	17889
906.74	17882
906.857	17745
906.974	17889
907.091	17893
907.208	17901
907.324	18022
907.441	17832
907.557	17615
907.674	17532
907.79	17482
907.907	17600
908.023	17767
908.139	17665
908.256	17516
908.372	17406
908.488	17490
908.604	17436
908.72	17258
908.836	17429
908.952	17292
909.068	17269
909.184	17406
909.3	17337
909.415	17414
909.531	17402
909.647	17064
909.762	17014
909.878	17048
909.993	17041
910.108	16953
910.224	17037
910.339	17022
910.454	16934
910.57	16812
910.685	16843
910.8	16980
910.915	16892
911.03	16816
911.145	16550
911.259	16641
911.374	16618
911.489	16569
911.604	16470
911.718	16291
911.833	16333
911.947	16276
912.062	16253
912.176	16344
912.291	16371
912.405	16386
912.519	16569
912.633	16428
912.748	16443
912.862	16265
912.976	16120
913.09	16006
913.204	16093
913.318	16173
913.431	16215
913.545	16185
913.659	16238
913.772	16185
913.886	15888
914	15903
914.113	16013
914.226	16032
914.34	16032
914.453	15766
914.566	15949
914.68	15838
914.793	15766
914.906	15576
915.019	15542
915.132	15500
915.245	15526
915.358	15591
915.47	15549
915.583	15584
915.696	15557
915.809	15629
915.921	15679
916.034	15504
916.146	15359
916.259	15488
916.371	15477
916.483	15523
916.595	15431
916.708	15462
916.82	15363
916.932	15241
917.044	15260
917.156	15256
917.268	15176
917.38	15302
917.491	15184
917.603	15195
917.715	15268
917.826	15188
917.938	15112
918.049	15077
918.161	15062
918.272	15287
918.384	15260
918.495	15119
918.606	14914
918.717	14918
918.828	14876
918.939	15074
919.05	14838
919.161	14861
919.272	14765
919.383	14754
919.494	14986
919.604	15119
919.715	14918
919.826	14777
919.936	14872
920.047	14990
920.157	14864
920.267	15146
920.378	14975
920.488	14895
920.598	15093
920.708	15207
920.818	15062
920.928	15100
921.038	15157
921.148	15100
921.258	14838
921.368	14762
921.477	14636
921.587	14625
921.697	14530
921.806	14629
921.916	14549
922.025	14313
922.134	14218
922.244	14240
922.353	14248
922.462	14206
922.571	14069
922.68	13936
922.789	13925
922.898	13894
923.007	13894
923.116	13932
923.224	13845
923.333	13944
923.442	13814
923.55	13803
923.659	13696
923.767	13677
923.876	13643
923.984	13647
924.092	13624
924.201	13674
924.309	13674
924.417	13613
924.525	13556
924.633	13575
924.741	14495
924.849	13400
924.956	13552
925.064	13362
925.172	13270
925.279	13343
925.387	13324
925.494	13301
925.602	13434
925.709	13335
925.816	13190
925.924	13221
926.031	13331
926.138	13270
926.245	13289
926.352	13114
926.459	13236
926.566	13335
926.673	13076
926.779	13053
926.886	13019
926.993	12878
927.099	12829
927.206	12795
927.312	12802
927.419	12886
927.525	12798
927.631	12863
927.737	12654
927.843	12642
927.95	12612
928.056	12703
928.162	12635
928.267	12692
928.373	13259
928.479	12741
928.585	12452
928.69	12593
928.796	12703
928.901	12475
929.007	12365
929.112	12445
929.218	12509
929.323	12437
929.428	12311
929.533	12475
929.638	12319
929.743	12330
929.848	12407
929.953	12342
930.058	12213
930.163	12136
930.267	12106
930.372	12152
930.477	11992
930.581	12239
930.685	12148
930.79	11882
930.894	11885
930.998	11897
931.103	12068
931.207	11653
931.311	11680
931.415	11497
931.519	11288
931.623	11353
