Data from test_V78500241_1625.txt Node
Date: Fri Mar 25 15:53:03 CST 2022
User: usil
Spectrometer: V785-0024
Trigger mode: 0
Integration Time (sec): 4.000000E-1
Scans to average: 1
Nonlinearity correction enabled: false
Boxcar width: 0
Storing dark spectrum: false
XAxis mode: Wavelengths
Number of Pixels in Spectrum: 1024
>>>>>Begin Spectral Data<<<<<
801.071	28329
801.214	28310
801.356	28128
801.499	28135
801.641	27842
801.783	27880
801.926	27991
802.068	27842
802.211	27812
802.353	27808
802.496	27599
802.638	27481
802.78	27500
802.923	27641
803.065	27492
803.208	27427
803.35	27568
803.492	27549
803.635	27770
803.777	27469
803.919	27770
804.061	28226
804.204	27827
804.346	27698
804.488	27675
804.63	27835
804.773	27785
804.915	27895
805.057	27873
805.199	27743
805.341	27797
805.483	28029
805.626	27975
805.768	27698
805.91	27975
806.052	27895
806.194	27888
806.336	28154
806.478	27922
806.62	27953
806.762	28211
806.904	28318
807.046	28401
807.188	28421
807.33	28516
807.472	28519
807.614	28398
807.756	28360
807.898	28147
808.04	28333
808.182	28166
808.324	28169
808.465	28413
808.607	28569
808.749	28607
808.891	28660
809.033	28744
809.174	28675
809.316	28485
809.458	28729
809.6	28504
809.741	28683
809.883	28691
810.025	29048
810.166	28873
810.308	28980
810.45	28908
810.591	28984
810.733	28580
810.875	28615
811.016	28451
811.158	28519
811.299	28713
811.441	28710
811.582	28771
811.724	28691
811.865	28611
812.007	28649
812.148	28584
812.29	28691
812.431	28778
812.573	29094
812.714	29003
812.855	29105
812.997	29296
813.138	29455
813.279	29261
813.421	29117
813.562	29159
813.703	29022
813.845	28790
813.986	28660
814.127	28348
814.268	28325
814.41	28432
814.551	28314
814.692	28265
814.833	28257
814.974	28295
815.115	28219
815.256	28261
815.397	28234
815.539	28253
815.68	28150
815.821	28013
815.962	28063
816.103	28055
816.244	28044
816.385	27907
816.526	27884
816.666	27827
816.807	27751
816.948	27686
817.089	27823
817.23	27698
817.371	27576
817.512	27622
817.653	27595
817.793	27625
817.934	27690
818.075	27705
818.216	27599
818.356	27553
818.497	27583
818.638	27462
818.778	27351
818.919	27538
819.06	27427
819.2	27431
819.341	27572
819.481	27641
819.622	27808
819.762	27835
819.903	27945
820.043	27873
820.184	27663
820.324	27857
820.465	27888
820.605	27762
820.746	27793
820.886	27572
821.026	27656
821.167	27690
821.307	27743
821.447	27720
821.588	27660
821.728	27370
821.868	27310
822.008	27161
822.149	27093
822.289	26967
822.429	26834
822.569	26777
822.709	26807
822.849	26682
822.99	26594
823.13	26552
823.27	26571
823.41	26476
823.55	26370
823.69	26450
823.83	26434
823.97	26317
824.11	26122
824.25	26191
824.389	26298
824.529	26275
824.669	26282
824.809	26400
824.949	26343
825.089	26393
825.228	26225
825.368	26100
825.508	26115
825.648	26119
825.787	26225
825.927	26214
826.067	26172
826.206	26142
826.346	26149
826.485	26195
826.625	26119
826.765	26206
826.904	26054
827.044	25849
827.183	25879
827.323	25883
827.462	25849
827.601	25993
827.741	25822
827.88	25925
828.02	25753
828.159	25700
828.298	26001
828.437	25902
828.577	25868
828.716	25875
828.855	25799
828.994	25472
829.134	25533
829.273	25540
829.412	25639
829.551	25559
829.69	25647
829.829	25578
829.968	25700
830.107	25605
830.246	25548
830.385	25438
830.524	25499
830.663	25339
830.802	25228
830.941	24909
831.08	25053
831.219	25228
831.357	25126
831.496	25358
831.635	25206
831.774	25122
831.913	25042
832.051	25004
832.19	24894
832.329	24894
832.467	24722
832.606	24734
832.744	24840
832.883	24829
833.022	24715
833.16	24833
833.299	24878
833.437	24837
833.576	24901
833.714	24928
833.852	24882
833.991	24829
834.129	24897
834.267	24837
834.406	24939
834.544	24913
834.682	24954
834.821	24875
834.959	25080
835.097	24726
835.235	24954
835.373	24810
835.511	24829
835.65	24601
835.788	24627
835.926	24505
836.064	24490
836.202	24536
836.34	24703
836.478	24833
836.615	24601
836.753	24829
836.891	24760
837.029	24658
837.167	24627
837.305	24639
837.443	24521
837.58	24650
837.718	24540
837.856	24760
837.993	24407
838.131	24505
838.269	24384
838.406	24513
838.544	24357
838.681	24228
838.819	24182
838.956	24026
839.094	24049
839.231	24091
839.369	24213
839.506	24357
839.643	24243
839.781	24022
839.918	23901
840.055	24064
840.193	23969
840.33	24018
840.467	23893
840.604	23973
840.742	24216
840.879	23794
841.016	23745
841.153	23794
841.29	23984
841.427	23870
841.564	24003
841.701	23920
841.838	23863
841.975	23813
842.112	23950
842.249	23726
842.385	23638
842.522	23832
842.659	23691
842.796	23779
842.933	23581
843.069	23661
843.206	23718
843.343	23748
843.479	23627
843.616	23668
843.752	23471
843.889	23455
844.025	23657
844.162	23414
844.298	23440
844.435	23471
844.571	23395
844.708	23566
844.844	23627
844.98	23478
845.117	23531
845.253	23368
845.389	23372
845.525	23280
845.661	23368
845.798	23105
845.934	23353
846.07	23067
846.206	23132
846.342	23280
846.478	23128
846.614	22953
846.75	22858
846.886	22908
847.022	22889
847.158	22965
847.294	22938
847.429	22908
847.565	22854
847.701	23143
847.837	22573
847.972	22725
848.108	22668
848.244	22752
848.379	22588
848.515	22497
848.65	22394
848.786	22455
848.921	22481
849.057	22641
849.192	22512
849.328	22504
849.463	22485
849.598	22390
849.734	22428
849.869	22402
850.004	22246
850.14	22143
850.275	22287
850.41	22242
850.545	22143
850.68	22246
850.815	22173
850.95	22303
851.085	22481
851.22	22268
851.355	22268
851.49	22306
851.625	22147
851.76	22234
851.895	22215
852.03	22196
852.165	22215
852.299	22215
852.434	22318
852.569	22284
852.703	22341
852.838	22356
852.973	22440
853.107	22200
853.242	22147
853.376	22135
853.511	22074
853.645	22116
853.78	22177
853.914	22074
854.048	22090
854.183	21960
854.317	22173
854.451	22215
854.585	22139
854.72	21956
854.854	22032
854.988	22002
855.122	22048
855.256	21907
855.39	22090
855.524	22143
855.658	22150
855.792	22101
855.926	22112
856.06	22120
856.194	22169
856.327	22048
856.461	22040
856.595	21983
856.729	22006
856.862	22306
856.996	22055
857.13	22185
857.263	22272
857.397	22173
857.53	22051
857.664	22067
857.797	22029
857.931	22131
858.064	22029
858.197	22162
858.331	22070
858.464	21991
858.597	21785
858.731	21994
858.864	22082
858.997	22101
859.13	22029
859.263	22082
859.396	22238
859.529	22055
859.662	21937
859.795	21975
859.928	22116
860.061	22246
860.194	22154
860.327	22185
860.46	22002
860.592	22093
860.725	22249
860.858	22215
860.99	22116
861.123	22013
861.256	21941
861.388	22006
861.521	22782
861.653	21922
861.786	21865
861.918	21949
862.05	21911
862.183	21953
862.315	21949
862.447	21922
862.58	22093
862.712	21739
862.844	21652
862.976	21755
863.108	21911
863.24	22215
863.372	21751
863.504	21823
863.636	21884
863.768	21690
863.9	21812
864.032	21618
864.164	21812
864.296	21850
864.428	21915
864.559	21873
864.691	21804
864.823	21797
864.954	21682
865.086	21869
865.217	21656
865.349	21545
865.48	21572
865.612	21595
865.743	21743
865.875	21671
866.006	21610
866.137	21709
866.269	21637
866.4	21720
866.531	21675
866.662	21538
866.793	21568
866.924	21648
867.055	21595
867.186	21576
867.317	21614
867.448	21466
867.579	21656
867.71	21580
867.841	21595
867.972	21720
868.103	21519
868.233	21637
868.364	21591
868.495	21789
868.625	21797
868.756	21823
868.886	21842
869.017	21903
869.147	21915
869.278	22006
869.408	21819
869.539	21873
869.669	21876
869.799	21953
869.929	22002
870.06	22029
870.19	22154
870.32	22188
870.45	22070
870.58	22238
870.71	22295
870.84	22421
870.97	22158
871.1	22185
871.23	22447
871.36	22337
871.489	22344
871.619	22325
871.749	22470
871.879	22409
872.008	22573
872.138	22523
872.267	22375
872.397	22291
872.526	22272
872.656	22261
872.785	22109
872.915	22436
873.044	22440
873.173	22325
873.303	22531
873.432	22561
873.561	22653
873.69	22504
873.819	22462
873.948	22485
874.077	22459
874.206	22428
874.335	22455
874.464	22630
874.593	22755
874.722	22577
874.851	22694
874.979	22596
875.108	22679
875.237	22615
875.365	22512
875.494	22615
875.623	22717
875.751	22634
875.88	22672
876.008	22736
876.136	22767
876.265	22972
876.393	23132
876.521	23178
876.65	23094
876.778	23006
876.906	22934
877.034	22953
877.162	23052
877.29	22908
877.418	22980
877.546	23041
877.674	23041
877.802	22881
877.93	22980
878.058	23010
878.185	22801
878.313	22862
878.441	23041
878.568	22828
878.696	22957
878.824	22942
878.951	23086
879.079	23200
879.206	23269
879.333	23143
879.461	23064
879.588	23117
879.715	23124
879.842	23212
879.97	23075
880.097	22835
880.224	22790
880.351	22847
880.478	22847
880.605	22759
880.732	22869
880.859	23064
880.986	22828
881.112	22828
881.239	22664
881.366	22687
881.493	22436
881.619	22375
881.746	22493
881.872	22344
881.999	22246
882.125	22230
882.252	22352
882.378	22280
882.505	22474
882.631	22299
882.757	22207
882.883	22090
883.01	22177
883.136	21907
883.262	21987
883.388	21918
883.514	22120
883.64	22093
883.766	22067
883.892	21831
884.018	21766
884.143	21983
884.269	21903
884.395	21922
884.52	21580
884.646	21679
884.772	21717
884.897	21538
885.023	21656
885.148	21743
885.274	21876
885.399	21770
885.524	21603
885.65	21652
885.775	21774
885.9	21736
886.025	21747
886.15	21759
886.275	21633
886.4	21583
886.525	21660
886.65	21633
886.775	21675
886.9	21747
887.025	22021
887.149	21679
887.274	21511
887.399	21454
887.523	21454
887.648	21363
887.773	21412
887.897	21496
888.021	21511
888.146	21443
888.27	21420
888.395	21561
888.519	21500
888.643	21500
888.767	21481
888.891	21272
889.015	21302
889.139	21348
889.263	21359
889.387	21264
889.511	21519
889.635	21306
889.759	21176
889.883	21241
890.006	21310
890.13	21298
890.254	21176
890.377	21188
890.501	20929
890.624	21013
890.748	20952
890.871	20944
890.995	20845
891.118	20872
891.241	20731
891.364	20857
891.488	20876
891.611	20834
891.734	20815
891.857	20906
891.98	20708
892.103	20956
892.226	20788
892.349	20811
892.471	20507
892.594	20727
892.717	20686
892.839	20743
892.962	20781
893.085	20902
893.207	20659
893.33	20594
893.452	20663
893.575	20762
893.697	20659
893.819	20857
893.941	20807
894.064	20834
894.186	20609
894.308	20541
894.43	20804
894.552	20914
894.674	20826
894.796	20522
894.918	20739
895.04	20735
895.161	20727
895.283	20705
895.405	20689
895.526	20754
895.648	20792
895.769	20682
895.891	20693
896.012	20853
896.134	20796
896.255	20609
896.376	20545
896.498	20682
896.619	20625
896.74	20629
896.861	20785
896.982	21005
897.103	21108
897.224	21017
897.345	20941
897.466	20796
897.587	20925
897.708	21005
897.828	20906
897.949	20963
898.07	20613
898.19	20883
898.311	20979
898.431	20887
898.552	21036
898.672	20952
898.792	21017
898.913	20952
899.033	20883
899.153	20743
899.273	20590
899.393	20705
899.513	20659
899.633	20629
899.753	20678
899.873	20530
899.993	20651
900.113	20640
900.232	20545
900.352	20454
900.472	20431
900.591	20393
900.711	20366
900.83	20393
900.95	20537
901.069	20431
901.189	20328
901.308	20168
901.427	19982
901.546	19993
901.665	20103
901.784	20008
901.904	19932
902.023	19803
902.141	19540
902.26	19590
902.379	19571
902.498	19571
902.617	19510
902.735	19537
902.854	19453
902.973	19373
903.091	19156
903.21	19129
903.328	19194
903.446	19080
903.565	19012
903.683	18935
903.801	18844
903.919	18951
904.038	18875
904.156	18616
904.274	18768
904.392	18684
904.51	18684
904.627	18715
904.745	18734
904.863	18848
904.981	18498
905.098	18410
905.216	18361
905.334	18433
905.451	18403
905.569	18338
905.686	18528
905.803	18346
905.921	18201
906.038	18251
906.155	18281
906.272	18015
906.389	18068
906.506	17992
906.623	18007
906.74	17923
906.857	17699
906.974	17771
907.091	17916
907.208	18038
907.324	17908
907.441	17741
907.557	17646
907.674	17604
907.79	17566
907.907	17535
908.023	17680
908.139	17642
908.256	17672
908.372	17440
908.488	17444
908.604	17433
908.72	17311
908.836	17311
908.952	17334
909.068	17474
909.184	17417
909.3	17273
909.415	17353
909.531	17383
909.647	17216
909.762	17083
909.878	16984
909.993	17067
910.108	17052
910.224	16976
910.339	17083
910.454	16953
910.57	16858
910.685	16809
910.8	17193
910.915	16984
911.03	16934
911.145	16717
911.259	16641
911.374	16622
911.489	16596
911.604	16569
911.718	16363
911.833	16360
911.947	16314
912.062	16204
912.176	16402
912.291	16413
912.405	16325
912.519	16546
912.633	16580
912.748	16341
912.862	16348
912.976	16219
913.09	16131
913.204	16158
913.318	16188
913.431	16333
913.545	16367
913.659	16234
913.772	16219
913.886	15975
914	16021
914.113	15960
914.226	16120
914.34	16131
914.453	15907
914.566	15937
914.68	15816
914.793	15800
914.906	15698
915.019	15739
915.132	15599
915.245	15610
915.358	15701
915.47	15523
915.583	15553
915.696	15610
915.809	15660
915.921	15739
916.034	15519
916.146	15477
916.259	15473
916.371	15492
916.483	15485
916.595	15473
916.708	15443
916.82	15370
916.932	15447
917.044	15355
917.156	15382
917.268	15237
917.38	15344
917.491	15214
917.603	15272
917.715	15397
917.826	15435
917.938	15058
918.049	14986
918.161	15241
918.272	15298
918.384	15317
918.495	15188
918.606	15009
918.717	14979
918.828	14986
918.939	15039
919.05	14952
919.161	14952
919.272	14762
919.383	14937
919.494	15020
919.604	15237
919.715	15005
919.826	14845
919.936	14956
920.047	15043
920.157	14960
920.267	15070
920.378	14990
920.488	14876
920.598	15116
920.708	15241
920.818	15127
920.928	15070
921.038	15302
921.148	15165
921.258	14910
921.368	14788
921.477	14746
921.587	14655
921.697	14579
921.806	14644
921.916	14549
922.025	14415
922.134	14355
922.244	14256
922.353	14339
922.462	14271
922.571	14214
922.68	13959
922.789	13875
922.898	14043
923.007	13970
923.116	13940
923.224	13928
923.333	13940
923.442	13852
923.55	13723
923.659	13803
923.767	13803
923.876	13761
923.984	13830
924.092	13734
924.201	13746
924.309	13662
924.417	13753
924.525	13491
924.633	13662
924.741	14568
924.849	13377
924.956	13620
925.064	13422
925.172	13369
925.279	13350
925.387	13422
925.494	13259
925.602	13464
925.709	13362
925.816	13194
925.924	13282
926.031	13339
926.138	13285
926.245	13301
926.352	13206
926.459	13384
926.566	13354
926.673	13164
926.779	13084
926.886	13065
926.993	12947
927.099	12973
927.206	12829
927.312	12829
927.419	12958
927.525	12863
927.631	12947
927.737	12760
927.843	12829
927.95	12673
928.056	12688
928.162	12688
928.267	12658
928.373	13388
928.479	12856
928.585	12547
928.69	12669
928.796	12642
928.901	12532
929.007	12380
929.112	12559
929.218	12551
929.323	12467
929.428	12273
929.533	12604
929.638	12327
929.743	12357
929.848	12475
929.953	12384
930.058	12258
930.163	12140
930.267	12178
930.372	12262
930.477	12087
930.581	12334
930.685	12129
930.79	12022
930.894	12068
930.998	12011
931.103	12072
931.207	11798
931.311	11600
931.415	11581
931.519	11326
931.623	11372
