Data from test_V78500241_2785.txt Node
Date: Fri Mar 25 16:01:05 CST 2022
User: usil
Spectrometer: V785-0024
Trigger mode: 0
Integration Time (sec): 4.000000E-1
Scans to average: 1
Nonlinearity correction enabled: false
Boxcar width: 0
Storing dark spectrum: false
XAxis mode: Wavelengths
Number of Pixels in Spectrum: 1024
>>>>>Begin Spectral Data<<<<<
801.071	29174
801.214	29109
801.356	28831
801.499	28927
801.641	28729
801.783	28694
801.926	28668
802.068	28812
802.211	28694
802.353	28329
802.496	28409
802.638	28436
802.78	28451
802.923	28211
803.065	28504
803.208	28379
803.35	28390
803.492	28557
803.635	28653
803.777	28618
803.919	28649
804.061	28938
804.204	28797
804.346	28706
804.488	28622
804.63	28725
804.773	28634
804.915	28748
805.057	28869
805.199	28694
805.341	28736
805.483	28888
805.626	28809
805.768	28831
805.91	28873
806.052	28896
806.194	28736
806.336	29113
806.478	28923
806.62	28786
806.762	29170
806.904	29277
807.046	29414
807.188	29425
807.33	29463
807.472	29398
807.614	29383
807.756	29326
807.898	29273
808.04	29064
808.182	29277
808.324	29254
808.465	29197
808.607	29383
808.749	29611
808.891	29722
809.033	29783
809.174	29668
809.316	29440
809.458	29627
809.6	29482
809.741	29608
809.883	29646
810.025	29923
810.166	29824
810.308	29851
810.45	29684
810.591	29862
810.733	29661
810.875	29611
811.016	29490
811.158	29497
811.299	29817
811.441	29885
811.582	29878
811.724	29630
811.865	29501
812.007	29577
812.148	29707
812.29	29665
812.431	29775
812.573	29946
812.714	30110
812.855	30114
812.997	30209
813.138	30311
813.279	30273
813.421	30152
813.562	30022
813.703	29988
813.845	29832
813.986	29585
814.127	29478
814.268	29402
814.41	29375
814.551	29379
814.692	29425
814.833	29318
814.974	29250
815.115	29421
815.256	29140
815.397	29261
815.539	29292
815.68	29197
815.821	29128
815.962	29258
816.103	29102
816.244	29113
816.385	28892
816.526	28866
816.666	28744
816.807	28786
816.948	28611
817.089	28752
817.23	28755
817.371	28717
817.512	28637
817.653	28660
817.793	28675
817.934	28668
818.075	28710
818.216	28580
818.356	28687
818.497	28561
818.638	28440
818.778	28481
818.919	28394
819.06	28546
819.2	28675
819.341	28607
819.481	28694
819.622	28885
819.762	28923
819.903	28968
820.043	28866
820.184	28847
820.324	28797
820.465	28984
820.605	28793
820.746	28721
820.886	28698
821.026	28752
821.167	28702
821.307	28812
821.447	28782
821.588	28588
821.728	28531
821.868	28268
822.008	28086
822.149	28097
822.289	28147
822.429	27979
822.569	27838
822.709	27918
822.849	27785
822.99	27698
823.13	27667
823.27	27739
823.41	27382
823.55	27351
823.69	27553
823.83	27397
823.97	27538
824.11	27279
824.25	27230
824.389	27287
824.529	27462
824.669	27397
824.809	27477
824.949	27294
825.089	27374
825.228	27359
825.368	27241
825.508	27260
825.648	27378
825.787	27222
825.927	27184
826.067	27287
826.206	27104
826.346	27237
826.485	27298
826.625	27218
826.765	27397
826.904	27192
827.044	26952
827.183	27032
827.323	26891
827.462	27013
827.601	26940
827.741	26975
827.88	27024
828.02	26769
828.159	26937
828.298	27001
828.437	27032
828.577	26887
828.716	27096
828.855	26960
828.994	26590
829.134	26636
829.273	26727
829.412	26632
829.551	26583
829.69	26701
829.829	26594
829.968	26644
830.107	26659
830.246	26678
830.385	26571
830.524	26393
830.663	26396
830.802	26351
830.941	26225
831.08	26103
831.219	26153
831.357	26309
831.496	26336
831.635	26278
831.774	26115
831.913	26111
832.051	26008
832.19	25993
832.329	26058
832.467	25852
832.606	25811
832.744	25837
832.883	25803
833.022	25769
833.16	25814
833.299	26054
833.437	25887
833.576	25982
833.714	25925
833.852	26065
833.991	25993
834.129	26008
834.267	25982
834.406	25902
834.544	26005
834.682	25932
834.821	26115
834.959	26027
835.097	25875
835.235	26020
835.373	25966
835.511	25909
835.65	25845
835.788	25769
835.926	25685
836.064	25616
836.202	25662
836.34	25822
836.478	25830
836.615	25803
836.753	25852
836.891	25757
837.029	25841
837.167	25693
837.305	25681
837.443	25662
837.58	25571
837.718	25727
837.856	25578
837.993	25628
838.131	25590
838.269	25514
838.406	25632
838.544	25521
838.681	25388
838.819	25312
838.956	25145
839.094	25042
839.231	25110
839.369	25331
839.506	25392
839.643	25217
839.781	24947
839.918	24947
840.055	25084
840.193	25053
840.33	24928
840.467	25057
840.604	24932
840.742	25228
840.879	24753
841.016	24871
841.153	25050
841.29	25091
841.427	24890
841.564	24935
841.701	24890
841.838	24814
841.975	24886
842.112	24905
842.249	24920
842.385	24741
842.522	24928
842.659	24749
842.796	24627
842.933	24821
843.069	24646
843.206	24646
843.343	24840
843.479	24612
843.616	24760
843.752	24460
843.889	24376
844.025	24658
844.162	24365
844.298	24612
844.435	24483
844.571	24498
844.708	24490
844.844	24654
844.98	24627
845.117	24658
845.253	24502
845.389	24357
845.525	24464
845.661	24376
845.798	24266
845.934	24243
846.07	24197
846.206	24205
846.342	24342
846.478	24178
846.614	24106
846.75	23939
846.886	23950
847.022	23942
847.158	23988
847.294	23939
847.429	23931
847.565	23874
847.701	24186
847.837	23691
847.972	23661
848.108	23771
848.244	23657
848.379	23585
848.515	23486
848.65	23551
848.786	23520
848.921	23661
849.057	23604
849.192	23543
849.328	23414
849.463	23406
849.598	23459
849.734	23376
849.869	23387
850.004	23239
850.14	23440
850.275	23349
850.41	23166
850.545	23337
850.68	23231
850.815	23299
850.95	23254
851.085	23539
851.22	23471
851.355	23280
851.49	23216
851.625	23292
851.76	23421
851.895	23155
852.03	23197
852.165	23166
852.299	23425
852.434	23372
852.569	23307
852.703	23254
852.838	23376
852.973	23379
853.107	23330
853.242	23200
853.376	23124
853.511	22938
853.645	22999
853.78	23265
853.914	23147
854.048	23060
854.183	23041
854.317	23113
854.451	23254
854.585	23083
854.72	23200
854.854	23189
854.988	22980
855.122	23067
855.256	22949
855.39	23094
855.524	23071
855.658	23079
855.792	23071
855.926	23197
856.06	23132
856.194	23140
856.327	23060
856.461	23052
856.595	23102
856.729	23212
856.862	23151
856.996	23151
857.13	23025
857.263	23174
857.397	23185
857.53	23067
857.664	23181
857.797	23261
857.931	23185
858.064	23109
858.197	23296
858.331	23109
858.464	23056
858.597	23010
858.731	23102
858.864	23014
858.997	23109
859.13	23170
859.263	23151
859.396	23235
859.529	23014
859.662	22991
859.795	22995
859.928	23121
860.061	23197
860.194	23265
860.327	23162
860.46	23143
860.592	23231
860.725	23311
860.858	23231
860.99	23231
861.123	22911
861.256	23181
861.388	23037
861.521	23775
861.653	23022
861.786	22923
861.918	22911
862.05	23064
862.183	23155
862.315	23025
862.447	23060
862.58	23003
862.712	22729
862.844	22854
862.976	22889
863.108	22858
863.24	23296
863.372	22801
863.504	22778
863.636	22896
863.768	22790
863.9	22862
864.032	22831
864.164	22797
864.296	22839
864.428	22793
864.559	22854
864.691	22831
864.823	22805
864.954	22885
865.086	22687
865.217	22729
865.349	22725
865.48	22691
865.612	22691
865.743	22854
865.875	22675
866.006	22713
866.137	22573
866.269	22615
866.4	22672
866.531	22607
866.662	22588
866.793	22584
866.924	22565
867.055	22615
867.186	22527
867.317	22675
867.448	22557
867.579	22523
867.71	22447
867.841	22512
867.972	22603
868.103	22592
868.233	22683
868.364	22535
868.495	22725
868.625	22733
868.756	22919
868.886	22782
869.017	22900
869.147	23052
869.278	22980
869.408	22904
869.539	22812
869.669	22881
869.799	22824
869.929	22900
870.06	23075
870.19	23079
870.32	23102
870.45	23159
870.58	23231
870.71	23353
870.84	23299
870.97	23227
871.1	23136
871.23	23261
871.36	23425
871.489	23296
871.619	23402
871.749	23395
871.879	23611
872.008	23528
872.138	23528
872.267	23440
872.397	23406
872.526	23284
872.656	23353
872.785	23414
872.915	23497
873.044	23581
873.173	23570
873.303	23570
873.432	23547
873.561	23596
873.69	23585
873.819	23490
873.948	23448
874.077	23455
874.206	23436
874.335	23531
874.464	23619
874.593	23657
874.722	23748
874.851	23684
874.979	23710
875.108	23733
875.237	23566
875.365	23539
875.494	23684
875.623	23695
875.751	23684
875.88	23718
876.008	23767
876.136	23748
876.265	24197
876.393	24239
876.521	24064
876.65	24163
876.778	24174
876.906	23973
877.034	24095
877.162	23904
877.29	23832
877.418	23965
877.546	24083
877.674	23973
877.802	23939
877.93	23958
878.058	24106
878.185	23908
878.313	24034
878.441	23980
878.568	23874
878.696	23965
878.824	23980
878.951	24186
879.079	24182
879.206	24182
879.333	24159
879.461	23969
879.588	24117
879.715	24213
879.842	24304
879.97	24076
880.097	23775
880.224	23889
880.351	23996
880.478	23912
880.605	23843
880.732	23794
880.859	23969
880.986	23824
881.112	23821
881.239	23733
881.366	23665
881.493	23391
881.619	23318
881.746	23410
881.872	23318
881.999	23315
882.125	23265
882.252	23280
882.378	23277
882.505	23467
882.631	23235
882.757	23056
882.883	23197
883.01	23029
883.136	23006
883.262	22854
883.388	22965
883.514	22957
883.64	23143
883.766	22949
883.892	22767
884.018	22877
884.143	23037
884.269	23086
884.395	22725
884.52	22744
884.646	22645
884.772	22626
884.897	22557
885.023	22725
885.148	22729
885.274	22771
885.399	22797
885.524	22607
885.65	22672
885.775	22740
885.9	22573
886.025	22653
886.15	22733
886.275	22630
886.4	22516
886.525	22660
886.65	22580
886.775	22569
886.9	22771
887.025	22790
887.149	22596
887.274	22447
887.399	22394
887.523	22489
887.648	22402
887.773	22314
887.897	22550
888.021	22542
888.146	22314
888.27	22523
888.395	22573
888.519	22443
888.643	22432
888.767	22421
888.891	22185
889.015	22101
889.139	22188
889.263	22249
889.387	22386
889.511	22462
889.635	22352
889.759	22166
889.883	22150
890.006	22219
890.13	22284
890.254	22143
890.377	22112
890.501	21892
890.624	21953
890.748	21922
890.871	21949
890.995	21705
891.118	21755
891.241	21762
891.364	21663
891.488	21880
891.611	21629
891.734	21675
891.857	21694
891.98	21724
892.103	21778
892.226	21705
892.349	21709
892.471	21663
892.594	21561
892.717	21625
892.839	21679
892.962	21625
893.085	21736
893.207	21686
893.33	21496
893.452	21557
893.575	21656
893.697	21667
893.819	21759
893.941	21819
894.064	21861
894.186	21511
894.308	21652
894.43	21671
894.552	21759
894.674	21690
894.796	21450
894.918	21542
895.04	21485
895.161	21629
895.283	21648
895.405	21549
895.526	21679
895.648	21583
895.769	21538
895.891	21603
896.012	21663
896.134	21641
896.255	21591
896.376	21671
896.498	21564
896.619	21599
896.74	21583
896.861	21724
896.982	21857
897.103	22090
897.224	21812
897.345	21766
897.466	21671
897.587	21880
897.708	21808
897.828	21926
897.949	21641
898.07	21644
898.19	21804
898.311	21781
898.431	21762
898.552	21728
898.672	21808
898.792	21895
898.913	21705
899.033	21587
899.153	21561
899.273	21488
899.393	21587
899.513	21405
899.633	21507
899.753	21568
899.873	21469
899.993	21511
900.113	21435
900.232	21378
900.352	21386
900.472	21241
900.591	21355
900.711	21287
900.83	21169
900.95	21359
901.069	21321
901.189	21214
901.308	20998
901.427	20800
901.546	20842
901.665	20819
901.784	20788
901.904	20629
902.023	20640
902.141	20370
902.26	20248
902.379	20412
902.498	20294
902.617	20275
902.735	20328
902.854	20305
902.973	20187
903.091	20043
903.21	19944
903.328	19928
903.446	19852
903.565	19811
903.683	19868
903.801	19571
903.919	19906
904.038	19575
904.156	19392
904.274	19681
904.392	19540
904.51	19506
904.627	19483
904.745	19559
904.863	19548
904.981	19362
905.098	19266
905.216	19213
905.334	19225
905.451	19274
905.569	19148
905.686	19175
905.803	19168
905.921	18890
906.038	19122
906.155	19080
906.272	18863
906.389	18859
906.506	18768
906.623	18654
906.74	18711
906.857	18566
906.974	18669
907.091	18783
907.208	18897
907.324	18760
907.441	18525
907.557	18437
907.674	18464
907.79	18357
907.907	18369
908.023	18342
908.139	18357
908.256	18353
908.372	18304
908.488	18311
908.604	18258
908.72	18144
908.836	18152
908.952	18194
909.068	18087
909.184	18167
909.3	18072
909.415	18224
909.531	18140
909.647	17847
909.762	17836
909.878	17821
909.993	17809
910.108	17786
910.224	17790
910.339	17741
910.454	17604
910.57	17611
910.685	17455
910.8	17813
910.915	17695
911.03	17680
911.145	17417
911.259	17353
911.374	17414
911.489	17250
911.604	17231
911.718	17220
911.833	17143
911.947	17029
912.062	16965
912.176	17140
912.291	17067
912.405	17033
912.519	17318
912.633	17311
912.748	17189
912.862	17067
912.976	16923
913.09	16892
913.204	16831
913.318	16915
913.431	17010
913.545	17098
913.659	17033
913.772	16881
913.886	16706
914	16653
914.113	16801
914.226	16733
914.34	16873
914.453	16546
914.566	16854
914.68	16565
914.793	16535
914.906	16382
915.019	16329
915.132	16169
915.245	16219
915.358	16249
915.47	16287
915.583	16230
915.696	16234
915.809	16325
915.921	16341
916.034	16291
916.146	16261
916.259	16059
916.371	16223
916.483	16169
916.595	16116
916.708	16067
916.82	16036
916.932	16025
917.044	16029
917.156	15945
917.268	15915
917.38	15998
917.491	15800
917.603	15846
917.715	15930
917.826	15968
917.938	15770
918.049	15698
918.161	15770
918.272	15869
918.384	15953
918.495	15797
918.606	15625
918.717	15538
918.828	15610
918.939	15694
919.05	15584
919.161	15622
919.272	15313
919.383	15420
919.494	15625
919.604	15819
919.715	15542
919.826	15412
919.936	15477
920.047	15690
920.157	15557
920.267	15720
920.378	15572
920.488	15580
920.598	15709
920.708	15838
920.818	15686
920.928	15736
921.038	15838
921.148	15739
921.258	15492
921.368	15275
921.477	15359
921.587	15264
921.697	15138
921.806	15283
921.916	15157
922.025	14948
922.134	14967
922.244	14883
922.353	14948
922.462	14819
922.571	14731
922.68	14606
922.789	14507
922.898	14526
923.007	14461
923.116	14537
923.224	14530
923.333	14613
923.442	14450
923.55	14339
923.659	14438
923.767	14412
923.876	14290
923.984	14309
924.092	14130
924.201	14301
924.309	14267
924.417	14229
924.525	14221
924.633	14130
924.741	15146
924.849	13986
924.956	14153
925.064	13936
925.172	13837
925.279	13902
925.387	14065
925.494	13871
925.602	13974
925.709	13970
925.816	13868
925.924	13833
926.031	13864
926.138	13746
926.245	13788
926.352	13753
926.459	13921
926.566	13940
926.673	13750
926.779	13616
926.886	13628
926.993	13495
927.099	13449
927.206	13411
927.312	13499
927.419	13476
927.525	13422
927.631	13499
927.737	13365
927.843	13304
927.95	13171
928.056	13236
928.162	13316
928.267	13255
928.373	13734
928.479	13316
928.585	12981
928.69	13198
928.796	13270
928.901	13065
929.007	12943
929.112	13103
929.218	13095
929.323	12970
929.428	12844
929.533	13027
929.638	12894
929.743	12871
929.848	12928
929.953	12894
930.058	12757
930.163	12559
930.267	12669
930.372	12719
930.477	12494
930.581	12772
930.685	12681
930.79	12502
930.894	12502
930.998	12422
931.103	12597
931.207	12171
931.311	12076
931.415	12091
931.519	11882
931.623	11802
