Data from test_V78500241_1875.txt Node
Date: Fri Mar 25 15:54:47 CST 2022
User: usil
Spectrometer: V785-0024
Trigger mode: 0
Integration Time (sec): 4.000000E-1
Scans to average: 1
Nonlinearity correction enabled: false
Boxcar width: 0
Storing dark spectrum: false
XAxis mode: Wavelengths
Number of Pixels in Spectrum: 1024
>>>>>Begin Spectral Data<<<<<
801.071	28694
801.214	28550
801.356	28306
801.499	28207
801.641	28219
801.783	28150
801.926	28139
802.068	28204
802.211	28105
802.353	28063
802.496	27808
802.638	27857
802.78	27953
802.923	27709
803.065	27808
803.208	27804
803.35	27907
803.492	27991
803.635	28093
803.777	27998
803.919	28067
804.061	28287
804.204	28135
804.346	27960
804.488	28006
804.63	28135
804.773	27922
804.915	27991
805.057	28204
805.199	28131
805.341	28291
805.483	28188
805.626	28192
805.768	28257
805.91	28341
806.052	28268
806.194	28253
806.336	28375
806.478	28318
806.62	28219
806.762	28413
806.904	28542
807.046	28687
807.188	28744
807.33	28698
807.472	28816
807.614	28733
807.756	28679
807.898	28421
808.04	28527
808.182	28466
808.324	28565
808.465	28649
808.607	28828
808.749	28866
808.891	29098
809.033	29071
809.174	28930
809.316	28919
809.458	28946
809.6	28843
809.741	29121
809.883	29132
810.025	29265
810.166	29143
810.308	29383
810.45	29170
810.591	29254
810.733	28991
810.875	28995
811.016	28869
811.158	28801
811.299	29018
811.441	29006
811.582	28961
811.724	28991
811.865	28786
812.007	28881
812.148	28786
812.29	29052
812.431	29048
812.573	29254
812.714	29395
812.855	29444
812.997	29493
813.138	29760
813.279	29421
813.421	29448
813.562	29421
813.703	29170
813.845	29083
813.986	28896
814.127	28713
814.268	28664
814.41	28580
814.551	28512
814.692	28634
814.833	28634
814.974	28615
815.115	28592
815.256	28546
815.397	28588
815.539	28413
815.68	28478
815.821	28196
815.962	28455
816.103	28451
816.244	28424
816.385	28055
816.526	28226
816.666	28048
816.807	27956
816.948	27876
817.089	28086
817.23	28006
817.371	27892
817.512	27972
817.653	28032
817.793	27876
817.934	27762
818.075	28010
818.216	28021
818.356	27823
818.497	27770
818.638	27717
818.778	27641
818.919	27785
819.06	27622
819.2	27838
819.341	27819
819.481	27854
819.622	28135
819.762	28177
819.903	28188
820.043	28105
820.184	28116
820.324	28063
820.465	28109
820.605	28029
820.746	28143
820.886	28032
821.026	28040
821.167	27922
821.307	28188
821.447	27934
821.588	27880
821.728	27686
821.868	27500
822.008	27405
822.149	27332
822.289	27435
822.429	27150
822.569	26994
822.709	26940
822.849	26982
822.99	26971
823.13	26861
823.27	26823
823.41	26773
823.55	26541
823.69	26682
823.83	26708
823.97	26568
824.11	26507
824.25	26442
824.389	26632
824.529	26640
824.669	26499
824.809	26594
824.949	26556
825.089	26606
825.228	26651
825.368	26362
825.508	26267
825.648	26492
825.787	26583
825.927	26499
826.067	26469
826.206	26507
826.346	26571
826.485	26305
826.625	26389
826.765	26568
826.904	26465
827.044	26050
827.183	26237
827.323	26229
827.462	26240
827.601	26130
827.741	26164
827.88	26206
828.02	26103
828.159	26153
828.298	26134
828.437	26206
828.577	26096
828.716	26168
828.855	26100
828.994	25959
829.134	25765
829.273	25845
829.412	25833
829.551	25830
829.69	25772
829.829	25856
829.968	25928
830.107	25917
830.246	25704
830.385	25715
830.524	25715
830.663	25590
830.802	25510
830.941	25304
831.08	25263
831.219	25594
831.357	25331
831.496	25658
831.635	25384
831.774	25381
831.913	25388
832.051	25285
832.19	25187
832.329	25244
832.467	25278
832.606	25080
832.744	25118
832.883	25198
833.022	25023
833.16	25171
833.299	25069
833.437	25145
833.576	25232
833.714	25057
833.852	25217
833.991	25168
834.129	25198
834.267	25263
834.406	25213
834.544	25137
834.682	25164
834.821	25057
834.959	25244
835.097	25118
835.235	25110
835.373	25164
835.511	25122
835.65	25015
835.788	25061
835.926	24924
836.064	24719
836.202	24852
836.34	25012
836.478	25076
836.615	24989
836.753	25015
836.891	24989
837.029	25091
837.167	24920
837.305	24954
837.443	24890
837.58	24791
837.718	24798
837.856	24875
837.993	24741
838.131	24802
838.269	24696
838.406	24783
838.544	24570
838.681	24467
838.819	24521
838.956	24254
839.094	24311
839.231	24342
839.369	24445
839.506	24612
839.643	24642
839.781	24296
839.918	24224
840.055	24163
840.193	24239
840.33	24174
840.467	24285
840.604	24342
840.742	24460
840.879	24049
841.016	24117
841.153	24034
841.29	24361
841.427	24270
841.564	24152
841.701	24140
841.838	24087
841.975	23961
842.112	24133
842.249	24049
842.385	23893
842.522	24209
842.659	24091
842.796	23874
842.933	23958
843.069	23878
843.206	23912
843.343	24064
843.479	23950
843.616	24030
843.752	23726
843.889	23627
844.025	23832
844.162	23657
844.298	23942
844.435	23718
844.571	23726
844.708	23718
844.844	23996
844.98	23638
845.117	23851
845.253	23707
845.389	23589
845.525	23558
845.661	23661
845.798	23478
845.934	23497
846.07	23387
846.206	23474
846.342	23551
846.478	23398
846.614	23296
846.75	23147
846.886	23132
847.022	23216
847.158	23197
847.294	23052
847.429	23258
847.565	23113
847.701	23387
847.837	22946
847.972	22858
848.108	22995
848.244	22923
848.379	22854
848.515	22694
848.65	22752
848.786	22752
848.921	22778
849.057	22812
849.192	22873
849.328	22816
849.463	22744
849.598	22637
849.734	22637
849.869	22554
850.004	22599
850.14	22618
850.275	22413
850.41	22535
850.545	22523
850.68	22489
850.815	22481
850.95	22500
851.085	22656
851.22	22592
851.355	22497
851.49	22512
851.625	22489
851.76	22432
851.895	22443
852.03	22508
852.165	22561
852.299	22493
852.434	22557
852.569	22584
852.703	22622
852.838	22565
852.973	22668
853.107	22645
853.242	22500
853.376	22436
853.511	22238
853.645	22344
853.78	22440
853.914	22508
854.048	22405
854.183	22276
854.317	22253
854.451	22573
854.585	22409
854.72	22333
854.854	22489
854.988	22207
855.122	22447
855.256	22276
855.39	22242
855.524	22428
855.658	22382
855.792	22318
855.926	22306
856.06	22367
856.194	22371
856.327	22341
856.461	22341
856.595	22299
856.729	22341
856.862	22322
856.996	22344
857.13	22455
857.263	22398
857.397	22485
857.53	22166
857.664	22417
857.797	22428
857.931	22440
858.064	22474
858.197	22432
858.331	22382
858.464	22261
858.597	22135
858.731	22200
858.864	22322
858.997	22394
859.13	22352
859.263	22306
859.396	22428
859.529	22325
859.662	22348
859.795	22375
859.928	22417
860.061	22542
860.194	22432
860.327	22386
860.46	22341
860.592	22413
860.725	22455
860.858	22508
860.99	22318
861.123	22322
861.256	22287
861.388	22295
861.521	23185
861.653	22333
861.786	22013
861.918	22200
862.05	22253
862.183	22295
862.315	22398
862.447	22192
862.58	22097
862.712	22120
862.844	22105
862.976	22086
863.108	22067
863.24	22519
863.372	22074
863.504	21960
863.636	22074
863.768	22078
863.9	21987
864.032	21994
864.164	22010
864.296	22059
864.428	22067
864.559	22177
864.691	22177
864.823	22063
864.954	22188
865.086	21937
865.217	21930
865.349	21698
865.48	21953
865.612	22036
865.743	22032
865.875	22006
866.006	21907
866.137	21956
866.269	21956
866.4	21884
866.531	21808
866.662	21755
866.793	21892
866.924	21979
867.055	21694
867.186	21781
867.317	21922
867.448	21743
867.579	21781
867.71	21751
867.841	21743
867.972	21907
868.103	21838
868.233	21949
868.364	21911
868.495	21880
868.625	22063
868.756	22272
868.886	22044
869.017	22055
869.147	22192
869.278	22177
869.408	22067
869.539	22200
869.669	22211
869.799	22101
869.929	22230
870.06	22276
870.19	22375
870.32	22337
870.45	22443
870.58	22363
870.71	22557
870.84	22599
870.97	22538
871.1	22466
871.23	22577
871.36	22767
871.489	22592
871.619	22656
871.749	22580
871.879	22752
872.008	22771
872.138	22778
872.267	22675
872.397	22649
872.526	22584
872.656	22554
872.785	22565
872.915	22706
873.044	22866
873.173	22755
873.303	22763
873.432	22809
873.561	22889
873.69	22725
873.819	22706
873.948	22801
874.077	22759
874.206	22626
874.335	22603
874.464	22866
874.593	23003
874.722	22972
874.851	22946
874.979	22976
875.108	22911
875.237	22866
875.365	22828
875.494	22809
875.623	23124
875.751	22869
875.88	22900
876.008	22976
876.136	23105
876.265	23223
876.393	23318
876.521	23391
876.65	23474
876.778	23254
876.906	23299
877.034	23231
877.162	23292
877.29	23147
877.418	23261
877.546	23311
877.674	23216
877.802	23212
877.93	23269
878.058	23261
878.185	23181
878.313	23181
878.441	23220
878.568	23044
878.696	23140
878.824	23189
878.951	23345
879.079	23566
879.206	23585
879.333	23303
879.461	23353
879.588	23292
879.715	23448
879.842	23577
879.97	23356
880.097	23124
880.224	23071
880.351	23003
880.478	23086
880.605	23006
880.732	23109
880.859	23421
880.986	23124
881.112	23083
881.239	22927
881.366	22889
881.493	22733
881.619	22615
881.746	22748
881.872	22679
881.999	22535
882.125	22504
882.252	22706
882.378	22599
882.505	22733
882.631	22489
882.757	22413
882.883	22542
883.01	22314
883.136	22284
883.262	22287
883.388	22246
883.514	22303
883.64	22379
883.766	22124
883.892	21994
884.018	22166
884.143	22303
884.269	22325
884.395	22082
884.52	21991
884.646	21964
884.772	21857
884.897	21838
885.023	22055
885.148	22006
885.274	22112
885.399	22112
885.524	21926
885.65	22051
885.775	21968
885.9	21915
886.025	22082
886.15	21975
886.275	21888
886.4	21930
886.525	21842
886.65	21880
886.775	21850
886.9	22116
887.025	22185
887.149	21819
887.274	21732
887.399	21781
887.523	21739
887.648	21686
887.773	21542
887.897	21766
888.021	21903
888.146	21701
888.27	21873
888.395	21816
888.519	21660
888.643	21629
888.767	21762
888.891	21694
889.015	21439
889.139	21443
889.263	21500
889.387	21599
889.511	21656
889.635	21652
889.759	21439
889.883	21374
890.006	21485
890.13	21534
890.254	21367
890.377	21408
890.501	21237
890.624	21146
890.748	21237
890.871	21093
890.995	21047
891.118	21028
891.241	21074
891.364	21036
891.488	21058
891.611	21123
891.734	21093
891.857	21100
891.98	21085
892.103	21146
892.226	21096
892.349	20975
892.471	20914
892.594	20933
892.717	20910
892.839	20921
892.962	21055
893.085	21077
893.207	20925
893.33	20804
893.452	20872
893.575	20967
893.697	21047
893.819	21036
893.941	21100
894.064	21001
894.186	20929
894.308	20819
894.43	21081
894.552	21032
894.674	20906
894.796	20746
894.918	20979
895.04	20857
895.161	20998
895.283	21077
895.405	20910
895.526	20914
895.648	20971
895.769	20937
895.891	20921
896.012	21051
896.134	21043
896.255	20952
896.376	20891
896.498	21005
896.619	20902
896.74	21081
896.861	20918
896.982	21211
897.103	21389
897.224	21298
897.345	21131
897.466	20979
897.587	21085
897.708	21321
897.828	21043
897.949	21028
898.07	20963
898.19	21024
898.311	21207
898.431	21085
898.552	21154
898.672	21135
898.792	21055
898.913	21142
899.033	21043
899.153	21013
899.273	20864
899.393	20960
899.513	20929
899.633	20819
899.753	20830
899.873	20796
899.993	20929
900.113	20777
900.232	20868
900.352	20773
900.472	20644
900.591	20579
900.711	20617
900.83	20697
900.95	20811
901.069	20743
901.189	20609
901.308	20275
901.427	20149
901.546	20229
901.665	20244
901.784	20195
901.904	20157
902.023	19986
902.141	19826
902.26	19753
902.379	19784
902.498	19731
902.617	19712
902.735	19757
902.854	19712
902.973	19620
903.091	19422
903.21	19426
903.328	19384
903.446	19236
903.565	19225
903.683	19209
903.801	19027
903.919	19103
904.038	19141
904.156	18920
904.274	19046
904.392	18890
904.51	18954
904.627	18848
904.745	18886
904.863	18932
904.981	18639
905.098	18658
905.216	18654
905.334	18642
905.451	18627
905.569	18585
905.686	18593
905.803	18654
905.921	18452
906.038	18597
906.155	18391
906.272	18327
906.389	18361
906.506	18129
906.623	18171
906.74	18159
906.857	18041
906.974	18068
907.091	18178
907.208	18285
907.324	18102
907.441	18026
907.557	17817
907.674	17908
907.79	17863
907.907	17897
908.023	17828
908.139	17889
908.256	17653
908.372	17707
908.488	17634
908.604	17611
908.72	17543
908.836	17558
908.952	17497
909.068	17455
909.184	17741
909.3	17573
909.415	17558
909.531	17539
909.647	17265
909.762	17235
909.878	17208
909.993	17425
910.108	17162
910.224	17102
910.339	17151
910.454	17166
910.57	17048
910.685	17033
910.8	17246
910.915	17147
911.03	17064
911.145	16919
911.259	16790
911.374	16828
911.489	16702
911.604	16679
911.718	16542
911.833	16497
911.947	16470
912.062	16402
912.176	16542
912.291	16649
912.405	16630
912.519	16713
912.633	16702
912.748	16580
912.862	16550
912.976	16402
913.09	16276
913.204	16322
913.318	16363
913.431	16409
913.545	16497
913.659	16402
913.772	16246
913.886	16185
914	16105
914.113	16139
914.226	16280
914.34	16265
914.453	16078
914.566	16169
914.68	16090
914.793	16025
914.906	15865
915.019	15755
915.132	15732
915.245	15819
915.358	15812
915.47	15766
915.583	15759
915.696	15797
915.809	15857
915.921	15949
916.034	15675
916.146	15698
916.259	15686
916.371	15717
916.483	15652
916.595	15629
916.708	15580
916.82	15595
916.932	15572
917.044	15519
917.156	15561
917.268	15386
917.38	15382
917.491	15260
917.603	15355
917.715	15454
917.826	15519
917.938	15363
918.049	15176
918.161	15370
918.272	15405
918.384	15485
918.495	15435
918.606	15173
918.717	15081
918.828	15245
918.939	15230
919.05	15116
919.161	15108
919.272	14929
919.383	14986
919.494	15154
919.604	15351
919.715	15093
919.826	15070
919.936	15104
920.047	15070
920.157	15081
920.267	15241
920.378	15119
920.488	15039
920.598	15218
920.708	15401
920.818	15203
920.928	15302
921.038	15283
921.148	15325
921.258	15013
921.368	14956
921.477	14781
921.587	14838
921.697	14693
921.806	14788
921.916	14644
922.025	14518
922.134	14484
922.244	14457
922.353	14499
922.462	14339
922.571	14275
922.68	14237
922.789	14084
922.898	14100
923.007	13986
923.116	14039
923.224	14123
923.333	14027
923.442	13955
923.55	13974
923.659	13833
923.767	14005
923.876	13883
923.984	13955
924.092	13788
924.201	13765
924.309	13799
924.417	13833
924.525	13731
924.633	13731
924.741	14522
924.849	13556
924.956	13578
925.064	13540
925.172	13407
925.279	13434
925.387	13480
925.494	13426
925.602	13662
925.709	13441
925.816	13407
925.924	13468
926.031	13464
926.138	13407
926.245	13388
926.352	13346
926.459	13468
926.566	13502
926.673	13251
926.779	13168
926.886	13179
926.993	13057
927.099	13038
927.206	13012
927.312	12924
927.419	13065
927.525	12989
927.631	13031
927.737	12882
927.843	12837
927.95	12787
928.056	12871
928.162	12802
928.267	12905
928.373	13464
928.479	12905
928.585	12650
928.69	12703
928.796	12798
928.901	12642
929.007	12555
929.112	12722
929.218	12673
929.323	12601
929.428	12570
929.533	12654
929.638	12483
929.743	12460
929.848	12517
929.953	12467
930.058	12292
930.163	12277
930.267	12228
930.372	12365
930.477	12220
930.581	12308
930.685	12270
930.79	12072
930.894	12163
930.998	12110
931.103	12209
931.207	11813
931.311	11726
931.415	11676
931.519	11535
931.623	11474
