Data from test_V78500241_1279.txt Node
Date: Fri Mar 25 15:50:39 CST 2022
User: usil
Spectrometer: V785-0024
Trigger mode: 0
Integration Time (sec): 4.000000E-1
Scans to average: 1
Nonlinearity correction enabled: false
Boxcar width: 0
Storing dark spectrum: false
XAxis mode: Wavelengths
Number of Pixels in Spectrum: 1024
>>>>>Begin Spectral Data<<<<<
801.071	28044
801.214	27914
801.356	27812
801.499	27759
801.641	27515
801.783	27534
801.926	27629
802.068	27538
802.211	27591
802.353	27504
802.496	27317
802.638	27272
802.78	27249
802.923	27294
803.065	27192
803.208	27169
803.35	27233
803.492	27386
803.635	27370
803.777	27351
803.919	27443
804.061	27930
804.204	27389
804.346	27321
804.488	27310
804.63	27447
804.773	27351
804.915	27504
805.057	27561
805.199	27614
805.341	27485
805.483	27622
805.626	27526
805.768	27458
805.91	27564
806.052	27618
806.194	27667
806.336	27709
806.478	27732
806.62	27633
806.762	27736
806.904	27914
807.046	28059
807.188	28051
807.33	28124
807.472	28070
807.614	27972
807.756	27972
807.898	27987
808.04	27835
808.182	27899
808.324	27975
808.465	28070
808.607	28207
808.749	28280
808.891	28261
809.033	28470
809.174	28318
809.316	28276
809.458	28204
809.6	28280
809.741	28413
809.883	28310
810.025	28451
810.166	28470
810.308	28516
810.45	28478
810.591	28508
810.733	28333
810.875	28268
811.016	28169
811.158	28109
811.299	28409
811.441	28409
811.582	28306
811.724	28284
811.865	28242
812.007	28219
812.148	28238
812.29	28284
812.431	28363
812.573	28596
812.714	28694
812.855	28683
812.997	28828
813.138	29075
813.279	28972
813.421	28873
813.562	28660
813.703	28554
813.845	28474
813.986	28204
814.127	28067
814.268	27911
814.41	27987
814.551	28048
814.692	27991
814.833	27831
814.974	27972
815.115	27922
815.256	27850
815.397	27759
815.539	27808
815.68	27766
815.821	27743
815.962	27770
816.103	27728
816.244	27614
816.385	27462
816.526	27583
816.666	27275
816.807	27268
816.948	27466
817.089	27473
817.23	27340
817.371	27416
817.512	27332
817.653	27264
817.793	27233
817.934	27485
818.075	27310
818.216	27325
818.356	27245
818.497	27161
818.638	26944
818.778	26940
818.919	27032
819.06	27085
819.2	27161
819.341	27268
819.481	27336
819.622	27439
819.762	27488
819.903	27481
820.043	27454
820.184	27363
820.324	27355
820.465	27511
820.605	27230
820.746	27450
820.886	27310
821.026	27298
821.167	27443
821.307	27397
821.447	27298
821.588	27222
821.728	27039
821.868	26819
822.008	26750
822.149	26845
822.289	26720
822.429	26453
822.569	26495
822.709	26488
822.849	26374
822.99	26259
823.13	26206
823.27	26252
823.41	26088
823.55	25913
823.69	26073
823.83	26024
823.97	26046
824.11	25970
824.25	25799
824.389	25868
824.529	25932
824.669	26008
824.809	25963
824.949	26073
825.089	26043
825.228	25947
825.368	25837
825.508	25738
825.648	25715
825.787	25921
825.927	25826
826.067	25635
826.206	25674
826.346	25784
826.485	25746
826.625	25750
826.765	25864
826.904	25799
827.044	25514
827.183	25613
827.323	25476
827.462	25392
827.601	25354
827.741	25384
827.88	25430
828.02	25358
828.159	25354
828.298	25479
828.437	25506
828.577	25324
828.716	25601
828.855	25441
828.994	25217
829.134	25251
829.273	25244
829.412	25240
829.551	24985
829.69	25126
829.829	25122
829.968	25232
830.107	25156
830.246	25133
830.385	25156
830.524	25091
830.663	24882
830.802	24890
830.941	24722
831.08	24715
831.219	24924
831.357	24859
831.496	24958
831.635	24798
831.774	24677
831.913	24635
832.051	24597
832.19	24578
832.329	24612
832.467	24494
832.606	24384
832.744	24445
832.883	24505
833.022	24429
833.16	24483
833.299	24441
833.437	24353
833.576	24467
833.714	24441
833.852	24456
833.991	24547
834.129	24479
834.267	24597
834.406	24498
834.544	24513
834.682	24433
834.821	24384
834.959	24631
835.097	24448
835.235	24452
835.373	24490
835.511	24551
835.65	24376
835.788	24292
835.926	24213
836.064	24171
836.202	24095
836.34	24330
836.478	24418
836.615	24163
836.753	24304
836.891	24407
837.029	24323
837.167	24205
837.305	24213
837.443	24159
837.58	24098
837.718	24258
837.856	24247
837.993	24068
838.131	24064
838.269	24076
838.406	24140
838.544	23939
838.681	23767
838.819	23859
838.956	23608
839.094	23524
839.231	23691
839.369	23783
839.506	24091
839.643	23832
839.781	23604
839.918	23570
840.055	23630
840.193	23638
840.33	23562
840.467	23493
840.604	23608
840.742	23783
840.879	23402
841.016	23463
841.153	23459
841.29	23627
841.427	23592
841.564	23684
841.701	23634
841.838	23509
841.975	23421
842.112	23379
842.249	23425
842.385	23307
842.522	23562
842.659	23356
842.796	23322
842.933	23265
843.069	23242
843.206	23303
843.343	23417
843.479	23330
843.616	23269
843.752	23029
843.889	23044
844.025	23204
844.162	23003
844.298	23239
844.435	23025
844.571	23048
844.708	23121
844.844	23185
844.98	23322
845.117	23151
845.253	22976
845.389	22908
845.525	22869
845.661	22995
845.798	22771
845.934	22892
846.07	22809
846.206	22839
846.342	22976
846.478	22824
846.614	22561
846.75	22352
846.886	22474
847.022	22641
847.158	22493
847.294	22584
847.429	22512
847.565	22394
847.701	22668
847.837	22325
847.972	22192
848.108	22333
848.244	22257
848.379	22166
848.515	22090
848.65	22120
848.786	22067
848.921	22101
849.057	22078
849.192	22135
849.328	22226
849.463	22185
849.598	22109
849.734	22029
849.869	21953
850.004	21842
850.14	21941
850.275	21759
850.41	21732
850.545	21850
850.68	21816
850.815	21911
850.95	21857
851.085	22059
851.22	21846
851.355	21827
851.49	21838
851.625	21873
851.76	21926
851.895	21804
852.03	21694
852.165	21888
852.299	21865
852.434	22021
852.569	21842
852.703	21880
852.838	21823
852.973	22067
853.107	21892
853.242	21808
853.376	21717
853.511	21633
853.645	21644
853.78	21842
853.914	21720
854.048	21641
854.183	21523
854.317	21728
854.451	21800
854.585	21766
854.72	21709
854.854	21785
854.988	21656
855.122	21660
855.256	21526
855.39	21603
855.524	21701
855.658	21808
855.792	21774
855.926	21755
856.06	21568
856.194	21690
856.327	21690
856.461	21656
856.595	21709
856.729	21637
856.862	21743
856.996	21774
857.13	21876
857.263	21895
857.397	21701
857.53	21587
857.664	21724
857.797	21781
857.931	21671
858.064	21838
858.197	21911
858.331	21785
858.464	21610
858.597	21538
858.731	21789
858.864	21637
858.997	21675
859.13	21671
859.263	21698
859.396	21793
859.529	21709
859.662	21572
859.795	21720
859.928	21694
860.061	21781
860.194	21915
860.327	21739
860.46	21766
860.592	21819
860.725	21895
860.858	21918
860.99	21743
861.123	21667
861.256	21705
861.388	21660
861.521	22363
861.653	21504
861.786	21549
861.918	21507
862.05	21637
862.183	21515
862.315	21671
862.447	21652
862.58	21450
862.712	21466
862.844	21329
862.976	21500
863.108	21576
863.24	21766
863.372	21389
863.504	21340
863.636	21473
863.768	21500
863.9	21405
864.032	21298
864.164	21313
864.296	21477
864.428	21492
864.559	21450
864.691	21450
864.823	21382
864.954	21428
865.086	21325
865.217	21336
865.349	21157
865.48	21176
865.612	21313
865.743	21397
865.875	21329
866.006	21359
866.137	21363
866.269	21302
866.4	21157
866.531	21207
866.662	21127
866.793	21154
866.924	21192
867.055	21268
867.186	21252
867.317	21180
867.448	21214
867.579	21218
867.71	21184
867.841	21036
867.972	21287
868.103	21218
868.233	21142
868.364	21207
868.495	21203
868.625	21401
868.756	21492
868.886	21332
869.017	21500
869.147	21511
869.278	21656
869.408	21374
869.539	21416
869.669	21538
869.799	21561
869.929	21705
870.06	21587
870.19	21819
870.32	21739
870.45	21755
870.58	21808
870.71	21956
870.84	21945
870.97	21865
871.1	21899
871.23	22029
871.36	22029
871.489	21926
871.619	21941
871.749	22025
871.879	22059
872.008	22112
872.138	22185
872.267	22067
872.397	21964
872.526	21831
872.656	21941
872.785	21895
872.915	22067
873.044	22166
873.173	22154
873.303	21994
873.432	22093
873.561	22154
873.69	22124
873.819	22017
873.948	22154
874.077	22040
874.206	21983
874.335	22055
874.464	22249
874.593	22348
874.722	22226
874.851	22310
874.979	22284
875.108	22318
875.237	22109
875.365	22185
875.494	22143
875.623	22409
875.751	22230
875.88	22481
876.008	22382
876.136	22386
876.265	22691
876.393	22679
876.521	22588
876.65	22778
876.778	22656
876.906	22752
877.034	22683
877.162	22698
877.29	22550
877.418	22687
877.546	22729
877.674	22824
877.802	22668
877.93	22649
878.058	22596
878.185	22569
878.313	22516
878.441	22588
878.568	22333
878.696	22504
878.824	22717
878.951	22660
879.079	22835
879.206	22873
879.333	22949
879.461	22599
879.588	22717
879.715	22942
879.842	22858
879.97	22679
880.097	22417
880.224	22466
880.351	22424
880.478	22596
880.605	22447
880.732	22527
880.859	22763
880.986	22428
881.112	22531
881.239	22306
881.366	22226
881.493	22124
881.619	22051
881.746	22055
881.872	22002
881.999	22010
882.125	21918
882.252	22036
882.378	22109
882.505	22230
882.631	21903
882.757	21770
882.883	21835
883.01	21705
883.136	21675
883.262	21629
883.388	21504
883.514	21800
883.64	21770
883.766	21618
883.892	21454
884.018	21549
884.143	21629
884.269	21762
884.395	21473
884.52	21374
884.646	21393
884.772	21428
884.897	21173
885.023	21340
885.148	21378
885.274	21564
885.399	21511
885.524	21420
885.65	21469
885.775	21458
885.9	21351
886.025	21618
886.15	21378
886.275	21294
886.4	21214
886.525	21378
886.65	21310
886.775	21241
886.9	21511
887.025	21534
887.149	21211
887.274	21252
887.399	21157
887.523	21123
887.648	21131
887.773	21070
887.897	21310
888.021	21085
888.146	21104
888.27	21283
888.395	21287
888.519	21230
888.643	21195
888.767	21184
888.891	21074
889.015	20979
889.139	20899
889.263	20853
889.387	21005
889.511	21062
889.635	21055
889.759	20899
889.883	20933
890.006	20979
890.13	20967
890.254	20895
890.377	20815
890.501	20716
890.624	20731
890.748	20746
890.871	20549
890.995	20533
891.118	20374
891.241	20419
891.364	20518
891.488	20655
891.611	20533
891.734	20629
891.857	20514
891.98	20522
892.103	20495
892.226	20514
892.349	20423
892.471	20195
892.594	20442
892.717	20454
892.839	20370
892.962	20423
893.085	20450
893.207	20320
893.33	20347
893.452	20301
893.575	20488
893.697	20347
893.819	20598
893.941	20518
894.064	20442
894.186	20320
894.308	20313
894.43	20499
894.552	20537
894.674	20412
894.796	20225
894.918	20400
895.04	20313
895.161	20362
895.283	20480
895.405	20366
895.526	20339
895.648	20339
895.769	20237
895.891	20351
896.012	20518
896.134	20389
896.255	20271
896.376	20385
896.498	20339
896.619	20370
896.74	20389
896.861	20446
896.982	20758
897.103	20804
897.224	20674
897.345	20640
897.466	20552
897.587	20629
897.708	20727
897.828	20705
897.949	20594
898.07	20465
898.19	20533
898.311	20625
898.431	20518
898.552	20640
898.672	20655
898.792	20636
898.913	20632
899.033	20606
899.153	20400
899.273	20176
899.393	20313
899.513	20332
899.633	20358
899.753	20404
899.873	20404
899.993	20358
900.113	20195
900.232	20275
900.352	20374
900.472	20218
900.591	20088
900.711	20130
900.83	20100
900.95	20221
901.069	20084
901.189	19982
901.308	19837
901.427	19643
901.546	19670
901.665	19814
901.784	19708
901.904	19658
902.023	19480
902.141	19350
902.26	19350
902.379	19468
902.498	19206
902.617	19297
902.735	19346
902.854	19057
902.973	19244
903.091	18894
903.21	18909
903.328	18973
903.446	18814
903.565	18673
903.683	18719
903.801	18563
903.919	18734
904.038	18677
904.156	18509
904.274	18528
904.392	18407
904.51	18486
904.627	18475
904.745	18369
904.863	18399
904.981	18209
905.098	18079
905.216	18163
905.334	18163
905.451	18072
905.569	18121
905.686	18155
905.803	18216
905.921	17923
906.038	18019
906.155	17965
906.272	17691
906.389	17840
906.506	17718
906.623	17695
906.74	17627
906.857	17573
906.974	17596
907.091	17802
907.208	17722
907.324	17687
907.441	17543
907.557	17368
907.674	17383
907.79	17204
907.907	17318
908.023	17421
908.139	17398
908.256	17303
908.372	17341
908.488	17246
908.604	17014
908.72	16976
908.836	17102
908.952	17105
909.068	17086
909.184	17181
909.3	17029
909.415	17090
909.531	17045
909.647	16744
909.762	16869
909.878	16736
909.993	16790
910.108	16664
910.224	16771
910.339	16717
910.454	16630
910.57	16550
910.685	16447
910.8	16820
910.915	16744
911.03	16615
911.145	16459
911.259	16508
911.374	16314
911.489	16352
911.604	16139
911.718	16135
911.833	16147
911.947	16082
912.062	15994
912.176	16120
912.291	16150
912.405	16150
912.519	16367
912.633	16295
912.748	16025
912.862	16036
912.976	16010
913.09	15861
913.204	15884
913.318	15956
913.431	16002
913.545	16109
913.659	16040
913.772	15850
913.886	15732
914	15660
914.113	15808
914.226	15679
914.34	15797
914.453	15538
914.566	15816
914.68	15591
914.793	15606
914.906	15477
915.019	15313
915.132	15249
915.245	15310
915.358	15420
915.47	15283
915.583	15260
915.696	15393
915.809	15500
915.921	15439
916.034	15272
916.146	15207
916.259	15222
916.371	15230
916.483	15283
916.595	15195
916.708	15138
916.82	15180
916.932	15188
917.044	15135
917.156	15051
917.268	14921
917.38	15009
917.491	14876
917.603	15020
917.715	14990
917.826	15085
917.938	14864
918.049	14823
918.161	14941
918.272	15001
918.384	15020
918.495	14845
918.606	14754
918.717	14670
918.828	14765
918.939	14739
919.05	14571
919.161	14693
919.272	14434
919.383	14545
919.494	14705
919.604	14971
919.715	14746
919.826	14667
919.936	14598
920.047	14739
920.157	14712
920.267	14830
920.378	14606
920.488	14644
920.598	14910
920.708	14948
920.818	14746
920.928	14857
921.038	14956
921.148	14876
921.258	14632
921.368	14564
921.477	14450
921.587	14419
921.697	14218
921.806	14301
921.916	14313
922.025	14115
922.134	14035
922.244	13894
922.353	14054
922.462	13925
922.571	13928
922.68	13636
922.789	13666
922.898	13772
923.007	13685
923.116	13757
923.224	13620
923.333	13689
923.442	13499
923.55	13441
923.659	13529
923.767	13544
923.876	13510
923.984	13529
924.092	13441
924.201	13472
924.309	13415
924.417	13388
924.525	13403
924.633	13388
924.741	14294
924.849	13164
924.956	13278
925.064	13118
925.172	13008
925.279	13141
925.387	13129
925.494	13133
925.602	13190
925.709	13061
925.816	13019
925.924	12973
926.031	13145
926.138	13050
926.245	13069
926.352	12989
926.459	13137
926.566	13076
926.673	13015
926.779	12894
926.886	12814
926.993	12738
927.099	12745
927.206	12608
927.312	12620
927.419	12639
927.525	12707
927.631	12700
927.737	12456
927.843	12502
927.95	12418
928.056	12509
928.162	12570
928.267	12578
928.373	13080
928.479	12574
928.585	12410
928.69	12452
928.796	12574
928.901	12315
929.007	12216
929.112	12330
929.218	12201
929.323	12228
929.428	12247
929.533	12361
929.638	12148
929.743	12273
929.848	12243
929.953	12224
930.058	11950
930.163	11912
930.267	11908
930.372	11996
930.477	11802
930.581	12106
930.685	11927
930.79	11764
930.894	11805
930.998	11756
931.103	11908
931.207	11524
931.311	11417
931.415	11383
931.519	11201
931.623	11140
