Data from test_V78500241_224.txt Node
Date: Fri Mar 25 15:43:21 CST 2022
User: usil
Spectrometer: V785-0024
Trigger mode: 0
Integration Time (sec): 4.000000E-1
Scans to average: 1
Nonlinearity correction enabled: false
Boxcar width: 0
Storing dark spectrum: false
XAxis mode: Wavelengths
Number of Pixels in Spectrum: 1024
>>>>>Begin Spectral Data<<<<<
801.071	28489
801.214	28314
801.356	28055
801.499	27960
801.641	27766
801.783	27953
801.926	27789
802.068	27816
802.211	27759
802.353	27557
802.496	27614
802.638	27435
802.78	27378
802.923	27405
803.065	27355
803.208	27329
803.35	27443
803.492	27542
803.635	27671
803.777	27580
803.919	27447
804.061	27911
804.204	27660
804.346	27496
804.488	27310
804.63	27321
804.773	27466
804.915	27481
805.057	27671
805.199	27488
805.341	27545
805.483	27656
805.626	27614
805.768	27481
805.91	27580
806.052	27564
806.194	27450
806.336	27675
806.478	27549
806.62	27595
806.762	27694
806.904	27876
807.046	27964
807.188	28021
807.33	27918
807.472	27945
807.614	27846
807.756	27846
807.898	27663
808.04	27778
808.182	27759
808.324	27739
808.465	27732
808.607	27865
808.749	28051
808.891	28090
809.033	28238
809.174	28166
809.316	28158
809.458	28040
809.6	28093
809.741	28215
809.883	28299
810.025	28421
810.166	28337
810.308	28265
810.45	28181
810.591	28215
810.733	28021
810.875	28032
811.016	27899
811.158	27850
811.299	28177
811.441	28303
811.582	28059
811.724	28196
811.865	27884
812.007	27922
812.148	27994
812.29	28090
812.431	28162
812.573	28234
812.714	28325
812.855	28436
812.997	28626
813.138	28733
813.279	28618
813.421	28519
813.562	28512
813.703	28333
813.845	28169
813.986	27937
814.127	27865
814.268	27545
814.41	27614
814.551	27504
814.692	27606
814.833	27553
814.974	27690
815.115	27618
815.256	27412
815.397	27500
815.539	27507
815.68	27477
815.821	27268
815.962	27416
816.103	27283
816.244	27252
816.385	27024
816.526	26979
816.666	26918
816.807	26743
816.948	26811
817.089	26815
817.23	26804
817.371	26781
817.512	26743
817.653	26750
817.793	26758
817.934	26663
818.075	26773
818.216	26773
818.356	26648
818.497	26526
818.638	26343
818.778	26526
818.919	26545
819.06	26495
819.2	26655
819.341	26724
819.481	26674
819.622	26792
819.762	26910
819.903	26811
820.043	26872
820.184	26842
820.324	26682
820.465	26861
820.605	26754
820.746	26758
820.886	26708
821.026	26781
821.167	26560
821.307	26689
821.447	26724
821.588	26552
821.728	26503
821.868	26259
822.008	26020
822.149	26065
822.289	26176
822.429	25906
822.569	25830
822.709	25727
822.849	25575
822.99	25620
823.13	25666
823.27	25529
823.41	25472
823.55	25232
823.69	25343
823.83	25411
823.97	25343
824.11	25069
824.25	25099
824.389	25266
824.529	25304
824.669	25236
824.809	25358
824.949	25228
825.089	25225
825.228	25225
825.368	25004
825.508	25057
825.648	25095
825.787	25099
825.927	25088
826.067	25091
826.206	25023
826.346	25023
826.485	25046
826.625	25038
826.765	25133
826.904	25072
827.044	24821
827.183	24783
827.323	24673
827.462	24604
827.601	24654
827.741	24563
827.88	24703
828.02	24525
828.159	24623
828.298	24650
828.437	24616
828.577	24631
828.716	24661
828.855	24650
828.994	24464
829.134	24247
829.273	24388
829.412	24273
829.551	24213
829.69	24350
829.829	24311
829.968	24350
830.107	24467
830.246	24304
830.385	24308
830.524	24194
830.663	24155
830.802	23965
830.941	23901
831.08	23901
831.219	23996
831.357	23973
831.496	24133
831.635	23874
831.774	23657
831.913	23786
832.051	23726
832.19	23619
832.329	23630
832.467	23551
832.606	23486
832.744	23551
832.883	23436
833.022	23604
833.16	23592
833.299	23474
833.437	23524
833.576	23535
833.714	23562
833.852	23627
833.991	23531
834.129	23600
834.267	23608
834.406	23551
834.544	23604
834.682	23528
834.821	23425
834.959	23596
835.097	23474
835.235	23543
835.373	23440
835.511	23589
835.65	23360
835.788	23360
835.926	23296
836.064	23189
836.202	23258
836.34	23391
836.478	23360
836.615	23395
836.753	23410
836.891	23505
837.029	23554
837.167	23326
837.305	23284
837.443	23197
837.58	23174
837.718	23258
837.856	23307
837.993	23235
838.131	23162
838.269	23090
838.406	23071
838.544	23003
838.681	22831
838.819	22786
838.956	22725
839.094	22634
839.231	22691
839.369	22850
839.506	22976
839.643	22934
839.781	22668
839.918	22565
840.055	22717
840.193	22584
840.33	22580
840.467	22504
840.604	22523
840.742	22900
840.879	22329
841.016	22512
841.153	22436
841.29	22694
841.427	22561
841.564	22481
841.701	22561
841.838	22523
841.975	22432
842.112	22535
842.249	22375
842.385	22371
842.522	22459
842.659	22371
842.796	22253
842.933	22303
843.069	22272
843.206	22166
843.343	22196
843.479	22162
843.616	22314
843.752	22051
843.889	22131
844.025	22120
844.162	21964
844.298	22181
844.435	22074
844.571	22025
844.708	22032
844.844	22181
844.98	22135
845.117	22147
845.253	21972
845.389	21816
845.525	21911
845.661	21812
845.798	21606
845.934	21709
846.07	21633
846.206	21629
846.342	21842
846.478	21774
846.614	21511
846.75	21344
846.886	21401
847.022	21618
847.158	21500
847.294	21435
847.429	21462
847.565	21389
847.701	21622
847.837	21283
847.972	21043
848.108	21150
848.244	21310
848.379	21032
848.515	20925
848.65	20842
848.786	20994
848.921	20963
849.057	21024
849.192	21017
849.328	21081
849.463	21043
849.598	20963
849.734	20891
849.869	20739
850.004	20883
850.14	20705
850.275	20845
850.41	20746
850.545	20762
850.68	20670
850.815	20708
850.95	20655
851.085	21017
851.22	20720
851.355	20765
851.49	20765
851.625	20682
851.76	20765
851.895	20632
852.03	20689
852.165	20655
852.299	20830
852.434	20933
852.569	20807
852.703	20644
852.838	20724
852.973	20781
853.107	20777
853.242	20727
853.376	20518
853.511	20507
853.645	20609
853.78	20735
853.914	20587
854.048	20461
854.183	20511
854.317	20556
854.451	20667
854.585	20537
854.72	20507
854.854	20648
854.988	20389
855.122	20583
855.256	20320
855.39	20381
855.524	20636
855.658	20602
855.792	20442
855.926	20396
856.06	20575
856.194	20674
856.327	20609
856.461	20503
856.595	20465
856.729	20518
856.862	20583
856.996	20514
857.13	20552
857.263	20476
857.397	20632
857.53	20602
857.664	20575
857.797	20648
857.931	20629
858.064	20579
858.197	20613
858.331	20450
858.464	20488
858.597	20434
858.731	20457
858.864	20446
858.997	20434
859.13	20499
859.263	20575
859.396	20636
859.529	20408
859.662	20492
859.795	20415
859.928	20427
860.061	20602
860.194	20583
860.327	20579
860.46	20454
860.592	20556
860.725	20579
860.858	20488
860.99	20530
861.123	20415
861.256	20400
861.388	20446
861.521	21203
861.653	20389
861.786	20351
861.918	20347
862.05	20415
862.183	20476
862.315	20484
862.447	20560
862.58	20377
862.712	20119
862.844	20225
862.976	20366
863.108	20107
863.24	20693
863.372	20191
863.504	20221
863.636	20153
863.768	20267
863.9	20149
864.032	19989
864.164	20058
864.296	20199
864.428	20252
864.559	20278
864.691	20358
864.823	20161
864.954	20214
865.086	20092
865.217	19940
865.349	20077
865.48	20081
865.612	20164
865.743	20145
865.875	20020
866.006	20153
866.137	20145
866.269	20050
866.4	20012
866.531	20092
866.662	20043
866.793	20069
866.924	19993
867.055	20172
867.186	20107
867.317	19978
867.448	19944
867.579	19986
867.71	19978
867.841	19963
867.972	19917
868.103	19944
868.233	19982
868.364	20001
868.495	20050
868.625	20278
868.756	20320
868.886	20324
869.017	20214
869.147	20415
869.278	20298
869.408	20199
869.539	20309
869.669	20317
869.799	20313
869.929	20366
870.06	20434
870.19	20465
870.32	20590
870.45	20484
870.58	20613
870.71	20804
870.84	20853
870.97	20533
871.1	20568
871.23	20750
871.36	20754
871.489	20743
871.619	20899
871.749	20849
871.879	20902
872.008	20902
872.138	20834
872.267	20952
872.397	20727
872.526	20826
872.656	20712
872.785	20674
872.915	20804
873.044	20906
873.173	20921
873.303	20975
873.432	20921
873.561	20948
873.69	20948
873.819	20804
873.948	20895
874.077	20887
874.206	20823
874.335	20880
874.464	21058
874.593	21131
874.722	21028
874.851	21169
874.979	21150
875.108	21195
875.237	21074
875.365	21032
875.494	21058
875.623	21165
875.751	21005
875.88	21074
876.008	21317
876.136	21412
876.265	21538
876.393	21698
876.521	21561
876.65	21599
876.778	21519
876.906	21458
877.034	21466
877.162	21382
877.29	21393
877.418	21591
877.546	21462
877.674	21519
877.802	21557
877.93	21557
878.058	21332
878.185	21420
878.313	21412
878.441	21488
878.568	21203
878.696	21420
878.824	21454
878.951	21500
879.079	21656
879.206	21637
879.333	21587
879.461	21462
879.588	21500
879.715	21660
879.842	21690
879.97	21572
880.097	21329
880.224	21336
880.351	21325
880.478	21192
880.605	21317
880.732	21302
880.859	21519
880.986	21405
881.112	21332
881.239	21169
881.366	21062
881.493	21024
881.619	20937
881.746	20914
881.872	20811
881.999	20864
882.125	20762
882.252	20899
882.378	20864
882.505	20990
882.631	20857
882.757	20648
882.883	20765
883.01	20602
883.136	20648
883.262	20484
883.388	20533
883.514	20674
883.64	20655
883.766	20606
883.892	20389
884.018	20476
884.143	20575
884.269	20632
884.395	20332
884.52	20195
884.646	20339
884.772	20210
884.897	20263
885.023	20168
885.148	20263
885.274	20484
885.399	20404
885.524	20210
885.65	20355
885.775	20313
885.9	20145
886.025	20377
886.15	20317
886.275	20168
886.4	20202
886.525	20244
886.65	20183
886.775	20115
886.9	20343
887.025	20530
887.149	20218
887.274	20039
887.399	20012
887.523	19974
887.648	19913
887.773	19902
887.897	20161
888.021	20115
888.146	19757
888.27	20008
888.395	20088
888.519	20065
888.643	20016
888.767	20005
888.891	19913
889.015	19887
889.139	19734
889.263	19795
889.387	19902
889.511	20008
889.635	19822
889.759	19731
889.883	19784
890.006	19841
890.13	19845
890.254	19681
890.377	19757
890.501	19700
890.624	19499
890.748	19552
890.871	19472
890.995	19327
891.118	19381
891.241	19422
891.364	19369
891.488	19499
891.611	19400
891.734	19316
891.857	19445
891.98	19415
892.103	19491
892.226	19449
892.349	19438
892.471	19255
892.594	19369
892.717	19384
892.839	19331
892.962	19240
893.085	19400
893.207	19354
893.33	19274
893.452	19274
893.575	19468
893.697	19358
893.819	19422
893.941	19411
894.064	19422
894.186	19392
894.308	19244
894.43	19308
894.552	19605
894.674	19392
894.796	19255
894.918	19331
895.04	19228
895.161	19438
895.283	19445
895.405	19236
895.526	19327
895.648	19354
895.769	19426
895.891	19289
896.012	19354
896.134	19396
896.255	19445
896.376	19285
896.498	19403
896.619	19480
896.74	19384
896.861	19525
896.982	19693
897.103	19909
897.224	19681
897.345	19590
897.466	19453
897.587	19594
897.708	19750
897.828	19746
897.949	19449
898.07	19502
898.19	19441
898.311	19647
898.431	19533
898.552	19647
898.672	19582
898.792	19590
898.913	19499
899.033	19411
899.153	19430
899.273	19217
899.393	19407
899.513	19297
899.633	19289
899.753	19343
899.873	19335
899.993	19308
900.113	19247
900.232	19282
900.352	19221
900.472	18989
900.591	19061
900.711	19114
900.83	19088
900.95	19141
901.069	19274
901.189	19015
901.308	18753
901.427	18627
901.546	18589
901.665	18688
901.784	18814
901.904	18612
902.023	18513
902.141	18372
902.26	18171
902.379	18243
902.498	18197
902.617	17996
902.735	18258
902.854	18045
902.973	18190
903.091	17889
903.21	17885
903.328	17729
903.446	17790
903.565	17566
903.683	17733
903.801	17611
903.919	17722
904.038	17661
904.156	17490
904.274	17493
904.392	17467
904.51	17463
904.627	17455
904.745	17493
904.863	17535
904.981	17360
905.098	17136
905.216	17105
905.334	17086
905.451	17151
905.569	17109
905.686	17132
905.803	17147
905.921	16805
906.038	16987
906.155	16980
906.272	16706
906.389	16778
906.506	16706
906.623	16668
906.74	16527
906.857	16580
906.974	16596
907.091	16596
907.208	16790
907.324	16611
907.441	16542
907.557	16386
907.674	16291
907.79	16344
907.907	16341
908.023	16360
908.139	16310
908.256	16360
908.372	16276
908.488	16253
908.604	16112
908.72	16006
908.836	15998
908.952	15979
909.068	16097
909.184	16173
909.3	15991
909.415	16135
909.531	15937
909.647	15793
909.762	15774
909.878	15675
909.993	15728
910.108	15717
910.224	15686
910.339	15770
910.454	15576
910.57	15492
910.685	15477
910.8	15804
910.915	15705
911.03	15572
911.145	15386
911.259	15336
911.374	15367
911.489	15355
911.604	15085
911.718	15150
911.833	15165
911.947	15005
912.062	14979
912.176	15135
912.291	15100
912.405	15108
912.519	15310
912.633	15245
912.748	15154
912.862	15058
912.976	14834
913.09	14754
913.204	14769
913.318	14857
913.431	15047
913.545	14986
913.659	15020
913.772	14952
913.886	14697
914	14583
914.113	14838
914.226	14838
914.34	14773
914.453	14610
914.566	14758
914.68	14682
914.793	14670
914.906	14427
915.019	14358
915.132	14195
915.245	14355
915.358	14282
915.47	14271
915.583	14317
915.696	14377
915.809	14507
915.921	14415
916.034	14229
916.146	14328
916.259	14339
916.371	14374
916.483	14248
916.595	14240
916.708	14199
916.82	14180
916.932	14240
917.044	14202
917.156	14168
917.268	14077
917.38	14077
917.491	13989
917.603	14065
917.715	14119
917.826	14218
917.938	13993
918.049	13875
918.161	14012
918.272	14119
918.384	14092
918.495	14031
918.606	13860
918.717	13784
918.828	13856
918.939	13890
919.05	13753
919.161	13849
919.272	13651
919.383	13666
919.494	13837
919.604	14096
919.715	13849
919.826	13696
919.936	13685
920.047	13753
920.157	13826
920.267	14001
920.378	13879
920.488	13818
920.598	13871
920.708	14111
920.818	14005
920.928	13894
921.038	14077
921.148	14096
921.258	13776
921.368	13597
921.477	13620
921.587	13540
921.697	13331
921.806	13514
921.916	13358
922.025	13232
922.134	13206
922.244	13206
922.353	13171
922.462	13088
922.571	12996
922.68	12985
922.789	12871
922.898	12856
923.007	12802
923.116	12848
923.224	12810
923.333	12760
923.442	12738
923.55	12642
923.659	12745
923.767	12768
923.876	12612
923.984	12684
924.092	12528
924.201	12521
924.309	12604
924.417	12544
924.525	12547
924.633	12460
924.741	13282
924.849	12327
924.956	12467
925.064	12292
925.172	12380
925.279	12308
925.387	12319
925.494	12235
925.602	12399
925.709	12418
925.816	12136
925.924	12228
926.031	12270
926.138	12232
926.245	12319
926.352	12190
926.459	12148
926.566	12342
926.673	12182
926.779	12011
926.886	12022
926.993	11885
927.099	11874
927.206	11798
927.312	11874
927.419	11931
927.525	11828
927.631	11901
927.737	11737
927.843	11756
927.95	11608
928.056	11657
928.162	11688
928.267	11714
928.373	12388
928.479	11779
928.585	11516
928.69	11657
928.796	11695
928.901	11562
929.007	11539
929.112	11577
929.218	11501
929.323	11440
929.428	11490
929.533	11573
929.638	11356
929.743	11360
929.848	11406
929.953	11436
930.058	11269
930.163	11056
930.267	11155
930.372	11250
930.477	11109
930.581	11345
930.685	11105
930.79	11014
930.894	11014
930.998	11022
931.103	10999
931.207	10748
931.311	10767
931.415	10588
931.519	10478
931.623	10409
