Data from test_V78500241_3665.txt Node
Date: Fri Mar 25 16:07:11 CST 2022
User: usil
Spectrometer: V785-0024
Trigger mode: 0
Integration Time (sec): 4.000000E-1
Scans to average: 1
Nonlinearity correction enabled: false
Boxcar width: 0
Storing dark spectrum: false
XAxis mode: Wavelengths
Number of Pixels in Spectrum: 1024
>>>>>Begin Spectral Data<<<<<
801.071	28333
801.214	28268
801.356	27975
801.499	28070
801.641	27835
801.783	27842
801.926	27926
802.068	27964
802.211	27682
802.353	27800
802.496	27728
802.638	27656
802.78	27629
802.923	27500
803.065	27469
803.208	27595
803.35	27576
803.492	27667
803.635	27789
803.777	27603
803.919	27774
804.061	28124
804.204	27979
804.346	27819
804.488	27743
804.63	27709
804.773	27667
804.915	27751
805.057	27789
805.199	27739
805.341	27968
805.483	27956
805.626	27888
805.768	27835
805.91	27903
806.052	27937
806.194	27880
806.336	28029
806.478	27964
806.62	27926
806.762	28002
806.904	28249
807.046	28466
807.188	28363
807.33	28428
807.472	28546
807.614	28413
807.756	28284
807.898	28314
808.04	28070
808.182	28124
808.324	28280
808.465	28268
808.607	28580
808.749	28577
808.891	28748
809.033	28626
809.174	28527
809.316	28481
809.458	28557
809.6	28519
809.741	28584
809.883	28710
810.025	28938
810.166	28984
810.308	28892
810.45	28923
810.591	28850
810.733	28660
810.875	28607
811.016	28466
811.158	28504
811.299	28672
811.441	28755
811.582	28793
811.724	28641
811.865	28459
812.007	28611
812.148	28630
812.29	28672
812.431	28820
812.573	28934
812.714	29060
812.855	29174
812.997	29208
813.138	29254
813.279	29242
813.421	29368
813.562	29102
813.703	28908
813.845	28786
813.986	28561
814.127	28394
814.268	28390
814.41	28246
814.551	28230
814.692	28348
814.833	28268
814.974	28409
815.115	28329
815.256	28238
815.397	28261
815.539	28086
815.68	28051
815.821	28082
815.962	28223
816.103	28143
816.244	28002
816.385	27880
816.526	27827
816.666	27644
816.807	27542
816.948	27587
817.089	27694
817.23	27507
817.371	27682
817.512	27534
817.653	27450
817.793	27561
817.934	27576
818.075	27591
818.216	27762
818.356	27523
818.497	27412
818.638	27397
818.778	27294
818.919	27431
819.06	27374
819.2	27496
819.341	27545
819.481	27603
819.622	27755
819.762	27945
819.903	27869
820.043	27857
820.184	27747
820.324	27812
820.465	27785
820.605	27739
820.746	27603
820.886	27595
821.026	27663
821.167	27671
821.307	27797
821.447	27671
821.588	27705
821.728	27439
821.868	27169
822.008	27165
822.149	27112
822.289	27062
822.429	26777
822.569	26823
822.709	26830
822.849	26651
822.99	26499
823.13	26552
823.27	26537
823.41	26518
823.55	26366
823.69	26343
823.83	26393
823.97	26358
824.11	26237
824.25	26206
824.389	26202
824.529	26328
824.669	26301
824.809	26370
824.949	26301
825.089	26301
825.228	26233
825.368	26069
825.508	26073
825.648	26084
825.787	26164
825.927	26221
826.067	26081
826.206	26092
826.346	26206
826.485	26187
826.625	26157
826.765	26199
826.904	26107
827.044	25860
827.183	25852
827.323	25742
827.462	25970
827.601	25913
827.741	25898
827.88	25849
828.02	25704
828.159	25738
828.298	25761
828.437	25944
828.577	25731
828.716	25822
828.855	25906
828.994	25441
829.134	25559
829.273	25563
829.412	25457
829.551	25438
829.69	25499
829.829	25639
829.968	25582
830.107	25651
830.246	25632
830.385	25403
830.524	25403
830.663	25228
830.802	25133
830.941	25050
831.08	25065
831.219	25266
831.357	25225
831.496	25403
831.635	25168
831.774	24981
831.913	25103
832.051	24802
832.19	24856
832.329	24840
832.467	24760
832.606	24795
832.744	24886
832.883	24798
833.022	24719
833.16	24764
833.299	24764
833.437	24798
833.576	24871
833.714	24821
833.852	24939
833.991	25000
834.129	24985
834.267	24886
834.406	24852
834.544	24966
834.682	24951
834.821	24856
834.959	25080
835.097	24810
835.235	24935
835.373	24837
835.511	24844
835.65	24669
835.788	24719
835.926	24525
836.064	24525
836.202	24585
836.34	24661
836.478	24734
836.615	24707
836.753	24745
836.891	24719
837.029	24631
837.167	24635
837.305	24684
837.443	24646
837.58	24483
837.718	24521
837.856	24604
837.993	24525
838.131	24505
838.269	24388
838.406	24490
838.544	24296
838.681	24110
838.819	24247
838.956	23954
839.094	24068
839.231	24053
839.369	23988
839.506	24369
839.643	24384
839.781	23999
839.918	24053
840.055	24076
840.193	23939
840.33	23920
840.467	23939
840.604	24034
840.742	24076
840.879	23863
841.016	23786
841.153	23783
841.29	23996
841.427	23897
841.564	23984
841.701	23908
841.838	23836
841.975	23882
842.112	23764
842.249	23668
842.385	23813
842.522	23859
842.659	23699
842.796	23672
842.933	23653
843.069	23600
843.206	23562
843.343	23570
843.479	23649
843.616	23596
843.752	23383
843.889	23638
844.025	23478
844.162	23330
844.298	23562
844.435	23531
844.571	23497
844.708	23410
844.844	23585
844.98	23509
845.117	23589
845.253	23322
845.389	23204
845.525	23364
845.661	23345
845.798	23170
845.934	23250
846.07	23155
846.206	23094
846.342	23296
846.478	23105
846.614	22972
846.75	22873
846.886	22915
847.022	22923
847.158	22957
847.294	23010
847.429	22896
847.565	22828
847.701	23151
847.837	22672
847.972	22668
848.108	22763
848.244	22748
848.379	22516
848.515	22504
848.65	22481
848.786	22519
848.921	22634
849.057	22523
849.192	22664
849.328	22637
849.463	22504
849.598	22405
849.734	22367
849.869	22310
850.004	22322
850.14	22242
850.275	22291
850.41	22230
850.545	22185
850.68	22306
850.815	22238
850.95	22238
851.085	22424
851.22	22363
851.355	22207
851.49	22367
851.625	22204
851.76	22287
851.895	22112
852.03	22234
852.165	22257
852.299	22394
852.434	22367
852.569	22207
852.703	22200
852.838	22238
852.973	22318
853.107	22409
853.242	22219
853.376	22112
853.511	22063
853.645	21968
853.78	22139
853.914	22090
854.048	22002
854.183	22120
854.317	21987
854.451	22200
854.585	22048
854.72	22063
854.854	22211
854.988	22192
855.122	22230
855.256	21907
855.39	22105
855.524	22207
855.658	22082
855.792	22112
855.926	22143
856.06	22169
856.194	22265
856.327	21968
856.461	21983
856.595	22017
856.729	22135
856.862	22230
856.996	22211
857.13	22162
857.263	22078
857.397	22185
857.53	22082
857.664	22067
857.797	22223
857.931	22219
858.064	22082
858.197	22303
858.331	22032
858.464	22002
858.597	22086
858.731	22090
858.864	22147
858.997	22093
859.13	22177
859.263	22143
859.396	22200
859.529	22139
859.662	22090
859.795	22093
859.928	22105
860.061	22284
860.194	22348
860.327	22295
860.46	22268
860.592	22219
860.725	22249
860.858	22215
860.99	22219
861.123	22101
861.256	22097
861.388	22032
861.521	22877
861.653	21975
861.786	21918
861.918	21899
862.05	22002
862.183	22169
862.315	22086
862.447	22093
862.58	21964
862.712	21739
862.844	21778
862.976	22017
863.108	21972
863.24	22314
863.372	21694
863.504	21873
863.636	21941
863.768	21972
863.9	21926
864.032	21755
864.164	21884
864.296	21873
864.428	21895
864.559	21922
864.691	21994
864.823	21804
864.954	21789
865.086	21865
865.217	21690
865.349	21656
865.48	21743
865.612	21663
865.743	21831
865.875	21720
866.006	21770
866.137	21698
866.269	21682
866.4	21819
866.531	21637
866.662	21720
866.793	21679
866.924	21648
867.055	21755
867.186	21633
867.317	21507
867.448	21458
867.579	21591
867.71	21477
867.841	21580
867.972	21641
868.103	21572
868.233	21701
868.364	21637
868.495	21766
868.625	21865
868.756	21899
868.886	21823
869.017	21850
869.147	22048
869.278	22006
869.408	21785
869.539	21846
869.669	21930
869.799	21903
869.929	21930
870.06	21880
870.19	22200
870.32	22143
870.45	22215
870.58	22318
870.71	22386
870.84	22310
870.97	22287
871.1	22325
871.23	22565
871.36	22497
871.489	22470
871.619	22500
871.749	22508
871.879	22504
872.008	22588
872.138	22402
872.267	22440
872.397	22265
872.526	22272
872.656	22367
872.785	22405
872.915	22436
873.044	22580
873.173	22504
873.303	22512
873.432	22596
873.561	22561
873.69	22508
873.819	22497
873.948	22588
874.077	22565
874.206	22447
874.335	22508
874.464	22641
874.593	22615
874.722	22592
874.851	22675
874.979	22793
875.108	22763
875.237	22645
875.365	22516
875.494	22672
875.623	22744
875.751	22691
875.88	22763
876.008	22881
876.136	23048
876.265	23155
876.393	23235
876.521	23258
876.65	23181
876.778	23060
876.906	23102
877.034	23075
877.162	23128
877.29	23098
877.418	23140
877.546	23083
877.674	23132
877.802	23044
877.93	23064
878.058	23010
878.185	22873
878.313	22953
878.441	23025
878.568	22885
878.696	22923
878.824	23155
878.951	23117
879.079	23284
879.206	23349
879.333	23269
879.461	23052
879.588	23326
879.715	23227
879.842	23337
879.97	23044
880.097	22980
880.224	22885
880.351	22930
880.478	22824
880.605	22809
880.732	22835
880.859	23151
880.986	22877
881.112	22927
881.239	22713
881.366	22577
881.493	22523
881.619	22557
881.746	22470
881.872	22485
881.999	22451
882.125	22417
882.252	22478
882.378	22432
882.505	22432
882.631	22211
882.757	22226
882.883	22352
883.01	22173
883.136	22082
883.262	22059
883.388	21975
883.514	22120
883.64	22112
883.766	22063
883.892	21865
884.018	21945
884.143	22074
884.269	22238
884.395	21895
884.52	21690
884.646	21660
884.772	21701
884.897	21728
885.023	21648
885.148	21770
885.274	21865
885.399	21831
885.524	21633
885.65	21835
885.775	21785
885.9	21751
886.025	21762
886.15	21850
886.275	21618
886.4	21622
886.525	21728
886.65	21720
886.775	21705
886.9	21880
887.025	22070
887.149	21717
887.274	21488
887.399	21523
887.523	21500
887.648	21481
887.773	21473
887.897	21587
888.021	21447
888.146	21496
888.27	21534
888.395	21614
888.519	21507
888.643	21507
888.767	21530
888.891	21500
889.015	21275
889.139	21477
889.263	21317
889.387	21363
889.511	21496
889.635	21443
889.759	21252
889.883	21306
890.006	21355
890.13	21420
890.254	21161
890.377	21142
890.501	21127
890.624	20979
890.748	21070
890.871	20925
890.995	20952
891.118	20769
891.241	20864
891.364	20902
891.488	20963
891.611	20910
891.734	20971
891.857	20994
891.98	20918
892.103	20872
892.226	20773
892.349	20682
892.471	20788
892.594	20838
892.717	20735
892.839	20739
892.962	20712
893.085	20765
893.207	20705
893.33	20625
893.452	20758
893.575	20769
893.697	20640
893.819	20895
893.941	20906
894.064	20914
894.186	20781
894.308	20819
894.43	20864
894.552	20842
894.674	20777
894.796	20670
894.918	20872
895.04	20697
895.161	20819
895.283	20792
895.405	20541
895.526	20777
895.648	20575
895.769	20720
895.891	20864
896.012	20762
896.134	20800
896.255	20834
896.376	20689
896.498	20697
896.619	20777
896.74	20731
896.861	20815
896.982	21001
897.103	21135
897.224	21074
897.345	20937
897.466	20864
897.587	20880
897.708	21070
897.828	21055
897.949	20937
898.07	20739
898.19	20842
898.311	20975
898.431	20857
898.552	20883
898.672	21066
898.792	20990
898.913	20971
899.033	20842
899.153	20777
899.273	20739
899.393	20667
899.513	20796
899.633	20731
899.753	20727
899.873	20613
899.993	20705
900.113	20640
900.232	20689
900.352	20579
900.472	20484
900.591	20518
900.711	20537
900.83	20431
900.95	20644
901.069	20518
901.189	20358
901.308	20058
901.427	19917
901.546	20062
901.665	20096
901.784	20157
901.904	19959
902.023	19906
902.141	19613
902.26	19533
902.379	19696
902.498	19548
902.617	19666
902.735	19662
902.854	19529
902.973	19457
903.091	19187
903.21	19304
903.328	19312
903.446	19091
903.565	19076
903.683	19015
903.801	18878
903.919	18962
904.038	18901
904.156	18821
904.274	18795
904.392	18741
904.51	18642
904.627	18734
904.745	18673
904.863	18779
904.981	18654
905.098	18414
905.216	18445
905.334	18502
905.451	18517
905.569	18319
905.686	18475
905.803	18410
905.921	18247
906.038	18311
906.155	18243
906.272	18171
906.389	18201
906.506	17965
906.623	17996
906.74	17996
906.857	18026
906.974	17809
907.091	18136
907.208	18053
907.324	17885
907.441	17836
907.557	17714
907.674	17718
907.79	17573
907.907	17657
908.023	17661
908.139	17668
908.256	17703
908.372	17657
908.488	17528
908.604	17482
908.72	17436
908.836	17493
908.952	17299
909.068	17471
909.184	17577
909.3	17410
909.415	17406
909.531	17299
909.647	17166
909.762	17109
909.878	17052
909.993	17223
910.108	17022
910.224	17143
910.339	17086
910.454	16946
910.57	16862
910.685	16869
910.8	17083
910.915	17090
911.03	16786
911.145	16729
911.259	16683
911.374	16736
911.489	16542
911.604	16618
911.718	16413
911.833	16413
911.947	16272
912.062	16356
912.176	16428
912.291	16459
912.405	16390
912.519	16611
912.633	16500
912.748	16462
912.862	16382
912.976	16265
913.09	16226
913.204	16261
913.318	16215
913.431	16367
913.545	16242
913.659	16322
913.772	16226
913.886	16101
914	16074
914.113	16082
914.226	16147
914.34	16139
914.453	15975
914.566	16044
914.68	15895
914.793	15926
914.906	15736
915.019	15644
915.132	15580
915.245	15580
915.358	15625
915.47	15648
915.583	15614
915.696	15641
915.809	15641
915.921	15751
916.034	15462
916.146	15549
916.259	15485
916.371	15686
916.483	15466
916.595	15462
916.708	15557
916.82	15416
916.932	15374
917.044	15329
917.156	15367
917.268	15230
917.38	15279
917.491	15211
917.603	15374
917.715	15321
917.826	15370
917.938	15146
918.049	15100
918.161	15195
918.272	15302
918.384	15245
918.495	15226
918.606	14990
918.717	15013
918.828	14925
918.939	15104
919.05	14845
919.161	14967
919.272	14887
919.383	14918
919.494	14982
919.604	15074
919.715	14975
919.826	14876
919.936	14883
920.047	15017
920.157	15005
920.267	15195
920.378	14994
920.488	14937
920.598	15097
920.708	15233
920.818	15058
920.928	15058
921.038	15199
921.148	15237
921.258	14785
921.368	14891
921.477	14731
921.587	14693
921.697	14564
921.806	14735
921.916	14492
922.025	14366
922.134	14282
922.244	14366
922.353	14415
922.462	14206
922.571	14043
922.68	14065
922.789	13989
922.898	13944
923.007	13883
923.116	13955
923.224	13955
923.333	13936
923.442	13811
923.55	13750
923.659	13791
923.767	13776
923.876	13776
923.984	13784
924.092	13696
924.201	13727
924.309	13791
924.417	13719
924.525	13674
924.633	13666
924.741	14568
924.849	13411
924.956	13616
925.064	13400
925.172	13289
925.279	13327
925.387	13384
925.494	13312
925.602	13502
925.709	13392
925.816	13278
925.924	13232
926.031	13396
926.138	13285
926.245	13327
926.352	13266
926.459	13289
926.566	13438
926.673	13194
926.779	13114
926.886	13091
926.993	12878
927.099	12943
927.206	12833
927.312	12833
927.419	12947
927.525	12859
927.631	12932
927.737	12810
927.843	12833
927.95	12616
928.056	12745
928.162	12738
928.267	12772
928.373	13438
928.479	12798
928.585	12517
928.69	12696
928.796	12715
928.901	12593
929.007	12403
929.112	12574
929.218	12559
929.323	12540
929.428	12471
929.533	12642
929.638	12437
929.743	12365
929.848	12460
929.953	12441
930.058	12308
930.163	12091
930.267	12110
930.372	12254
930.477	12079
930.581	12266
930.685	12254
930.79	11878
930.894	12022
930.998	12003
931.103	12121
931.207	11840
931.311	11668
931.415	11581
931.519	11425
931.623	11337
