Data from test_V78500241_2666.txt Node
Date: Fri Mar 25 16:00:16 CST 2022
User: usil
Spectrometer: V785-0024
Trigger mode: 0
Integration Time (sec): 4.000000E-1
Scans to average: 1
Nonlinearity correction enabled: false
Boxcar width: 0
Storing dark spectrum: false
XAxis mode: Wavelengths
Number of Pixels in Spectrum: 1024
>>>>>Begin Spectral Data<<<<<
801.071	29010
801.214	28946
801.356	28687
801.499	28641
801.641	28584
801.783	28588
801.926	28634
802.068	28504
802.211	28413
802.353	28596
802.496	28325
802.638	28306
802.78	28181
802.923	28272
803.065	28063
803.208	28173
803.35	28242
803.492	28421
803.635	28440
803.777	28337
803.919	28542
804.061	28812
804.204	28512
804.346	28554
804.488	28390
804.63	28630
804.773	28569
804.915	28542
805.057	28630
805.199	28382
805.341	28634
805.483	28675
805.626	28634
805.768	28550
805.91	28721
806.052	28668
806.194	28561
806.336	28908
806.478	28664
806.62	28683
806.762	28809
806.904	28987
807.046	29265
807.188	29185
807.33	29094
807.472	29174
807.614	29109
807.756	29136
807.898	29109
808.04	28919
808.182	28930
808.324	28927
808.465	29060
808.607	29204
808.749	29368
808.891	29463
809.033	29687
809.174	29360
809.316	29410
809.458	29345
809.6	29448
809.741	29444
809.883	29665
810.025	29604
810.166	29710
810.308	29665
810.45	29589
810.591	29509
810.733	29379
810.875	29395
811.016	29353
811.158	29261
811.299	29596
811.441	29459
811.582	29516
811.724	29322
811.865	29315
812.007	29414
812.148	29265
812.29	29554
812.431	29535
812.573	29843
812.714	29901
812.855	29996
812.997	30095
813.138	30163
813.279	29984
813.421	29958
813.562	29874
813.703	29661
813.845	29657
813.986	29524
814.127	29079
814.268	29094
814.41	29124
814.551	29052
814.692	29212
814.833	29018
814.974	28968
815.115	29109
815.256	29079
815.397	29037
815.539	29064
815.68	28885
815.821	28896
815.962	28965
816.103	28972
816.244	28942
816.385	28736
816.526	28767
816.666	28645
816.807	28333
816.948	28478
817.089	28512
817.23	28489
817.371	28478
817.512	28424
817.653	28261
817.793	28413
817.934	28436
818.075	28352
818.216	28424
818.356	28432
818.497	28322
818.638	28120
818.778	28124
818.919	28154
819.06	28306
819.2	28207
819.341	28447
819.481	28557
819.622	28672
819.762	28892
819.903	28710
820.043	28717
820.184	28645
820.324	28668
820.465	28607
820.605	28538
820.746	28634
820.886	28497
821.026	28557
821.167	28542
821.307	28557
821.447	28478
821.588	28295
821.728	28150
821.868	28002
822.008	28021
822.149	27937
822.289	27987
822.429	27743
822.569	27622
822.709	27675
822.849	27580
822.99	27454
823.13	27363
823.27	27332
823.41	27230
823.55	27043
823.69	27298
823.83	27138
823.97	27264
824.11	27112
824.25	27020
824.389	27104
824.529	27047
824.669	27116
824.809	27199
824.949	27131
825.089	27142
825.228	27154
825.368	26933
825.508	26971
825.648	26956
825.787	26971
825.927	27138
826.067	26899
826.206	27127
826.346	26940
826.485	27089
826.625	26925
826.765	27043
826.904	26906
827.044	26625
827.183	26720
827.323	26720
827.462	26769
827.601	26807
827.741	26644
827.88	26708
828.02	26640
828.159	26678
828.298	26682
828.437	26659
828.577	26594
828.716	26804
828.855	26670
828.994	26355
829.134	26404
829.273	26526
829.412	26271
829.551	26332
829.69	26408
829.829	26396
829.968	26419
830.107	26442
830.246	26408
830.385	26370
830.524	26172
830.663	26214
830.802	26183
830.941	25879
831.08	25822
831.219	25932
831.357	26199
831.496	26164
831.635	26058
831.774	25978
831.913	25947
832.051	25681
832.19	25909
832.329	25807
832.467	25753
832.606	25540
832.744	25651
832.883	25506
833.022	25620
833.16	25613
833.299	25696
833.437	25658
833.576	25712
833.714	25753
833.852	25811
833.991	25734
834.129	25750
834.267	25814
834.406	25753
834.544	25761
834.682	25700
834.821	25795
834.959	25845
835.097	25635
835.235	25685
835.373	25822
835.511	25597
835.65	25514
835.788	25681
835.926	25400
836.064	25464
836.202	25438
836.34	25472
836.478	25639
836.615	25571
836.753	25434
836.891	25578
837.029	25533
837.167	25468
837.305	25453
837.443	25400
837.58	25373
837.718	25434
837.856	25449
837.993	25171
838.131	25240
838.269	25225
838.406	25240
838.544	25217
838.681	25008
838.819	24920
838.956	24798
839.094	24734
839.231	24913
839.369	24928
839.506	25160
839.643	25012
839.781	24817
839.918	24688
840.055	24852
840.193	24787
840.33	24665
840.467	24665
840.604	24817
840.742	24992
840.879	24711
841.016	24711
841.153	24696
841.29	24878
841.427	24616
841.564	24848
841.701	24627
841.838	24601
841.975	24604
842.112	24722
842.249	24528
842.385	24631
842.522	24692
842.659	24509
842.796	24452
842.933	24448
843.069	24483
843.206	24452
843.343	24517
843.479	24433
843.616	24502
843.752	24205
843.889	24285
844.025	24456
844.162	24213
844.298	24311
844.435	24220
844.571	24148
844.708	24289
844.844	24456
844.98	24448
845.117	24407
845.253	24152
845.389	24003
845.525	24186
845.661	24216
845.798	23939
845.934	23980
846.07	23923
846.206	24121
846.342	24087
846.478	24003
846.614	23718
846.75	23657
846.886	23703
847.022	23779
847.158	23718
847.294	23802
847.429	23691
847.565	23775
847.701	23965
847.837	23334
847.972	23360
848.108	23577
848.244	23471
848.379	23288
848.515	23322
848.65	23353
848.786	23292
848.921	23174
849.057	23463
849.192	23315
849.328	23261
849.463	23265
849.598	23269
849.734	23143
849.869	23204
850.004	22965
850.14	22995
850.275	23178
850.41	23033
850.545	22987
850.68	22942
850.815	23105
850.95	23128
851.085	23254
851.22	23094
851.355	23090
851.49	23048
851.625	23003
851.76	23155
851.895	22904
852.03	23105
852.165	23094
852.299	23037
852.434	23132
852.569	23029
852.703	23105
852.838	23132
852.973	23105
853.107	23090
853.242	22930
853.376	22854
853.511	22843
853.645	22797
853.78	23025
853.914	22999
854.048	22797
854.183	22908
854.317	22915
854.451	23025
854.585	22972
854.72	22892
854.854	22946
854.988	23033
855.122	22965
855.256	22858
855.39	22908
855.524	22980
855.658	22873
855.792	22854
855.926	22915
856.06	22953
856.194	23022
856.327	22923
856.461	22919
856.595	22995
856.729	22904
856.862	22866
856.996	22919
857.13	22995
857.263	23052
857.397	23025
857.53	22839
857.664	23014
857.797	23094
857.931	22999
858.064	22816
858.197	23044
858.331	22869
858.464	22786
858.597	22968
858.731	22862
858.864	22869
858.997	22862
859.13	22927
859.263	22949
859.396	23033
859.529	22877
859.662	22896
859.795	22843
859.928	23060
860.061	23159
860.194	23159
860.327	23010
860.46	22889
860.592	23048
860.725	22972
860.858	23094
860.99	22995
861.123	22809
861.256	22866
861.388	22896
861.521	23642
861.653	22816
861.786	22618
861.918	22809
862.05	22634
862.183	22786
862.315	22843
862.447	22923
862.58	22805
862.712	22675
862.844	22580
862.976	22809
863.108	22656
863.24	23033
863.372	22557
863.504	22550
863.636	22508
863.768	22584
863.9	22523
864.032	22500
864.164	22535
864.296	22622
864.428	22626
864.559	22668
864.691	22641
864.823	22664
864.954	22542
865.086	22596
865.217	22447
865.349	22516
865.48	22413
865.612	22531
865.743	22512
865.875	22683
866.006	22504
866.137	22432
866.269	22489
866.4	22557
866.531	22417
866.662	22379
866.793	22489
866.924	22382
867.055	22459
867.186	22413
867.317	22257
867.448	22196
867.579	22504
867.71	22303
867.841	22348
867.972	22363
868.103	22462
868.233	22371
868.364	22474
868.495	22455
868.625	22713
868.756	22755
868.886	22535
869.017	22725
869.147	22683
869.278	22778
869.408	22733
869.539	22554
869.669	22881
869.799	22717
869.929	22812
870.06	22763
870.19	23014
870.32	22908
870.45	22984
870.58	22961
870.71	23151
870.84	23064
870.97	23048
871.1	22919
871.23	23212
871.36	23181
871.489	23044
871.619	23269
871.749	23239
871.879	23189
872.008	23315
872.138	23235
872.267	23220
872.397	23132
872.526	23136
872.656	23223
872.785	23155
872.915	23231
873.044	23220
873.173	23242
873.303	23261
873.432	23410
873.561	23299
873.69	23379
873.819	23235
873.948	23372
874.077	23277
874.206	23227
874.335	23303
874.464	23383
874.593	23570
874.722	23474
874.851	23436
874.979	23467
875.108	23436
875.237	23417
875.365	23269
875.494	23444
875.623	23471
875.751	23398
875.88	23501
876.008	23672
876.136	23604
876.265	23878
876.393	23958
876.521	23984
876.65	23832
876.778	23893
876.906	23718
877.034	23794
877.162	23786
877.29	23726
877.418	23897
877.546	23946
877.674	23878
877.802	23737
877.93	23855
878.058	23748
878.185	23691
878.313	23756
878.441	23824
878.568	23600
878.696	23813
878.824	23733
878.951	23874
879.079	23878
879.206	24083
879.333	23988
879.461	23851
879.588	23980
879.715	23961
879.842	24015
879.97	23863
880.097	23661
880.224	23627
880.351	23687
880.478	23592
880.605	23558
880.732	23703
880.859	23977
880.986	23611
881.112	23570
881.239	23372
881.366	23493
881.493	23280
881.619	23200
881.746	23185
881.872	23280
881.999	23140
882.125	23102
882.252	23288
882.378	23254
882.505	23181
882.631	23048
882.757	22858
882.883	22972
883.01	22957
883.136	22831
883.262	22793
883.388	22687
883.514	22854
883.64	22885
883.766	22786
883.892	22512
884.018	22565
884.143	22782
884.269	22862
884.395	22592
884.52	22421
884.646	22584
884.772	22295
884.897	22344
885.023	22535
885.148	22660
885.274	22527
885.399	22508
885.524	22508
885.65	22516
885.775	22371
885.9	22413
886.025	22557
886.15	22493
886.275	22554
886.4	22379
886.525	22375
886.65	22382
886.775	22402
886.9	22584
887.025	22706
887.149	22451
887.274	22405
887.399	22090
887.523	22253
887.648	22109
887.773	22086
887.897	22276
888.021	22124
888.146	22154
888.27	22299
888.395	22295
888.519	22226
888.643	22204
888.767	22325
888.891	22055
889.015	22090
889.139	21941
889.263	22036
889.387	22029
889.511	22246
889.635	22162
889.759	21964
889.883	21983
890.006	21934
890.13	22074
890.254	21926
890.377	21892
890.501	21797
890.624	21705
890.748	21789
890.871	21739
890.995	21603
891.118	21485
891.241	21606
891.364	21545
891.488	21652
891.611	21553
891.734	21473
891.857	21648
891.98	21500
892.103	21644
892.226	21667
892.349	21378
892.471	21332
892.594	21466
892.717	21473
892.839	21389
892.962	21294
893.085	21530
893.207	21481
893.33	21317
893.452	21226
893.575	21473
893.697	21431
893.819	21675
893.941	21572
894.064	21538
894.186	21370
894.308	21355
894.43	21633
894.552	21618
894.674	21534
894.796	21291
894.918	21329
895.04	21424
895.161	21523
895.283	21462
895.405	21351
895.526	21431
895.648	21488
895.769	21351
895.891	21416
896.012	21492
896.134	21466
896.255	21473
896.376	21325
896.498	21412
896.619	21348
896.74	21428
896.861	21431
896.982	21743
897.103	21831
897.224	21720
897.345	21648
897.466	21481
897.587	21523
897.708	21713
897.828	21568
897.949	21625
898.07	21450
898.19	21458
898.311	21625
898.431	21496
898.552	21595
898.672	21656
898.792	21701
898.913	21549
899.033	21485
899.153	21504
899.273	21317
899.393	21252
899.513	21405
899.633	21386
899.753	21336
899.873	21211
899.993	21458
900.113	21298
900.232	21298
900.352	21157
900.472	21154
900.591	20998
900.711	21195
900.83	20941
900.95	21176
901.069	21214
901.189	20899
901.308	20762
901.427	20663
901.546	20564
901.665	20686
901.784	20655
901.904	20598
902.023	20446
902.141	20233
902.26	20275
902.379	20286
902.498	20187
902.617	20008
902.735	20202
902.854	20145
902.973	19997
903.091	19807
903.21	19814
903.328	19871
903.446	19715
903.565	19590
903.683	19495
903.801	19499
903.919	19430
904.038	19480
904.156	19377
904.274	19438
904.392	19312
904.51	19282
904.627	19335
904.745	19312
904.863	19304
904.981	19194
905.098	19027
905.216	19145
905.334	19008
905.451	19023
905.569	19027
905.686	19046
905.803	19095
905.921	18745
906.038	19019
906.155	18810
906.272	18753
906.389	18616
906.506	18582
906.623	18642
906.74	18566
906.857	18464
906.974	18361
907.091	18696
907.208	18669
907.324	18566
907.441	18277
907.557	18277
907.674	18235
907.79	18239
907.907	18304
908.023	18197
908.139	18251
908.256	18228
908.372	18148
908.488	18068
908.604	18095
908.72	17961
908.836	18026
908.952	17901
909.068	18030
909.184	17996
909.3	17977
909.415	17973
909.531	17897
909.647	17695
909.762	17653
909.878	17611
909.993	17604
910.108	17642
910.224	17608
910.339	17604
910.454	17505
910.57	17459
910.685	17429
910.8	17714
910.915	17638
911.03	17512
911.145	17292
911.259	17216
911.374	17261
911.489	17132
911.604	17166
911.718	16915
911.833	17048
911.947	16915
912.062	16847
912.176	17052
912.291	17075
912.405	16976
912.519	17143
912.633	17117
912.748	17113
912.862	16987
912.976	16801
913.09	16645
913.204	16698
913.318	16778
913.431	16892
913.545	16793
913.659	16824
913.772	16694
913.886	16577
914	16569
914.113	16672
914.226	16573
914.34	16596
914.453	16409
914.566	16554
914.68	16459
914.793	16356
914.906	16261
915.019	16112
915.132	16093
915.245	16188
915.358	16112
915.47	16173
915.583	16097
915.696	16109
915.809	16219
915.921	16291
916.034	16055
916.146	16032
916.259	16029
916.371	16112
916.483	16010
916.595	15926
916.708	16074
916.82	15911
916.932	15812
917.044	15892
917.156	15884
917.268	15793
917.38	15819
917.491	15717
917.603	15648
917.715	15690
917.826	15846
917.938	15667
918.049	15629
918.161	15648
918.272	15816
918.384	15774
918.495	15648
918.606	15458
918.717	15504
918.828	15576
918.939	15420
919.05	15317
919.161	15393
919.272	15294
919.383	15306
919.494	15428
919.604	15835
919.715	15374
919.826	15245
919.936	15408
920.047	15557
920.157	15515
920.267	15568
920.378	15458
920.488	15485
920.598	15663
920.708	15766
920.818	15580
920.928	15595
921.038	15682
921.148	15614
921.258	15393
921.368	15367
921.477	15157
921.587	15135
921.697	15104
921.806	15020
921.916	14975
922.025	14804
922.134	14693
922.244	14651
922.353	14712
922.462	14712
922.571	14629
922.68	14469
922.789	14415
922.898	14377
923.007	14324
923.116	14473
923.224	14404
923.333	14343
923.442	14347
923.55	14248
923.659	14183
923.767	14301
923.876	14119
923.984	14343
924.092	14058
924.201	14115
924.309	14164
924.417	14111
924.525	14111
924.633	14077
924.741	14979
924.849	13871
924.956	13947
925.064	13776
925.172	13677
925.279	13822
925.387	13753
925.494	13791
925.602	13849
925.709	13932
925.816	13712
925.924	13624
926.031	13674
926.138	13807
926.245	13818
926.352	13578
926.459	13765
926.566	13674
926.673	13514
926.779	13533
926.886	13521
926.993	13297
927.099	13282
927.206	13198
927.312	13206
927.419	13434
927.525	13240
927.631	13301
927.737	13149
927.843	13206
927.95	12989
928.056	13084
928.162	13110
928.267	13270
928.373	13753
928.479	13232
928.585	12973
928.69	13061
928.796	13095
928.901	12932
929.007	12909
929.112	12920
929.218	12878
929.323	12871
929.428	12875
929.533	12848
929.638	12844
929.743	12810
929.848	12833
929.953	12806
930.058	12677
930.163	12479
930.267	12528
930.372	12639
930.477	12509
930.581	12681
930.685	12563
930.79	12365
930.894	12437
930.998	12365
931.103	12456
931.207	12133
931.311	12076
931.415	11980
931.519	11710
931.623	11752
