Data from test_V78500241_2427.txt Node
Date: Fri Mar 25 15:58:36 CST 2022
User: usil
Spectrometer: V785-0024
Trigger mode: 0
Integration Time (sec): 4.000000E-1
Scans to average: 1
Nonlinearity correction enabled: false
Boxcar width: 0
Storing dark spectrum: false
XAxis mode: Wavelengths
Number of Pixels in Spectrum: 1024
>>>>>Begin Spectral Data<<<<<
801.071	28554
801.214	28634
801.356	28272
801.499	28360
801.641	28185
801.783	28188
801.926	28306
802.068	28124
802.211	28032
802.353	28051
802.496	27819
802.638	27914
802.78	27846
802.923	27819
803.065	27709
803.208	27679
803.35	27880
803.492	28059
803.635	28112
803.777	28036
803.919	28082
804.061	28565
804.204	28135
804.346	28051
804.488	27953
804.63	28139
804.773	28150
804.915	28181
805.057	28177
805.199	28101
805.341	28169
805.483	28219
805.626	28181
805.768	28135
805.91	28253
806.052	28303
806.194	28109
806.336	28485
806.478	28128
806.62	28223
806.762	28306
806.904	28523
807.046	28713
807.188	28550
807.33	28755
807.472	28866
807.614	28748
807.756	28744
807.898	28664
808.04	28451
808.182	28527
808.324	28424
808.465	28622
808.607	28729
808.749	29041
808.891	29075
809.033	29105
809.174	28934
809.316	28923
809.458	28908
809.6	28862
809.741	29044
809.883	29117
810.025	29208
810.166	29261
810.308	29258
810.45	29200
810.591	29006
810.733	28927
810.875	28946
811.016	28835
811.158	28881
811.299	28987
811.441	29052
811.582	29200
811.724	28980
811.865	28976
812.007	29006
812.148	28858
812.29	28869
812.431	29117
812.573	29250
812.714	29277
812.855	29448
812.997	29558
813.138	29752
813.279	29482
813.421	29455
813.562	29398
813.703	29330
813.845	29098
813.986	28949
814.127	28786
814.268	28626
814.41	28649
814.551	28542
814.692	28596
814.833	28630
814.974	28637
815.115	28797
815.256	28637
815.397	28371
815.539	28565
815.68	28443
815.821	28246
815.962	28474
816.103	28542
816.244	28382
816.385	28276
816.526	28261
816.666	27911
816.807	27956
816.948	28055
817.089	28040
817.23	27979
817.371	27766
817.512	28002
817.653	28006
817.793	28067
817.934	27979
818.075	28032
818.216	27922
818.356	27975
818.497	27892
818.638	27644
818.778	27648
818.919	27732
819.06	27819
819.2	27842
819.341	28010
819.481	27831
819.622	28036
819.762	28276
819.903	28128
820.043	28200
820.184	28188
820.324	28116
820.465	28070
820.605	28025
820.746	27979
820.886	27941
821.026	28029
821.167	28109
821.307	28082
821.447	27926
821.588	27846
821.728	27739
821.868	27572
822.008	27405
822.149	27492
822.289	27431
822.429	27142
822.569	27081
822.709	27077
822.849	26982
822.99	26956
823.13	26982
823.27	26868
823.41	26781
823.55	26617
823.69	26720
823.83	26788
823.97	26777
824.11	26697
824.25	26450
824.389	26469
824.529	26701
824.669	26549
824.809	26640
824.949	26625
825.089	26659
825.228	26644
825.368	26442
825.508	26484
825.648	26396
825.787	26488
825.927	26488
826.067	26533
826.206	26324
826.346	26465
826.485	26533
826.625	26533
826.765	26537
826.904	26575
827.044	26210
827.183	26168
827.323	26187
827.462	26286
827.601	26313
827.741	26244
827.88	26282
828.02	26065
828.159	26221
828.298	26263
828.437	26240
828.577	26161
828.716	26252
828.855	26016
828.994	25803
829.134	25917
829.273	25963
829.412	25826
829.551	25708
829.69	26012
829.829	25818
829.968	25837
830.107	25955
830.246	25818
830.385	25799
830.524	25746
830.663	25693
830.802	25548
830.941	25571
831.08	25449
831.219	25506
831.357	25696
831.496	25624
831.635	25521
831.774	25476
831.913	25457
832.051	25213
832.19	25331
832.329	25369
832.467	25156
832.606	25053
832.744	25126
832.883	25145
833.022	25145
833.16	25095
833.299	25107
833.437	25339
833.576	25148
833.714	25297
833.852	25209
833.991	25080
834.129	25244
834.267	25175
834.406	25164
834.544	25202
834.682	25194
834.821	25183
834.959	25384
835.097	25141
835.235	25141
835.373	25301
835.511	25179
835.65	25050
835.788	25137
835.926	24992
836.064	24783
836.202	24977
836.34	25042
836.478	25072
836.615	24894
836.753	24875
836.891	25046
837.029	25095
837.167	24943
837.305	24882
837.443	24996
837.58	24848
837.718	24829
837.856	24795
837.993	24711
838.131	24692
838.269	24783
838.406	24825
838.544	24589
838.681	24540
838.819	24521
838.956	24308
839.094	24235
839.231	24410
839.369	24422
839.506	24806
839.643	24429
839.781	24350
839.918	24357
840.055	24270
840.193	24235
840.33	24224
840.467	24266
840.604	24182
840.742	24505
840.879	24034
841.016	24144
841.153	24095
841.29	24296
841.427	24220
841.564	24258
841.701	24262
841.838	24186
841.975	24201
842.112	24121
842.249	24007
842.385	23950
842.522	24209
842.659	24083
842.796	23935
842.933	24068
843.069	23916
843.206	23920
843.343	23965
843.479	23961
843.616	24049
843.752	23901
843.889	23790
844.025	23961
844.162	23847
844.298	24011
844.435	23999
844.571	23783
844.708	23741
844.844	23824
844.98	23859
845.117	23893
845.253	23570
845.389	23512
845.525	23611
845.661	23535
845.798	23554
845.934	23478
846.07	23463
846.206	23497
846.342	23528
846.478	23497
846.614	23197
846.75	23124
846.886	23083
847.022	23235
847.158	23185
847.294	23318
847.429	23307
847.565	23155
847.701	23345
847.837	22896
847.972	22930
848.108	23048
848.244	23022
848.379	22824
848.515	22786
848.65	22713
848.786	22915
848.921	22793
849.057	22908
849.192	22854
849.328	22850
849.463	22717
849.598	22843
849.734	22675
849.869	22713
850.004	22565
850.14	22470
850.275	22527
850.41	22371
850.545	22417
850.68	22561
850.815	22698
850.95	22527
851.085	22824
851.22	22702
851.355	22634
851.49	22573
851.625	22535
851.76	22428
851.895	22398
852.03	22599
852.165	22542
852.299	22584
852.434	22542
852.569	22584
852.703	22466
852.838	22634
852.973	22725
853.107	22512
853.242	22443
853.376	22344
853.511	22318
853.645	22325
853.78	22462
853.914	22352
854.048	22432
854.183	22360
854.317	22424
854.451	22664
854.585	22436
854.72	22398
854.854	22523
854.988	22405
855.122	22390
855.256	22291
855.39	22375
855.524	22402
855.658	22344
855.792	22417
855.926	22329
856.06	22474
856.194	22542
856.327	22375
856.461	22363
856.595	22375
856.729	22478
856.862	22333
856.996	22344
857.13	22360
857.263	22402
857.397	22424
857.53	22341
857.664	22375
857.797	22386
857.931	22531
858.064	22352
858.197	22462
858.331	22337
858.464	22204
858.597	22166
858.731	22295
858.864	22409
858.997	22200
859.13	22394
859.263	22303
859.396	22523
859.529	22318
859.662	22329
859.795	22352
859.928	22417
860.061	22531
860.194	22557
860.327	22360
860.46	22470
860.592	22592
860.725	22542
860.858	22557
860.99	22287
861.123	22306
861.256	22253
861.388	22371
861.521	23105
861.653	22154
861.786	22139
861.918	22223
862.05	22363
862.183	22215
862.315	22310
862.447	22485
862.58	22215
862.712	22051
862.844	22097
862.976	22234
863.108	22101
863.24	22516
863.372	22006
863.504	22063
863.636	22078
863.768	22090
863.9	22074
864.032	22109
864.164	22105
864.296	22158
864.428	22207
864.559	22101
864.691	22109
864.823	22074
864.954	22166
865.086	22059
865.217	22002
865.349	22082
865.48	21903
865.612	21854
865.743	22063
865.875	21945
866.006	22010
866.137	22036
866.269	21964
866.4	21953
866.531	21888
866.662	21964
866.793	21873
866.924	21873
867.055	21785
867.186	21930
867.317	21926
867.448	21907
867.579	21884
867.71	21854
867.841	21823
867.972	21892
868.103	21922
868.233	21934
868.364	21842
868.495	22017
868.625	22306
868.756	22253
868.886	22067
869.017	22124
869.147	22162
869.278	22207
869.408	22082
869.539	22128
869.669	22215
869.799	22253
869.929	22284
870.06	22226
870.19	22432
870.32	22402
870.45	22577
870.58	22580
870.71	22607
870.84	22626
870.97	22508
871.1	22512
871.23	22698
871.36	22763
871.489	22615
871.619	22759
871.749	22744
871.879	22767
872.008	22942
872.138	22763
872.267	22702
872.397	22557
872.526	22554
872.656	22577
872.785	22592
872.915	22835
873.044	22790
873.173	22729
873.303	22946
873.432	22854
873.561	22820
873.69	22611
873.819	22679
873.948	22744
874.077	22774
874.206	22713
874.335	22679
874.464	22877
874.593	22930
874.722	22965
874.851	23052
874.979	23003
875.108	22987
875.237	22847
875.365	22839
875.494	23018
875.623	22972
875.751	23006
875.88	22889
876.008	23060
876.136	23079
876.265	23311
876.393	23516
876.521	23478
876.65	23379
876.778	23353
876.906	23379
877.034	23280
877.162	23372
877.29	23322
877.418	23436
877.546	23296
877.674	23246
877.802	23452
877.93	23303
878.058	23299
878.185	23212
878.313	23326
878.441	23277
878.568	23128
878.696	23204
878.824	23448
878.951	23520
879.079	23501
879.206	23695
879.333	23505
879.461	23284
879.588	23315
879.715	23402
879.842	23528
879.97	23383
880.097	23200
880.224	23197
880.351	23155
880.478	23090
880.605	23174
880.732	23033
880.859	23258
880.986	23189
881.112	23155
881.239	23105
881.366	22896
881.493	22843
881.619	22786
881.746	22702
881.872	22721
881.999	22592
882.125	22672
882.252	22672
882.378	22474
882.505	22778
882.631	22546
882.757	22379
882.883	22527
883.01	22348
883.136	22371
883.262	22276
883.388	22242
883.514	22329
883.64	22527
883.766	22234
883.892	22147
884.018	22101
884.143	22318
884.269	22485
884.395	22169
884.52	21899
884.646	22150
884.772	21895
884.897	21865
885.023	22101
885.148	22070
885.274	22185
885.399	22025
885.524	22055
885.65	22105
885.775	21945
885.9	22029
886.025	22169
886.15	22048
886.275	22105
886.4	21907
886.525	21956
886.65	22010
886.775	21838
886.9	22067
887.025	22177
887.149	22063
887.274	21854
887.399	21812
887.523	21766
887.648	21686
887.773	21717
887.897	21865
888.021	21846
888.146	21778
888.27	21846
888.395	21880
888.519	21720
888.643	21720
888.767	21838
888.891	21717
889.015	21606
889.139	21530
889.263	21481
889.387	21545
889.511	21728
889.635	21732
889.759	21561
889.883	21568
890.006	21583
890.13	21663
890.254	21447
890.377	21382
890.501	21233
890.624	21325
890.748	21348
890.871	21348
890.995	21131
891.118	21138
891.241	21142
891.364	21233
891.488	21260
891.611	21070
891.734	21085
891.857	21173
891.98	21119
892.103	21184
892.226	21112
892.349	21081
892.471	20990
892.594	21047
892.717	21096
892.839	20899
892.962	21070
893.085	21036
893.207	20918
893.33	20941
893.452	21013
893.575	20979
893.697	20883
893.819	21138
893.941	21062
894.064	21062
894.186	20994
894.308	20876
894.43	21093
894.552	21150
894.674	21081
894.796	20952
894.918	20944
895.04	20956
895.161	21013
895.283	20986
895.405	20937
895.526	20975
895.648	20941
895.769	20944
895.891	20979
896.012	21081
896.134	20979
896.255	20960
896.376	20891
896.498	20899
896.619	20853
896.74	20876
896.861	21055
896.982	21207
897.103	21389
897.224	21268
897.345	21214
897.466	21051
897.587	21062
897.708	21374
897.828	21245
897.949	21142
898.07	20937
898.19	20971
898.311	21203
898.431	21135
898.552	21154
898.672	21211
898.792	21154
898.913	21165
899.033	21020
899.153	20967
899.273	20754
899.393	20979
899.513	20895
899.633	20891
899.753	20956
899.873	20804
899.993	20925
900.113	20891
900.232	20872
900.352	20872
900.472	20648
900.591	20613
900.711	20678
900.83	20606
900.95	20689
901.069	20895
901.189	20507
901.308	20465
901.427	20237
901.546	20210
901.665	20221
901.784	20290
901.904	20050
902.023	19925
902.141	19947
902.26	19811
902.379	19890
902.498	19849
902.617	19670
902.735	19890
902.854	19685
902.973	19651
903.091	19415
903.21	19407
903.328	19438
903.446	19312
903.565	19187
903.683	19259
903.801	19072
903.919	19148
904.038	19168
904.156	19008
904.274	19095
904.392	19050
904.51	18993
904.627	19042
904.745	19000
904.863	18977
904.981	18840
905.098	18570
905.216	18703
905.334	18612
905.451	18719
905.569	18601
905.686	18608
905.803	18627
905.921	18509
906.038	18525
906.155	18471
906.272	18353
906.389	18304
906.506	18239
906.623	18205
906.74	18095
906.857	18079
906.974	18140
907.091	18330
907.208	18232
907.324	18216
907.441	18022
907.557	17878
907.674	17965
907.79	17775
907.907	17843
908.023	17893
908.139	17882
908.256	17805
908.372	17798
908.488	17729
908.604	17668
908.72	17566
908.836	17608
908.952	17520
909.068	17570
909.184	17741
909.3	17581
909.415	17589
909.531	17539
909.647	17155
909.762	17337
909.878	17208
909.993	17364
910.108	17231
910.224	17204
910.339	17239
910.454	17121
910.57	17064
910.685	16934
910.8	17345
910.915	17208
911.03	17041
911.145	16927
911.259	16862
911.374	16790
911.489	16824
911.604	16809
911.718	16660
911.833	16622
911.947	16538
912.062	16394
912.176	16599
912.291	16558
912.405	16516
912.519	16885
912.633	16793
912.748	16649
912.862	16596
912.976	16542
913.09	16310
913.204	16455
913.318	16440
913.431	16413
913.545	16417
913.659	16611
913.772	16386
913.886	16166
914	16200
914.113	16276
914.226	16371
914.34	16200
914.453	16036
914.566	16143
914.68	16086
914.793	16112
914.906	15861
915.019	15911
915.132	15762
915.245	15762
915.358	15797
915.47	15827
915.583	15785
915.696	15789
915.809	15892
915.921	15941
916.034	15816
916.146	15724
916.259	15724
916.371	15717
916.483	15755
916.595	15816
916.708	15701
916.82	15534
916.932	15515
917.044	15515
917.156	15507
917.268	15420
917.38	15466
917.491	15348
917.603	15447
917.715	15435
917.826	15507
917.938	15325
918.049	15268
918.161	15359
918.272	15447
918.384	15408
918.495	15237
918.606	15218
918.717	15112
918.828	15161
918.939	15203
919.05	15062
919.161	15074
919.272	14906
919.383	15047
919.494	15123
919.604	15389
919.715	15127
919.826	15199
919.936	15180
920.047	15157
920.157	15142
920.267	15283
920.378	15119
920.488	15135
920.598	15226
920.708	15424
920.818	15275
920.928	15256
921.038	15370
921.148	15382
921.258	15017
921.368	14948
921.477	14891
921.587	14792
921.697	14701
921.806	14765
921.916	14731
922.025	14590
922.134	14343
922.244	14442
922.353	14511
922.462	14305
922.571	14294
922.68	14073
922.789	14096
922.898	14092
923.007	14043
923.116	14073
923.224	14115
923.333	14138
923.442	13951
923.55	13921
923.659	13864
923.767	13974
923.876	13849
923.984	13944
924.092	13811
924.201	13879
924.309	13833
924.417	13860
924.525	13849
924.633	13765
924.741	14423
924.849	13556
924.956	13689
925.064	13556
925.172	13449
925.279	13529
925.387	13544
925.494	13506
925.602	13636
925.709	13529
925.816	13339
925.924	13411
926.031	13563
926.138	13403
926.245	13419
926.352	13301
926.459	13457
926.566	13499
926.673	13362
926.779	13255
926.886	13274
926.993	13122
927.099	13065
927.206	12966
927.312	13031
927.419	13034
927.525	12981
927.631	13057
927.737	12909
927.843	12859
927.95	12688
928.056	12810
928.162	12878
928.267	12863
928.373	13613
928.479	12947
928.585	12707
928.69	12825
928.796	12825
928.901	12749
929.007	12532
929.112	12688
929.218	12646
929.323	12627
929.428	12528
929.533	12734
929.638	12502
929.743	12483
929.848	12551
929.953	12506
930.058	12467
930.163	12171
930.267	12232
930.372	12384
930.477	12228
930.581	12338
930.685	12323
930.79	12175
930.894	12117
930.998	12007
931.103	12258
931.207	11866
931.311	11714
931.415	11703
931.519	11554
931.623	11505
