Data from test_V78500241_3418.txt Node
Date: Fri Mar 25 16:05:28 CST 2022
User: usil
Spectrometer: V785-0024
Trigger mode: 0
Integration Time (sec): 4.000000E-1
Scans to average: 1
Nonlinearity correction enabled: false
Boxcar width: 0
Storing dark spectrum: false
XAxis mode: Wavelengths
Number of Pixels in Spectrum: 1024
>>>>>Begin Spectral Data<<<<<
801.071	28915
801.214	28831
801.356	28645
801.499	28596
801.641	28246
801.783	28523
801.926	28565
802.068	28371
802.211	28394
802.353	28337
802.496	28169
802.638	28074
802.78	28124
802.923	27998
803.065	27956
803.208	28093
803.35	28162
803.492	28211
803.635	28333
803.777	28265
803.919	28367
804.061	28717
804.204	28455
804.346	28215
804.488	28322
804.63	28398
804.773	28291
804.915	28413
805.057	28493
805.199	28504
805.341	28569
805.483	28519
805.626	28615
805.768	28466
805.91	28443
806.052	28599
806.194	28493
806.336	28683
806.478	28706
806.62	28656
806.762	28736
806.904	28900
807.046	29143
807.188	29025
807.33	29060
807.472	29212
807.614	28854
807.756	28938
807.898	29014
808.04	28862
808.182	28797
808.324	28984
808.465	28934
808.607	29200
808.749	29269
808.891	29296
809.033	29379
809.174	29303
809.316	29258
809.458	29296
809.6	29337
809.741	29482
809.883	29379
810.025	29535
810.166	29608
810.308	29668
810.45	29570
810.591	29337
810.733	29273
810.875	29246
811.016	29064
811.158	29181
811.299	29429
811.441	29444
811.582	29349
811.724	29417
811.865	29315
812.007	29220
812.148	29296
812.29	29444
812.431	29433
812.573	29581
812.714	29646
812.855	29874
812.997	29847
813.138	30007
813.279	30015
813.421	29710
813.562	29627
813.703	29718
813.845	29471
813.986	29269
814.127	29067
814.268	28995
814.41	28999
814.551	28984
814.692	29018
814.833	28999
814.974	28896
815.115	28953
815.256	28850
815.397	28938
815.539	28828
815.68	28831
815.821	28839
815.962	28881
816.103	28793
816.244	28634
816.385	28626
816.526	28752
816.666	28497
816.807	28314
816.948	28535
817.089	28497
817.23	28356
817.371	28390
817.512	28329
817.653	28261
817.793	28272
817.934	28257
818.075	28394
818.216	28363
818.356	28348
818.497	28223
818.638	28116
818.778	28112
818.919	28238
819.06	28074
819.2	28226
819.341	28329
819.481	28272
819.622	28489
819.762	28691
819.903	28603
820.043	28504
820.184	28500
820.324	28550
820.465	28683
820.605	28485
820.746	28436
820.886	28230
821.026	28443
821.167	28329
821.307	28398
821.447	28493
821.588	28287
821.728	28131
821.868	27945
822.008	27918
822.149	27774
822.289	27991
822.429	27545
822.569	27511
822.709	27450
822.849	27325
822.99	27332
823.13	27393
823.27	27427
823.41	27199
823.55	27108
823.69	27294
823.83	27203
823.97	27146
824.11	26906
824.25	26971
824.389	26887
824.529	27112
824.669	27028
824.809	27013
824.949	27058
825.089	27024
825.228	27058
825.368	26777
825.508	26849
825.648	26887
825.787	26948
825.927	26876
826.067	26914
826.206	26925
826.346	26982
826.485	26910
826.625	26842
826.765	27039
826.904	26857
827.044	26686
827.183	26815
827.323	26571
827.462	26667
827.601	26678
827.741	26461
827.88	26587
828.02	26476
828.159	26499
828.298	26617
828.437	26594
828.577	26545
828.716	26708
828.855	26453
828.994	26381
829.134	26218
829.273	26278
829.412	26240
829.551	26210
829.69	26358
829.829	26313
829.968	26320
830.107	26393
830.246	26256
830.385	26206
830.524	26248
830.663	26100
830.802	26088
830.941	25879
831.08	25837
831.219	25913
831.357	25982
831.496	26092
831.635	25906
831.774	25871
831.913	25681
832.051	25753
832.19	25666
832.329	25651
832.467	25559
832.606	25499
832.744	25537
832.883	25544
833.022	25597
833.16	25544
833.299	25586
833.437	25521
833.576	25586
833.714	25632
833.852	25700
833.991	25765
834.129	25639
834.267	25662
834.406	25685
834.544	25567
834.682	25575
834.821	25635
834.959	25761
835.097	25662
835.235	25677
835.373	25651
835.511	25628
835.65	25502
835.788	25559
835.926	25373
836.064	25179
836.202	25320
836.34	25407
836.478	25582
836.615	25422
836.753	25491
836.891	25563
837.029	25384
837.167	25453
837.305	25217
837.443	25255
837.58	25198
837.718	25270
837.856	25324
837.993	25320
838.131	25327
838.269	25206
838.406	25141
838.544	25027
838.681	24973
838.819	24829
838.956	24867
839.094	24681
839.231	24810
839.369	24920
839.506	25164
839.643	24954
839.781	24726
839.918	24719
840.055	24711
840.193	24791
840.33	24494
840.467	24688
840.604	24692
840.742	24814
840.879	24452
841.016	24627
841.153	24612
841.29	24791
841.427	24589
841.564	24620
841.701	24646
841.838	24703
841.975	24486
842.112	24532
842.249	24486
842.385	24426
842.522	24639
842.659	24540
842.796	24254
842.933	24418
843.069	24311
843.206	24323
843.343	24277
843.479	24418
843.616	24414
843.752	24167
843.889	24159
844.025	24334
844.162	24266
844.298	24213
844.435	24232
844.571	24178
844.708	24213
844.844	24403
844.98	24304
845.117	24190
845.253	24152
845.389	24079
845.525	24064
845.661	24095
845.798	23889
845.934	24034
846.07	23866
846.206	24007
846.342	24079
846.478	23984
846.614	23855
846.75	23509
846.886	23642
847.022	23695
847.158	23733
847.294	23726
847.429	23680
847.565	23653
847.701	23828
847.837	23448
847.972	23383
848.108	23452
848.244	23543
848.379	23239
848.515	23296
848.65	23174
848.786	23235
848.921	23181
849.057	23364
849.192	23318
849.328	23208
849.463	23181
849.598	23090
849.734	22991
849.869	22995
850.004	23037
850.14	22923
850.275	23044
850.41	22820
850.545	22892
850.68	22927
850.815	23056
850.95	22862
851.085	23086
851.22	23185
851.355	23067
851.49	22923
851.625	22984
851.76	22873
851.895	22904
852.03	23006
852.165	22976
852.299	23041
852.434	23113
852.569	23006
852.703	22999
852.838	23098
852.973	23071
853.107	23117
853.242	23044
853.376	22915
853.511	22679
853.645	22717
853.78	22843
853.914	22786
854.048	22755
854.183	22900
854.317	22957
854.451	22896
854.585	22854
854.72	22805
854.854	22919
854.988	22763
855.122	22782
855.256	22653
855.39	22915
855.524	22877
855.658	22752
855.792	22790
855.926	22790
856.06	22801
856.194	22885
856.327	22653
856.461	22752
856.595	22706
856.729	22786
856.862	22991
856.996	22892
857.13	22923
857.263	22850
857.397	22873
857.53	22793
857.664	22854
857.797	22938
857.931	22877
858.064	22793
858.197	23022
858.331	22759
858.464	22656
858.597	22763
858.731	22744
858.864	22801
858.997	22752
859.13	22767
859.263	22835
859.396	22755
859.529	22797
859.662	22702
859.795	22733
859.928	22938
860.061	22957
860.194	22972
860.327	22839
860.46	22854
860.592	22911
860.725	22923
860.858	22896
860.99	22942
861.123	22771
861.256	22710
861.388	22938
861.521	23501
861.653	22713
861.786	22538
861.918	22634
862.05	22717
862.183	22744
862.315	22793
862.447	22858
862.58	22752
862.712	22580
862.844	22481
862.976	22641
863.108	22516
863.24	22797
863.372	22519
863.504	22481
863.636	22565
863.768	22527
863.9	22497
864.032	22413
864.164	22489
864.296	22462
864.428	22546
864.559	22470
864.691	22550
864.823	22470
864.954	22489
865.086	22367
865.217	22318
865.349	22451
865.48	22363
865.612	22409
865.743	22615
865.875	22371
866.006	22276
866.137	22390
866.269	22451
866.4	22348
866.531	22295
866.662	22367
866.793	22325
866.924	22272
867.055	22386
867.186	22314
867.317	22234
867.448	22253
867.579	22257
867.71	22192
867.841	22196
867.972	22367
868.103	22253
868.233	22337
868.364	22188
868.495	22508
868.625	22596
868.756	22706
868.886	22470
869.017	22569
869.147	22550
869.278	22622
869.408	22573
869.539	22470
869.669	22634
869.799	22672
869.929	22713
870.06	22691
870.19	22915
870.32	22805
870.45	22896
870.58	22877
870.71	23124
870.84	23124
870.97	22930
871.1	23033
871.23	23083
871.36	23151
871.489	23018
871.619	23102
871.749	23117
871.879	23079
872.008	23170
872.138	23044
872.267	23170
872.397	22995
872.526	23037
872.656	22942
872.785	22923
872.915	23128
873.044	23162
873.173	23170
873.303	23124
873.432	23258
873.561	23220
873.69	23200
873.819	23254
873.948	23147
874.077	23216
874.206	23113
874.335	23212
874.464	23239
874.593	23433
874.722	23356
874.851	23406
874.979	23341
875.108	23486
875.237	23501
875.365	23155
875.494	23349
875.623	23349
875.751	23364
875.88	23417
876.008	23459
876.136	23398
876.265	23748
876.393	23866
876.521	23859
876.65	23786
876.778	23802
876.906	23760
877.034	23668
877.162	23619
877.29	23562
877.418	23687
877.546	23802
877.674	23737
877.802	23737
877.93	23695
878.058	23623
878.185	23554
878.313	23718
878.441	23714
878.568	23570
878.696	23611
878.824	23729
878.951	23817
879.079	23908
879.206	23984
879.333	23809
879.461	23729
879.588	23779
879.715	23958
879.842	23939
879.97	23695
880.097	23474
880.224	23596
880.351	23585
880.478	23467
880.605	23608
880.732	23596
880.859	23771
880.986	23543
881.112	23592
881.239	23334
881.366	23181
881.493	23086
881.619	23166
881.746	23098
881.872	23124
881.999	23044
882.125	23071
882.252	23174
882.378	22911
882.505	23197
882.631	23003
882.757	22858
882.883	22873
883.01	22854
883.136	22710
883.262	22626
883.388	22683
883.514	22702
883.64	22816
883.766	22694
883.892	22561
884.018	22557
884.143	22622
884.269	22691
884.395	22455
884.52	22443
884.646	22409
884.772	22348
884.897	22284
885.023	22409
885.148	22519
885.274	22580
885.399	22565
885.524	22348
885.65	22409
885.775	22462
885.9	22432
886.025	22432
886.15	22561
886.275	22306
886.4	22402
886.525	22375
886.65	22398
886.775	22356
886.9	22436
887.025	22683
887.149	22409
887.274	22147
887.399	22124
887.523	22147
887.648	22055
887.773	22196
887.897	22341
888.021	22196
888.146	22181
888.27	22257
888.395	22204
888.519	22188
888.643	22192
888.767	22173
888.891	22013
889.015	21930
889.139	22048
889.263	21819
889.387	22097
889.511	22063
889.635	22074
889.759	21979
889.883	21934
890.006	21975
890.13	21937
890.254	21873
890.377	21945
890.501	21705
890.624	21694
890.748	21709
890.871	21701
890.995	21557
891.118	21370
891.241	21492
891.364	21496
891.488	21576
891.611	21564
891.734	21557
891.857	21549
891.98	21542
892.103	21523
892.226	21545
892.349	21344
892.471	21298
892.594	21447
892.717	21401
892.839	21291
892.962	21329
893.085	21435
893.207	21500
893.33	21218
893.452	21325
893.575	21488
893.697	21393
893.819	21515
893.941	21500
894.064	21401
894.186	21389
894.308	21355
894.43	21496
894.552	21660
894.674	21473
894.796	21287
894.918	21348
895.04	21348
895.161	21466
895.283	21367
895.405	21272
895.526	21393
895.648	21367
895.769	21420
895.891	21454
896.012	21424
896.134	21462
896.255	21416
896.376	21408
896.498	21313
896.619	21466
896.74	21473
896.861	21378
896.982	21713
897.103	21831
897.224	21481
897.345	21572
897.466	21462
897.587	21534
897.708	21713
897.828	21553
897.949	21553
898.07	21462
898.19	21504
898.311	21545
898.431	21496
898.552	21614
898.672	21583
898.792	21694
898.913	21618
899.033	21523
899.153	21378
899.273	21294
899.393	21241
899.513	21321
899.633	21306
899.753	21370
899.873	21298
899.993	21207
900.113	21165
900.232	21279
900.352	21138
900.472	21070
900.591	21074
900.711	21169
900.83	20921
900.95	21077
901.069	21039
901.189	20883
901.308	20693
901.427	20674
901.546	20632
901.665	20625
901.784	20518
901.904	20526
902.023	20385
902.141	20195
902.26	20199
902.379	20218
902.498	20187
902.617	20122
902.735	20027
902.854	20161
902.973	20134
903.091	19871
903.21	19807
903.328	19769
903.446	19753
903.565	19632
903.683	19613
903.801	19556
903.919	19464
904.038	19529
904.156	19426
904.274	19491
904.392	19308
904.51	19278
904.627	19369
904.745	19358
904.863	19346
904.981	19164
905.098	18943
905.216	18894
905.334	19137
905.451	19008
905.569	18935
905.686	19072
905.803	18859
905.921	18837
906.038	18810
906.155	18806
906.272	18646
906.389	18684
906.506	18525
906.623	18578
906.74	18544
906.857	18532
906.974	18414
907.091	18703
907.208	18574
907.324	18407
907.441	18369
907.557	18346
907.674	18266
907.79	18209
907.907	18087
908.023	18266
908.139	18266
908.256	18064
908.372	18053
908.488	18068
908.604	17950
908.72	17878
908.836	17889
908.952	17855
909.068	17992
909.184	17977
909.3	17992
909.415	17866
909.531	17950
909.647	17729
909.762	17528
909.878	17566
909.993	17528
910.108	17661
910.224	17463
910.339	17589
910.454	17486
910.57	17425
910.685	17216
910.8	17638
910.915	17589
911.03	17372
911.145	17280
911.259	17250
911.374	17136
911.489	17174
911.604	17147
911.718	16991
911.833	16965
911.947	16782
912.062	16801
912.176	16889
912.291	16900
912.405	16904
912.519	17170
912.633	17117
912.748	17003
912.862	16854
912.976	16679
913.09	16717
913.204	16717
913.318	16778
913.431	16873
913.545	16835
913.659	16889
913.772	16778
913.886	16660
914	16561
914.113	16596
914.226	16607
914.34	16596
914.453	16257
914.566	16558
914.68	16386
914.793	16417
914.906	16188
915.019	16150
915.132	16063
915.245	16040
915.358	16188
915.47	16166
915.583	16071
915.696	16071
915.809	16192
915.921	16093
916.034	15987
916.146	15960
916.259	16010
916.371	16082
916.483	16048
916.595	15937
916.708	15895
916.82	15869
916.932	15812
917.044	15823
917.156	15895
917.268	15819
917.38	15724
917.491	15698
917.603	15717
917.715	15808
917.826	15759
917.938	15599
918.049	15584
918.161	15652
918.272	15751
918.384	15717
918.495	15625
918.606	15473
918.717	15412
918.828	15504
918.939	15397
919.05	15329
919.161	15534
919.272	15272
919.383	15340
919.494	15450
919.604	15606
919.715	15450
919.826	15477
919.936	15412
920.047	15507
920.157	15435
920.267	15610
920.378	15447
920.488	15359
920.598	15504
920.708	15652
920.818	15519
920.928	15534
921.038	15606
921.148	15717
921.258	15393
921.368	15195
921.477	15203
921.587	15058
921.697	15028
921.806	15157
921.916	14944
922.025	14868
922.134	14746
922.244	14663
922.353	14811
922.462	14632
922.571	14480
922.68	14434
922.789	14480
922.898	14362
923.007	14358
923.116	14404
923.224	14385
923.333	14336
923.442	14301
923.55	14290
923.659	14206
923.767	14332
923.876	14005
923.984	14180
924.092	13997
924.201	14142
924.309	14161
924.417	14084
924.525	14005
924.633	13970
924.741	14921
924.849	13814
924.956	13947
925.064	13856
925.172	13704
925.279	13689
925.387	13761
925.494	13658
925.602	13868
925.709	13788
925.816	13639
925.924	13670
926.031	13799
926.138	13674
926.245	13666
926.352	13624
926.459	13685
926.566	13727
926.673	13628
926.779	13544
926.886	13491
926.993	13407
927.099	13316
927.206	13316
927.312	13164
927.419	13270
927.525	13396
927.631	13301
927.737	13217
927.843	13183
927.95	13023
928.056	13190
928.162	13145
928.267	13069
928.373	13765
928.479	13190
928.585	12913
928.69	12966
928.796	13065
928.901	12981
929.007	12859
929.112	12932
929.218	12951
929.323	12863
929.428	12848
929.533	12909
929.638	12703
929.743	12741
929.848	12779
929.953	12867
930.058	12684
930.163	12528
930.267	12544
930.372	12585
930.477	12407
930.581	12604
930.685	12521
930.79	12376
930.894	12350
930.998	12239
931.103	12448
931.207	11954
931.311	11984
931.415	11908
931.519	11726
931.623	11672
