Data from test_V78500241_2692.txt Node
Date: Fri Mar 25 16:00:26 CST 2022
User: usil
Spectrometer: V785-0024
Trigger mode: 0
Integration Time (sec): 4.000000E-1
Scans to average: 1
Nonlinearity correction enabled: false
Boxcar width: 0
Storing dark spectrum: false
XAxis mode: Wavelengths
Number of Pixels in Spectrum: 1024
>>>>>Begin Spectral Data<<<<<
801.071	28725
801.214	28641
801.356	28337
801.499	28500
801.641	28466
801.783	28341
801.926	28493
802.068	28253
802.211	28363
802.353	28333
802.496	28200
802.638	28162
802.78	28070
802.923	27956
803.065	27854
803.208	27998
803.35	28063
803.492	28124
803.635	28150
803.777	28112
803.919	28223
804.061	28538
804.204	28226
804.346	28253
804.488	28055
804.63	28325
804.773	28230
804.915	28234
805.057	28401
805.199	28211
805.341	28306
805.483	28424
805.626	28462
805.768	28390
805.91	28398
806.052	28531
806.194	28318
806.336	28588
806.478	28398
806.62	28462
806.762	28470
806.904	28599
807.046	29025
807.188	28892
807.33	28847
807.472	28946
807.614	28710
807.756	28938
807.898	28691
808.04	28660
808.182	28664
808.324	28786
808.465	28771
808.607	28953
808.749	29242
808.891	29181
809.033	29090
809.174	29239
809.316	29284
809.458	29147
809.6	28999
809.741	29212
809.883	29239
810.025	29528
810.166	29436
810.308	29391
810.45	29444
810.591	29292
810.733	29140
810.875	29071
811.016	29124
811.158	28949
811.299	29166
811.441	29299
811.582	29143
811.724	29105
811.865	29254
812.007	29140
812.148	29029
812.29	29143
812.431	29379
812.573	29551
812.714	29570
812.855	29539
812.997	29741
813.138	29794
813.279	29691
813.421	29646
813.562	29493
813.703	29372
813.845	29372
813.986	29052
814.127	28900
814.268	28923
814.41	28854
814.551	28869
814.692	28900
814.833	28850
814.974	28626
815.115	28881
815.256	28774
815.397	28664
815.539	28717
815.68	28683
815.821	28622
815.962	28618
816.103	28683
816.244	28550
816.385	28356
816.526	28303
816.666	28287
816.807	28063
816.948	28226
817.089	28325
817.23	28128
817.371	28101
817.512	28090
817.653	28105
817.793	28093
817.934	28150
818.075	28112
818.216	28150
818.356	28093
818.497	28040
818.638	27816
818.778	27930
818.919	27816
819.06	27949
819.2	27949
819.341	28272
819.481	28226
819.622	28226
819.762	28497
819.903	28478
820.043	28322
820.184	28329
820.324	28318
820.465	28322
820.605	28318
820.746	28215
820.886	28082
821.026	28268
821.167	28200
821.307	28318
821.447	28154
821.588	27930
821.728	28051
821.868	27842
822.008	27679
822.149	27671
822.289	27660
822.429	27504
822.569	27389
822.709	27233
822.849	27062
822.99	27112
823.13	27013
823.27	27119
823.41	26956
823.55	26689
823.69	27017
823.83	26891
823.97	26876
824.11	26754
824.25	26826
824.389	26762
824.529	26842
824.669	26746
824.809	26967
824.949	26845
825.089	26804
825.228	26845
825.368	26579
825.508	26644
825.648	26682
825.787	26769
825.927	26621
826.067	26564
826.206	26731
826.346	26720
826.485	26667
826.625	26590
826.765	26739
826.904	26632
827.044	26461
827.183	26419
827.323	26355
827.462	26358
827.601	26431
827.741	26301
827.88	26450
828.02	26309
828.159	26511
828.298	26305
828.437	26484
828.577	26317
828.716	26419
828.855	26252
828.994	25997
829.134	26054
829.273	26016
829.412	26126
829.551	25963
829.69	25902
829.829	26065
829.968	26027
830.107	26187
830.246	26077
830.385	25947
830.524	25902
830.663	25894
830.802	25818
830.941	25540
831.08	25639
831.219	25719
831.357	25685
831.496	25898
831.635	25635
831.774	25544
831.913	25472
832.051	25468
832.19	25514
832.329	25460
832.467	25388
832.606	25312
832.744	25324
832.883	25350
833.022	25236
833.16	25316
833.299	25350
833.437	25373
833.576	25384
833.714	25411
833.852	25476
833.991	25400
834.129	25540
834.267	25415
834.406	25289
834.544	25339
834.682	25499
834.821	25407
834.959	25616
835.097	25346
835.235	25441
835.373	25434
835.511	25411
835.65	25365
835.788	25343
835.926	25114
836.064	24928
836.202	25053
836.34	25228
836.478	25426
836.615	25213
836.753	25247
836.891	25308
837.029	25179
837.167	25107
837.305	25050
837.443	25129
837.58	24943
837.718	25038
837.856	25141
837.993	24943
838.131	24932
838.269	24916
838.406	25015
838.544	24802
838.681	24627
838.819	24787
838.956	24486
839.094	24597
839.231	24585
839.369	24764
839.506	24920
839.643	24726
839.781	24426
839.918	24448
840.055	24346
840.193	24559
840.33	24475
840.467	24494
840.604	24407
840.742	24665
840.879	24243
841.016	24361
841.153	24338
841.29	24612
841.427	24445
841.564	24498
841.701	24365
841.838	24311
841.975	24304
842.112	24300
842.249	24197
842.385	24285
842.522	24239
842.659	24357
842.796	24254
842.933	24159
843.069	24114
843.206	24197
843.343	24224
843.479	24136
843.616	24205
843.752	24018
843.889	24038
844.025	24167
844.162	23847
844.298	24091
844.435	23980
844.571	23950
844.708	23946
844.844	24110
844.98	24106
845.117	23954
845.253	23843
845.389	23805
845.525	23843
845.661	23863
845.798	23646
845.934	23813
846.07	23646
846.206	23615
846.342	23946
846.478	23710
846.614	23436
846.75	23391
846.886	23284
847.022	23436
847.158	23395
847.294	23448
847.429	23391
847.565	23334
847.701	23718
847.837	23041
847.972	23185
848.108	23147
848.244	23113
848.379	22938
848.515	22927
848.65	22976
848.786	22991
848.921	22927
849.057	23060
849.192	23037
849.328	23003
849.463	22984
849.598	22961
849.734	22930
849.869	22862
850.004	22801
850.14	22797
850.275	22740
850.41	22691
850.545	22679
850.68	22622
850.815	22725
850.95	22763
851.085	22930
851.22	22927
851.355	22790
851.49	22702
851.625	22729
851.76	22771
851.895	22679
852.03	22599
852.165	22687
852.299	22820
852.434	22820
852.569	22702
852.703	22790
852.838	22801
852.973	22862
853.107	22820
853.242	22892
853.376	22656
853.511	22322
853.645	22519
853.78	22645
853.914	22584
854.048	22550
854.183	22489
854.317	22634
854.451	22896
854.585	22656
854.72	22527
854.854	22599
854.988	22413
855.122	22546
855.256	22474
855.39	22660
855.524	22622
855.658	22603
855.792	22546
855.926	22546
856.06	22675
856.194	22615
856.327	22565
856.461	22497
856.595	22447
856.729	22641
856.862	22634
856.996	22679
857.13	22653
857.263	22702
857.397	22645
857.53	22497
857.664	22523
857.797	22664
857.931	22729
858.064	22531
858.197	22691
858.331	22500
858.464	22493
858.597	22405
858.731	22485
858.864	22493
858.997	22569
859.13	22519
859.263	22538
859.396	22672
859.529	22516
859.662	22512
859.795	22538
859.928	22592
860.061	22683
860.194	22744
860.327	22634
860.46	22542
860.592	22672
860.725	22755
860.858	22786
860.99	22607
861.123	22424
861.256	22557
861.388	22577
861.521	23273
861.653	22402
861.786	22272
861.918	22375
862.05	22478
862.183	22531
862.315	22493
862.447	22497
862.58	22474
862.712	22253
862.844	22303
862.976	22287
863.108	22280
863.24	22687
863.372	22188
863.504	22325
863.636	22276
863.768	22276
863.9	22234
864.032	22261
864.164	22238
864.296	22265
864.428	22485
864.559	22265
864.691	22356
864.823	22272
864.954	22284
865.086	22234
865.217	22200
865.349	22044
865.48	22131
865.612	22116
865.743	22322
865.875	22257
866.006	22051
866.137	22276
866.269	22158
866.4	22109
866.531	22097
866.662	22074
866.793	22086
866.924	22002
867.055	22067
867.186	22139
867.317	21979
867.448	22082
867.579	22055
867.71	22021
867.841	22025
867.972	22051
868.103	22105
868.233	22112
868.364	22086
868.495	22181
868.625	22413
868.756	22546
868.886	22287
869.017	22375
869.147	22428
869.278	22428
869.408	22303
869.539	22303
869.669	22394
869.799	22242
869.929	22333
870.06	22497
870.19	22744
870.32	22622
870.45	22626
870.58	22725
870.71	22782
870.84	22660
870.97	22618
871.1	22710
871.23	22885
871.36	22866
871.489	22782
871.619	22957
871.749	22831
871.879	23010
872.008	22946
872.138	22938
872.267	22885
872.397	22809
872.526	22801
872.656	22763
872.785	22660
872.915	22839
873.044	23018
873.173	22953
873.303	23037
873.432	23025
873.561	23181
873.69	22927
873.819	22908
873.948	22911
874.077	22892
874.206	22957
874.335	22877
874.464	23029
874.593	23155
874.722	23033
874.851	23231
874.979	23132
875.108	23197
875.237	23105
875.365	23044
875.494	23064
875.623	23258
875.751	23105
875.88	23151
876.008	23185
876.136	23345
876.265	23592
876.393	23661
876.521	23554
876.65	23608
876.778	23471
876.906	23471
877.034	23444
877.162	23520
877.29	23493
877.418	23539
877.546	23471
877.674	23421
877.802	23429
877.93	23512
878.058	23478
878.185	23417
878.313	23395
878.441	23368
878.568	23265
878.696	23425
878.824	23547
878.951	23562
879.079	23786
879.206	23718
879.333	23619
879.461	23608
879.588	23623
879.715	23722
879.842	23821
879.97	23570
880.097	23250
880.224	23303
880.351	23303
880.478	23372
880.605	23273
880.732	23356
880.859	23619
880.986	23398
881.112	23326
881.239	23307
881.366	22976
881.493	22930
881.619	22877
881.746	22976
881.872	22908
881.999	22850
882.125	22820
882.252	22889
882.378	22847
882.505	22953
882.631	22641
882.757	22599
882.883	22634
883.01	22550
883.136	22443
883.262	22459
883.388	22432
883.514	22573
883.64	22573
883.766	22489
883.892	22310
884.018	22363
884.143	22455
884.269	22481
884.395	22223
884.52	22048
884.646	22177
884.772	21945
884.897	22063
885.023	22188
885.148	22219
885.274	22253
885.399	22223
885.524	22234
885.65	22177
885.775	22143
885.9	22230
886.025	22341
886.15	22249
886.275	22109
886.4	22105
886.525	22181
886.65	21998
886.775	22055
886.9	22253
887.025	22417
887.149	22188
887.274	21968
887.399	21888
887.523	21835
887.648	21842
887.773	21907
887.897	22074
888.021	21979
888.146	21766
888.27	22116
888.395	21972
888.519	21949
888.643	21907
888.767	22048
888.891	21823
889.015	21774
889.139	21816
889.263	21720
889.387	21797
889.511	22006
889.635	21903
889.759	21732
889.883	21671
890.006	21705
890.13	21831
890.254	21583
890.377	21724
890.501	21412
890.624	21405
890.748	21580
890.871	21393
890.995	21275
891.118	21256
891.241	21367
891.364	21302
891.488	21450
891.611	21367
891.734	21294
891.857	21325
891.98	21226
892.103	21378
892.226	21291
892.349	21344
892.471	21150
892.594	21089
892.717	21192
892.839	21070
892.962	21100
893.085	21184
893.207	21214
893.33	21112
893.452	21096
893.575	21207
893.697	21135
893.819	21408
893.941	21428
894.064	21313
894.186	21089
894.308	21127
894.43	21329
894.552	21408
894.674	21093
894.796	21085
894.918	21252
895.04	21161
895.161	21233
895.283	21233
895.405	20899
895.526	21081
895.648	21055
895.769	21119
895.891	21272
896.012	21108
896.134	21214
896.255	21138
896.376	21074
896.498	21142
896.619	21146
896.74	21085
896.861	21173
896.982	21408
897.103	21538
897.224	21435
897.345	21408
897.466	21176
897.587	21302
897.708	21458
897.828	21214
897.949	21363
898.07	21085
898.19	21169
898.311	21363
898.431	21332
898.552	21462
898.672	21359
898.792	21401
898.913	21310
899.033	21245
899.153	21093
899.273	20944
899.393	21085
899.513	21070
899.633	21032
899.753	21043
899.873	21077
899.993	21108
900.113	20994
900.232	21123
900.352	20971
900.472	20929
900.591	20811
900.711	20731
900.83	20769
900.95	20868
901.069	20986
901.189	20773
901.308	20499
901.427	20385
901.546	20476
901.665	20476
901.784	20317
901.904	20343
902.023	20119
902.141	20005
902.26	19890
902.379	19909
902.498	19940
902.617	19879
902.735	20005
902.854	19898
902.973	19894
903.091	19548
903.21	19552
903.328	19639
903.446	19388
903.565	19331
903.683	19358
903.801	19232
903.919	19407
904.038	19236
904.156	19122
904.274	19202
904.392	19080
904.51	19133
904.627	19175
904.745	19152
904.863	19190
904.981	18920
905.098	18867
905.216	18871
905.334	18901
905.451	18840
905.569	18696
905.686	18745
905.803	18757
905.921	18570
906.038	18555
906.155	18547
906.272	18574
906.389	18437
906.506	18300
906.623	18308
906.74	18186
906.857	18197
906.974	18209
907.091	18292
907.208	18464
907.324	18254
907.441	18254
907.557	18087
907.674	18022
907.79	18019
907.907	18019
908.023	18102
908.139	17984
908.256	17977
908.372	17901
908.488	17836
908.604	17760
908.72	17729
908.836	17798
908.952	17691
909.068	17737
909.184	17817
909.3	17737
909.415	17695
909.531	17687
909.647	17532
909.762	17512
909.878	17478
909.993	17368
910.108	17414
910.224	17429
910.339	17360
910.454	17235
910.57	17216
910.685	17166
910.8	17406
910.915	17379
911.03	17143
911.145	17029
911.259	17025
911.374	17037
911.489	16968
911.604	16850
911.718	16698
911.833	16767
911.947	16744
912.062	16660
912.176	16752
912.291	16831
912.405	16816
912.519	16824
912.633	16972
912.748	16729
912.862	16713
912.976	16611
913.09	16516
913.204	16577
913.318	16531
913.431	16675
913.545	16630
913.659	16710
913.772	16474
913.886	16424
914	16333
914.113	16306
914.226	16459
914.34	16291
914.453	16188
914.566	16398
914.68	16223
914.793	16169
914.906	15979
915.019	15983
915.132	15934
915.245	15865
915.358	15918
915.47	15892
915.583	15953
915.696	15991
915.809	16093
915.921	16021
916.034	15964
916.146	15823
916.259	15823
916.371	15922
916.483	15831
916.595	15778
916.708	15778
916.82	15717
916.932	15698
917.044	15770
917.156	15648
917.268	15663
917.38	15504
917.491	15443
917.603	15504
917.715	15587
917.826	15633
917.938	15466
918.049	15397
918.161	15526
918.272	15610
918.384	15564
918.495	15511
918.606	15233
918.717	15211
918.828	15272
918.939	15298
919.05	15264
919.161	15165
919.272	15066
919.383	15100
919.494	15344
919.604	15511
919.715	15199
919.826	15275
919.936	15135
920.047	15310
920.157	15252
920.267	15344
920.378	15272
920.488	15245
920.598	15408
920.708	15584
920.818	15428
920.928	15367
921.038	15553
921.148	15458
921.258	15161
921.368	15039
921.477	14925
921.587	14941
921.697	14872
921.806	14815
921.916	14739
922.025	14594
922.134	14636
922.244	14552
922.353	14708
922.462	14522
922.571	14393
922.68	14195
922.789	14305
922.898	14180
923.007	14252
923.116	14199
923.224	14237
923.333	14237
923.442	14081
923.55	13982
923.659	14050
923.767	14164
923.876	14027
923.984	14077
924.092	13913
924.201	13993
924.309	13906
924.417	13967
924.525	13818
924.633	13871
924.741	14849
924.849	13681
924.956	13788
925.064	13636
925.172	13575
925.279	13613
925.387	13594
925.494	13613
925.602	13689
925.709	13632
925.816	13594
925.924	13544
926.031	13594
926.138	13480
926.245	13613
926.352	13411
926.459	13575
926.566	13597
926.673	13464
926.779	13308
926.886	13301
926.993	13129
927.099	13107
927.206	13034
927.312	13179
927.419	13122
927.525	13141
927.631	13160
927.737	13008
927.843	13034
927.95	12848
928.056	12920
928.162	12989
928.267	13053
928.373	13510
928.479	13091
928.585	12734
928.69	12920
928.796	12928
928.901	12825
929.007	12646
929.112	12890
929.218	12749
929.323	12688
929.428	12658
929.533	12768
929.638	12597
929.743	12681
929.848	12665
929.953	12608
930.058	12631
930.163	12251
930.267	12273
930.372	12433
930.477	12334
930.581	12532
930.685	12258
930.79	12182
930.894	12323
930.998	12140
931.103	12338
931.207	11954
931.311	11866
931.415	11809
931.519	11649
931.623	11570
