Data from test_V78500241_1084.txt Node
Date: Fri Mar 25 15:49:18 CST 2022
User: usil
Spectrometer: V785-0024
Trigger mode: 0
Integration Time (sec): 4.000000E-1
Scans to average: 1
Nonlinearity correction enabled: false
Boxcar width: 0
Storing dark spectrum: false
XAxis mode: Wavelengths
Number of Pixels in Spectrum: 1024
>>>>>Begin Spectral Data<<<<<
801.071	28314
801.214	28204
801.356	28013
801.499	27949
801.641	27914
801.783	27987
801.926	27899
802.068	27831
802.211	27808
802.353	27732
802.496	27447
802.638	27443
802.78	27504
802.923	27488
803.065	27393
803.208	27359
803.35	27492
803.492	27576
803.635	27766
803.777	27576
803.919	27762
804.061	28013
804.204	27838
804.346	27675
804.488	27656
804.63	27686
804.773	27568
804.915	27797
805.057	27778
805.199	27724
805.341	27785
805.483	27667
805.626	27892
805.768	27778
805.91	27854
806.052	27835
806.194	27762
806.336	28097
806.478	27865
806.62	28021
806.762	27880
806.904	28234
807.046	28261
807.188	28265
807.33	28390
807.472	28276
807.614	28276
807.756	28276
807.898	28276
808.04	28131
808.182	28128
808.324	28223
808.465	28131
808.607	28531
808.749	28554
808.891	28729
809.033	28546
809.174	28615
809.316	28500
809.458	28550
809.6	28618
809.741	28622
809.883	28774
810.025	28942
810.166	28812
810.308	28790
810.45	28763
810.591	28774
810.733	28561
810.875	28447
811.016	28417
811.158	28451
811.299	28683
811.441	28691
811.582	28725
811.724	28645
811.865	28527
812.007	28535
812.148	28603
812.29	28675
812.431	28767
812.573	28919
812.714	29029
812.855	29261
812.997	29155
813.138	29364
813.279	29303
813.421	29170
813.562	29067
813.703	28892
813.845	28900
813.986	28569
814.127	28413
814.268	28337
814.41	28367
814.551	28158
814.692	28489
814.833	28192
814.974	28360
815.115	28287
815.256	28074
815.397	28070
815.539	28109
815.68	28059
815.821	28112
815.962	27960
816.103	28280
816.244	27991
816.385	27903
816.526	27941
816.666	27656
816.807	27568
816.948	27599
817.089	27766
817.23	27614
817.371	27561
817.512	27724
817.653	27625
817.793	27431
817.934	27599
818.075	27667
818.216	27557
818.356	27561
818.497	27447
818.638	27298
818.778	27355
818.919	27447
819.06	27500
819.2	27378
819.341	27454
819.481	27701
819.622	27774
819.762	27876
819.903	27781
820.043	27808
820.184	27644
820.324	27800
820.465	27717
820.605	27682
820.746	27713
820.886	27477
821.026	27648
821.167	27599
821.307	27732
821.447	27606
821.588	27663
821.728	27427
821.868	27214
822.008	27184
822.149	27066
822.289	26925
822.429	26800
822.569	26826
822.709	26811
822.849	26712
822.99	26609
823.13	26530
823.27	26457
823.41	26427
823.55	26161
823.69	26427
823.83	26301
823.97	26362
824.11	26164
824.25	26195
824.389	26370
824.529	26263
824.669	26237
824.809	26385
824.949	26347
825.089	26259
825.228	26259
825.368	26164
825.508	26077
825.648	26100
825.787	26126
825.927	26172
826.067	26058
826.206	26130
826.346	26248
826.485	26252
826.625	26157
826.765	26157
826.904	26115
827.044	25894
827.183	25909
827.323	25826
827.462	25753
827.601	25791
827.741	25693
827.88	25864
828.02	25784
828.159	25776
828.298	25830
828.437	25906
828.577	25719
828.716	25772
828.855	25689
828.994	25487
829.134	25559
829.273	25609
829.412	25453
829.551	25506
829.69	25601
829.829	25540
829.968	25616
830.107	25556
830.246	25472
830.385	25445
830.524	25453
830.663	25251
830.802	25301
830.941	25156
831.08	25122
831.219	25114
831.357	25225
831.496	25354
831.635	25110
831.774	24951
831.913	24951
832.051	24878
832.19	24939
832.329	24882
832.467	24753
832.606	24677
832.744	24715
832.883	24783
833.022	24753
833.16	24749
833.299	24947
833.437	24935
833.576	24810
833.714	24890
833.852	24779
833.991	25065
834.129	24970
834.267	24989
834.406	24825
834.544	24886
834.682	24863
834.821	24776
834.959	25050
835.097	24738
835.235	24958
835.373	24837
835.511	24837
835.65	24711
835.788	24661
835.926	24467
836.064	24414
836.202	24547
836.34	24604
836.478	24795
836.615	24661
836.753	24673
836.891	24825
837.029	24635
837.167	24604
837.305	24456
837.443	24673
837.58	24429
837.718	24509
837.856	24570
837.993	24483
838.131	24460
838.269	24395
838.406	24388
838.544	24243
838.681	24091
838.819	24018
838.956	24003
839.094	23980
839.231	24144
839.369	24087
839.506	24319
839.643	24266
839.781	24076
839.918	23832
840.055	24026
840.193	23916
840.33	23931
840.467	24007
840.604	23863
840.742	24034
840.879	23668
841.016	23764
841.153	23764
841.29	24007
841.427	23843
841.564	23832
841.701	23828
841.838	23794
841.975	23646
842.112	23863
842.249	23665
842.385	23665
842.522	23798
842.659	23707
842.796	23691
842.933	23764
843.069	23638
843.206	23611
843.343	23608
843.479	23604
843.616	23623
843.752	23421
843.889	23326
844.025	23474
844.162	23337
844.298	23417
844.435	23493
844.571	23364
844.708	23376
844.844	23531
844.98	23539
845.117	23391
845.253	23448
845.389	23277
845.525	23376
845.661	23254
845.798	23109
845.934	23185
846.07	22961
846.206	23181
846.342	23387
846.478	23117
846.614	22923
846.75	22809
846.886	22729
847.022	22915
847.158	22904
847.294	22854
847.429	22866
847.565	22755
847.701	23132
847.837	22546
847.972	22603
848.108	22645
848.244	22641
848.379	22508
848.515	22542
848.65	22455
848.786	22417
848.921	22341
849.057	22607
849.192	22550
849.328	22474
849.463	22436
849.598	22466
849.734	22310
849.869	22344
850.004	22238
850.14	22230
850.275	22207
850.41	22097
850.545	22131
850.68	22109
850.815	22166
850.95	22246
851.085	22314
851.22	22402
851.355	22158
851.49	22207
851.625	22196
851.76	22215
851.895	22116
852.03	22188
852.165	22185
852.299	22177
852.434	22219
852.569	22234
852.703	22143
852.838	22230
852.973	22318
853.107	22291
853.242	22093
853.376	21983
853.511	21915
853.645	21937
853.78	22063
853.914	22044
854.048	21983
854.183	22002
854.317	22124
854.451	22314
854.585	21983
854.72	21937
854.854	22124
854.988	21975
855.122	22063
855.256	21941
855.39	22006
855.524	22048
855.658	22143
855.792	21998
855.926	22086
856.06	22059
856.194	22070
856.327	21987
856.461	21972
856.595	21991
856.729	21804
856.862	22226
856.996	22128
857.13	22211
857.263	22017
857.397	22097
857.53	21964
857.664	22021
857.797	22154
857.931	22086
858.064	21991
858.197	22086
858.331	21953
858.464	21892
858.597	21994
858.731	21953
858.864	22013
858.997	21857
859.13	22029
859.263	22059
859.396	22173
859.529	22021
859.662	21960
859.795	22036
859.928	22044
860.061	22188
860.194	22196
860.327	21983
860.46	22112
860.592	22169
860.725	22291
860.858	22158
860.99	21994
861.123	21911
861.256	21888
861.388	22074
861.521	22793
861.653	21968
861.786	21838
861.918	21926
862.05	21854
862.183	21911
862.315	21895
862.447	21972
862.58	22021
862.712	21629
862.844	21610
862.976	21816
863.108	21888
863.24	22192
863.372	21660
863.504	21838
863.636	21675
863.768	21846
863.9	21709
864.032	21610
864.164	21637
864.296	21797
864.428	21918
864.559	21857
864.691	21781
864.823	21713
864.954	21732
865.086	21705
865.217	21633
865.349	21553
865.48	21656
865.612	21736
865.743	21937
865.875	21549
866.006	21641
866.137	21644
866.269	21671
866.4	21587
866.531	21583
866.662	21454
866.793	21549
866.924	21660
867.055	21485
867.186	21583
867.317	21466
867.448	21538
867.579	21496
867.71	21344
867.841	21519
867.972	21534
868.103	21591
868.233	21515
868.364	21507
868.495	21713
868.625	21785
868.756	21956
868.886	21698
869.017	21842
869.147	21911
869.278	21949
869.408	21831
869.539	21781
869.669	21934
869.799	21865
869.929	21934
870.06	21892
870.19	22120
870.32	22093
870.45	22070
870.58	22090
870.71	22276
870.84	22200
870.97	22265
871.1	22162
871.23	22367
871.36	22295
871.489	22234
871.619	22367
871.749	22291
871.879	22402
872.008	22432
872.138	22310
872.267	22440
872.397	22150
872.526	22131
872.656	22261
872.785	22223
872.915	22478
873.044	22386
873.173	22462
873.303	22493
873.432	22417
873.561	22512
873.69	22219
873.819	22405
873.948	22447
874.077	22337
874.206	22287
874.335	22470
874.464	22516
874.593	22569
874.722	22481
874.851	22744
874.979	22702
875.108	22672
875.237	22512
875.365	22519
875.494	22546
875.623	22668
875.751	22485
875.88	22565
876.008	22809
876.136	22717
876.265	22968
876.393	23155
876.521	23128
876.65	23102
876.778	22942
876.906	22896
877.034	22858
877.162	22961
877.29	22854
877.418	22919
877.546	22957
877.674	22987
877.802	22919
877.93	22900
878.058	22824
878.185	22755
878.313	22927
878.441	22873
878.568	22801
878.696	22968
878.824	22972
878.951	22949
879.079	23071
879.206	23220
879.333	23147
879.461	22953
879.588	22984
879.715	23025
879.842	23315
879.97	23010
880.097	22683
880.224	22733
880.351	22831
880.478	22828
880.605	22740
880.732	22835
880.859	22885
880.986	22774
881.112	22744
881.239	22767
881.366	22542
881.493	22466
881.619	22424
881.746	22306
881.872	22371
881.999	22291
882.125	22211
882.252	22417
882.378	22299
882.505	22379
882.631	22215
882.757	22063
882.883	22215
883.01	22109
883.136	21964
883.262	21991
883.388	21873
883.514	22002
883.64	22086
883.766	21895
883.892	21838
884.018	21888
884.143	21827
884.269	22048
884.395	21770
884.52	21591
884.646	21675
884.772	21583
884.897	21545
885.023	21576
885.148	21747
885.274	21804
885.399	21846
885.524	21648
885.65	21663
885.775	21694
885.9	21641
886.025	21831
886.15	21800
886.275	21534
886.4	21530
886.525	21557
886.65	21633
886.775	21538
886.9	21793
887.025	21781
887.149	21614
887.274	21473
887.399	21466
887.523	21408
887.648	21412
887.773	21378
887.897	21374
888.021	21477
888.146	21306
888.27	21488
888.395	21515
888.519	21580
888.643	21504
888.767	21473
888.891	21412
889.015	21131
889.139	21279
889.263	21233
889.387	21317
889.511	21405
889.635	21340
889.759	21272
889.883	21077
890.006	21264
890.13	21382
890.254	21203
890.377	21108
890.501	21017
890.624	21032
890.748	21017
890.871	20921
890.995	20765
891.118	20648
891.241	20792
891.364	20750
891.488	20796
891.611	20834
891.734	20861
891.857	20693
891.98	20834
892.103	20746
892.226	20769
892.349	20849
892.471	20606
892.594	20712
892.717	20727
892.839	20590
892.962	20670
893.085	20785
893.207	20674
893.33	20541
893.452	20568
893.575	20590
893.697	20606
893.819	20834
893.941	20811
894.064	20838
894.186	20609
894.308	20625
894.43	20686
894.552	20762
894.674	20712
894.796	20575
894.918	20746
895.04	20499
895.161	20765
895.283	20792
895.405	20716
895.526	20667
895.648	20583
895.769	20602
895.891	20758
896.012	20773
896.134	20754
896.255	20480
896.376	20571
896.498	20689
896.619	20800
896.74	20686
896.861	20651
896.982	20956
897.103	21211
897.224	20933
897.345	20815
897.466	20925
897.587	20845
897.708	20975
897.828	20994
897.949	20864
898.07	20686
898.19	20648
898.311	20982
898.431	20811
898.552	20994
898.672	20849
898.792	20925
898.913	20925
899.033	20819
899.153	20632
899.273	20552
899.393	20621
899.513	20705
899.633	20518
899.753	20621
899.873	20530
899.993	20716
900.113	20568
900.232	20492
900.352	20465
900.472	20511
900.591	20374
900.711	20446
900.83	20286
900.95	20389
901.069	20393
901.189	20271
901.308	20039
901.427	19928
901.546	19925
901.665	20054
901.784	19936
901.904	19898
902.023	19712
902.141	19594
902.26	19457
902.379	19594
902.498	19518
902.617	19460
902.735	19540
902.854	19480
902.973	19396
903.091	19065
903.21	19194
903.328	19084
903.446	19031
903.565	19053
903.683	18867
903.801	18764
903.919	18878
904.038	18863
904.156	18783
904.274	18798
904.392	18631
904.51	18677
904.627	18715
904.745	18738
904.863	18734
904.981	18486
905.098	18452
905.216	18418
905.334	18426
905.451	18448
905.569	18369
905.686	18281
905.803	18429
905.921	18251
906.038	18258
906.155	18194
906.272	18045
906.389	18178
906.506	17874
906.623	17824
906.74	17870
906.857	17923
906.974	17828
907.091	17916
907.208	17969
907.324	17885
907.441	17718
907.557	17573
907.674	17539
907.79	17532
907.907	17672
908.023	17600
908.139	17562
908.256	17570
908.372	17436
908.488	17455
908.604	17421
908.72	17258
908.836	17360
908.952	17185
909.068	17349
909.184	17433
909.3	17296
909.415	17414
909.531	17220
909.647	17056
909.762	17121
909.878	16911
909.993	17029
910.108	16972
910.224	16896
910.339	16904
910.454	16790
910.57	16942
910.685	16653
910.8	17003
910.915	16968
911.03	16938
911.145	16584
911.259	16565
911.374	16694
911.489	16584
911.604	16466
911.718	16348
911.833	16390
911.947	16253
912.062	16242
912.176	16443
912.291	16390
912.405	16462
912.519	16519
912.633	16455
912.748	16325
912.862	16310
912.976	16295
913.09	16162
913.204	16128
913.318	16154
913.431	16162
913.545	16246
913.659	16181
913.772	16128
913.886	16002
914	15907
914.113	16025
914.226	16101
914.34	15983
914.453	15861
914.566	16013
914.68	15895
914.793	15816
914.906	15523
915.019	15599
915.132	15538
915.245	15542
915.358	15603
915.47	15599
915.583	15443
915.696	15561
915.809	15629
915.921	15644
916.034	15454
916.146	15389
916.259	15386
916.371	15481
916.483	15458
916.595	15428
916.708	15401
916.82	15450
916.932	15256
917.044	15302
917.156	15260
917.268	15222
917.38	15135
917.491	15150
917.603	15108
917.715	15226
917.826	15340
917.938	15169
918.049	15043
918.161	15085
918.272	15188
918.384	15108
918.495	15100
918.606	15032
918.717	14887
918.828	14918
918.939	14990
919.05	14887
919.161	15047
919.272	14727
919.383	14819
919.494	14994
919.604	15123
919.715	14895
919.826	14811
919.936	14857
920.047	14963
920.157	14819
920.267	15039
920.378	14819
920.488	14823
920.598	15062
920.708	15260
920.818	15024
920.928	14960
921.038	15199
921.148	15089
921.258	14834
921.368	14777
921.477	14610
921.587	14610
921.697	14541
921.806	14636
921.916	14507
922.025	14358
922.134	14324
922.244	14298
922.353	14298
922.462	14130
922.571	14043
922.68	13944
922.789	13864
922.898	14008
923.007	13833
923.116	13906
923.224	13822
923.333	13799
923.442	13753
923.55	13658
923.659	13723
923.767	13761
923.876	13613
923.984	13757
924.092	13639
924.201	13620
924.309	13597
924.417	13636
924.525	13468
924.633	13609
924.741	14305
924.849	13411
924.956	13514
925.064	13392
925.172	13335
925.279	13304
925.387	13346
925.494	13232
925.602	13335
925.709	13339
925.816	13175
925.924	13285
926.031	13365
926.138	13236
926.245	13282
926.352	13118
926.459	13213
926.566	13308
926.673	13069
926.779	13095
926.886	13008
926.993	12840
927.099	12867
927.206	12829
927.312	12882
927.419	12939
927.525	12810
927.631	12856
927.737	12772
927.843	12662
927.95	12589
928.056	12635
928.162	12665
928.267	12646
928.373	13266
928.479	12658
928.585	12391
928.69	12589
928.796	12631
928.901	12547
929.007	12429
929.112	12494
929.218	12475
929.323	12418
929.428	12410
929.533	12483
929.638	12361
929.743	12342
929.848	12399
929.953	12338
930.058	12243
930.163	12045
930.267	11954
930.372	12213
930.477	11999
930.581	12144
930.685	12114
930.79	11805
930.894	11927
930.998	11931
931.103	12057
931.207	11630
931.311	11634
931.415	11509
931.519	11376
931.623	11303
