Data from test_V78500241_3373.txt Node
Date: Fri Mar 25 16:05:10 CST 2022
User: usil
Spectrometer: V785-0024
Trigger mode: 0
Integration Time (sec): 4.000000E-1
Scans to average: 1
Nonlinearity correction enabled: false
Boxcar width: 0
Storing dark spectrum: false
XAxis mode: Wavelengths
Number of Pixels in Spectrum: 1024
>>>>>Begin Spectral Data<<<<<
801.071	28398
801.214	28299
801.356	28086
801.499	28067
801.641	27934
801.783	27991
801.926	27869
802.068	27945
802.211	27983
802.353	27880
802.496	27751
802.638	27694
802.78	27751
802.923	27580
803.065	27595
803.208	27583
803.35	27747
803.492	27857
803.635	27972
803.777	27720
803.919	27850
804.061	28169
804.204	27903
804.346	27827
804.488	27720
804.63	27857
804.773	27755
804.915	27903
805.057	28059
805.199	28006
805.341	27873
805.483	28101
805.626	28032
805.768	27907
805.91	28097
806.052	28055
806.194	28055
806.336	28162
806.478	28002
806.62	28234
806.762	28230
806.904	28367
807.046	28622
807.188	28440
807.33	28432
807.472	28554
807.614	28493
807.756	28390
807.898	28333
808.04	28299
808.182	28356
808.324	28394
808.465	28516
808.607	28611
808.749	28660
808.891	28672
809.033	28839
809.174	28668
809.316	28759
809.458	28603
809.6	28683
809.741	28793
809.883	28835
810.025	28938
810.166	29014
810.308	28999
810.45	28896
810.591	28873
810.733	28603
810.875	28668
811.016	28618
811.158	28611
811.299	28755
811.441	28938
811.582	28869
811.724	28763
811.865	28713
812.007	28725
812.148	28854
812.29	28672
812.431	28919
812.573	29052
812.714	29140
812.855	29334
812.997	29273
813.138	29505
813.279	29250
813.421	29037
813.562	29242
813.703	29151
813.845	28820
813.986	28622
814.127	28489
814.268	28421
814.41	28405
814.551	28474
814.692	28455
814.833	28322
814.974	28303
815.115	28455
815.256	28318
815.397	28367
815.539	28284
815.68	28204
815.821	28154
815.962	28200
816.103	28226
816.244	28162
816.385	27991
816.526	28067
816.666	27838
816.807	27698
816.948	27720
817.089	27728
817.23	27637
817.371	27766
817.512	27705
817.653	27663
817.793	27671
817.934	27804
818.075	27682
818.216	27819
818.356	27679
818.497	27545
818.638	27439
818.778	27416
818.919	27507
819.06	27511
819.2	27660
819.341	27637
819.481	27652
819.622	27934
819.762	28074
819.903	27911
820.043	27991
820.184	27865
820.324	27736
820.465	27895
820.605	27895
820.746	27633
820.886	27610
821.026	27751
821.167	27880
821.307	27869
821.447	27576
821.588	27614
821.728	27599
821.868	27317
822.008	27195
822.149	27161
822.289	27146
822.429	27062
822.569	26819
822.709	26868
822.849	26678
822.99	26735
823.13	26716
823.27	26693
823.41	26609
823.55	26370
823.69	26499
823.83	26446
823.97	26332
824.11	26358
824.25	26328
824.389	26374
824.529	26522
824.669	26309
824.809	26450
824.949	26495
825.089	26461
825.228	26469
825.368	26206
825.508	26195
825.648	26244
825.787	26313
825.927	26412
826.067	26290
826.206	26434
826.346	26282
826.485	26339
826.625	26206
826.765	26278
826.904	26286
827.044	25955
827.183	26020
827.323	25894
827.462	26027
827.601	26016
827.741	25913
827.88	26054
828.02	25917
828.159	25868
828.298	25963
828.437	26073
828.577	25913
828.716	26100
828.855	26027
828.994	25628
829.134	25689
829.273	25830
829.412	25506
829.551	25605
829.69	25727
829.829	25772
829.968	25833
830.107	25761
830.246	25719
830.385	25514
830.524	25476
830.663	25460
830.802	25415
830.941	25297
831.08	25270
831.219	25377
831.357	25426
831.496	25464
831.635	25282
831.774	25114
831.913	25099
832.051	25046
832.19	25034
832.329	25118
832.467	24913
832.606	24825
832.744	24962
832.883	24954
833.022	24753
833.16	24913
833.299	24951
833.437	24890
833.576	25065
833.714	25171
833.852	25012
833.991	25160
834.129	25038
834.267	25069
834.406	24909
834.544	25038
834.682	25008
834.821	25042
834.959	25175
835.097	24882
835.235	25122
835.373	24939
835.511	25015
835.65	24886
835.788	24859
835.926	24711
836.064	24528
836.202	24669
836.34	24848
836.478	24890
836.615	24821
836.753	24798
836.891	24875
837.029	24741
837.167	24753
837.305	24764
837.443	24677
837.58	24661
837.718	24730
837.856	24681
837.993	24623
838.131	24661
838.269	24582
838.406	24456
838.544	24585
838.681	24334
838.819	24300
838.956	24171
839.094	24060
839.231	24133
839.369	24289
839.506	24528
839.643	24315
839.781	24262
839.918	23969
840.055	24159
840.193	24053
840.33	24064
840.467	24117
840.604	23996
840.742	24281
840.879	23950
841.016	23882
841.153	23961
841.29	24155
841.427	23916
841.564	24068
841.701	24091
841.838	23912
841.975	23897
842.112	23912
842.249	23999
842.385	23840
842.522	24034
842.659	23878
842.796	23786
842.933	23680
843.069	23691
843.206	23726
843.343	23832
843.479	23794
843.616	23779
843.752	23505
843.889	23665
844.025	23722
844.162	23551
844.298	23547
844.435	23627
844.571	23387
844.708	23634
844.844	23661
844.98	23710
845.117	23718
845.253	23486
845.389	23398
845.525	23554
845.661	23398
845.798	23334
845.934	23280
846.07	23246
846.206	23379
846.342	23387
846.478	23307
846.614	22972
846.75	22984
846.886	23079
847.022	23079
847.158	23025
847.294	23010
847.429	23052
847.565	22957
847.701	23307
847.837	22801
847.972	22710
848.108	22801
848.244	22831
848.379	22649
848.515	22531
848.65	22569
848.786	22656
848.921	22653
849.057	22698
849.192	22706
849.328	22500
849.463	22573
849.598	22542
849.734	22580
849.869	22474
850.004	22367
850.14	22451
850.275	22402
850.41	22158
850.545	22284
850.68	22322
850.815	22360
850.95	22386
851.085	22607
851.22	22405
851.355	22443
851.49	22398
851.625	22333
851.76	22314
851.895	22390
852.03	22314
852.165	22386
852.299	22344
852.434	22436
852.569	22394
852.703	22363
852.838	22462
852.973	22459
853.107	22432
853.242	22306
853.376	22188
853.511	22135
853.645	22177
853.78	22432
853.914	22169
854.048	22196
854.183	22215
854.317	22325
854.451	22382
854.585	22257
854.72	22249
854.854	22265
854.988	22116
855.122	22246
855.256	22013
855.39	22112
855.524	22310
855.658	22303
855.792	22356
855.926	22280
856.06	22303
856.194	22291
856.327	22188
856.461	21968
856.595	22078
856.729	22265
856.862	22451
856.996	22173
857.13	22333
857.263	22375
857.397	22257
857.53	22090
857.664	22261
857.797	22169
857.931	22352
858.064	22253
858.197	22135
858.331	22139
858.464	22188
858.597	22040
858.731	22032
858.864	22215
858.997	22234
859.13	22223
859.263	22287
859.396	22318
859.529	22192
859.662	22128
859.795	22173
859.928	22154
860.061	22253
860.194	22405
860.327	22200
860.46	22253
860.592	22253
860.725	22409
860.858	22341
860.99	22276
861.123	22147
861.256	22116
861.388	22147
861.521	22965
861.653	22013
861.786	22040
861.918	21934
862.05	22048
862.183	22090
862.315	22082
862.447	22223
862.58	22090
862.712	21987
862.844	21915
862.976	21949
863.108	22013
863.24	22352
863.372	21781
863.504	21857
863.636	21835
863.768	21941
863.9	21838
864.032	21823
864.164	21884
864.296	21979
864.428	21953
864.559	21854
864.691	21892
864.823	21831
864.954	22021
865.086	21854
865.217	21892
865.349	21747
865.48	21755
865.612	21610
865.743	21930
865.875	21698
866.006	21679
866.137	21838
866.269	21781
866.4	21808
866.531	21652
866.662	21614
866.793	21637
866.924	21694
867.055	21751
867.186	21694
867.317	21698
867.448	21660
867.579	21804
867.71	21591
867.841	21690
867.972	21720
868.103	21690
868.233	21854
868.364	21739
868.495	21857
868.625	21922
868.756	22013
868.886	21762
869.017	21907
869.147	22109
869.278	22143
869.408	21987
869.539	21945
869.669	22147
869.799	21983
869.929	21968
870.06	22082
870.19	22325
870.32	22215
870.45	22242
870.58	22188
870.71	22428
870.84	22561
870.97	22257
871.1	22424
871.23	22508
871.36	22409
871.489	22470
871.619	22500
871.749	22546
871.879	22637
872.008	22721
872.138	22519
872.267	22546
872.397	22493
872.526	22466
872.656	22356
872.785	22341
872.915	22592
873.044	22698
873.173	22577
873.303	22538
873.432	22512
873.561	22641
873.69	22672
873.819	22607
873.948	22702
874.077	22637
874.206	22481
874.335	22519
874.464	22660
874.593	22717
874.722	22809
874.851	22892
874.979	22790
875.108	22869
875.237	22759
875.365	22615
875.494	22877
875.623	22877
875.751	22717
875.88	22957
876.008	22934
876.136	23090
876.265	23204
876.393	23318
876.521	23250
876.65	23265
876.778	23273
876.906	23006
877.034	23208
877.162	23261
877.29	23094
877.418	23288
877.546	23197
877.674	23094
877.802	23090
877.93	23109
878.058	23048
878.185	22999
878.313	23075
878.441	23060
878.568	22957
878.696	23147
878.824	23105
878.951	23170
879.079	23277
879.206	23383
879.333	23277
879.461	23220
879.588	23334
879.715	23250
879.842	23440
879.97	23261
880.097	22934
880.224	23033
880.351	22991
880.478	22866
880.605	22873
880.732	22885
880.859	23181
880.986	23022
881.112	22938
881.239	22801
881.366	22687
881.493	22527
881.619	22512
881.746	22519
881.872	22512
881.999	22508
882.125	22360
882.252	22443
882.378	22489
882.505	22519
882.631	22276
882.757	22226
882.883	22344
883.01	22211
883.136	22070
883.262	22097
883.388	22010
883.514	22147
883.64	22093
883.766	22135
883.892	21953
884.018	21975
884.143	22215
884.269	22356
884.395	21808
884.52	21846
884.646	21994
884.772	21831
884.897	21648
885.023	21911
885.148	21880
885.274	22090
885.399	22002
885.524	21869
885.65	21831
885.775	21880
885.9	22017
886.025	21968
886.15	21895
886.275	21823
886.4	21675
886.525	21713
886.65	21713
886.775	21736
886.9	22025
887.025	22013
887.149	21660
887.274	21622
887.399	21568
887.523	21698
887.648	21618
887.773	21519
887.897	21720
888.021	21526
888.146	21473
888.27	21694
888.395	21671
888.519	21606
888.643	21599
888.767	21686
888.891	21530
889.015	21389
889.139	21469
889.263	21469
889.387	21538
889.511	21667
889.635	21580
889.759	21310
889.883	21367
890.006	21454
890.13	21519
890.254	21321
890.377	21363
890.501	21150
890.624	20998
890.748	21192
890.871	21036
890.995	20982
891.118	20971
891.241	21032
891.364	20929
891.488	21089
891.611	20883
891.734	20975
891.857	21051
891.98	20823
892.103	20895
892.226	20880
892.349	20941
892.471	20762
892.594	20804
892.717	20952
892.839	20804
892.962	20906
893.085	20914
893.207	20804
893.33	20773
893.452	20724
893.575	20800
893.697	20815
893.819	21032
893.941	20906
894.064	20910
894.186	20724
894.308	20724
894.43	20971
894.552	20971
894.674	20956
894.796	20765
894.918	20788
895.04	20815
895.161	20792
895.283	20785
895.405	20785
895.526	20864
895.648	20720
895.769	20872
895.891	20918
896.012	20921
896.134	20857
896.255	20758
896.376	20758
896.498	20834
896.619	20880
896.74	20823
896.861	20979
896.982	21203
897.103	21294
897.224	21089
897.345	21116
897.466	21047
897.587	21070
897.708	21135
897.828	21093
897.949	21013
898.07	20880
898.19	20899
898.311	21058
898.431	20979
898.552	21028
898.672	21074
898.792	21108
898.913	20998
899.033	20956
899.153	20807
899.273	20750
899.393	20693
899.513	20819
899.633	20872
899.753	20826
899.873	20667
899.993	20838
900.113	20617
900.232	20834
900.352	20609
900.472	20674
900.591	20484
900.711	20549
900.83	20492
900.95	20625
901.069	20651
901.189	20518
901.308	20142
901.427	20134
901.546	20024
901.665	20073
901.784	20115
901.904	19887
902.023	19871
902.141	19575
902.26	19712
902.379	19769
902.498	19639
902.617	19632
902.735	19750
902.854	19624
902.973	19525
903.091	19293
903.21	19308
903.328	19240
903.446	19274
903.565	19023
903.683	19114
903.801	19027
903.919	19061
904.038	18958
904.156	18821
904.274	18932
904.392	18817
904.51	18913
904.627	18783
904.745	18928
904.863	18863
904.981	18582
905.098	18536
905.216	18532
905.334	18433
905.451	18574
905.569	18559
905.686	18532
905.803	18357
905.921	18319
906.038	18517
906.155	18338
906.272	18197
906.389	18251
906.506	18022
906.623	18038
906.74	18095
906.857	17836
906.974	17851
907.091	18144
907.208	18167
907.324	17923
907.441	17946
907.557	17764
907.674	17684
907.79	17695
907.907	17745
908.023	17745
908.139	17672
908.256	17668
908.372	17524
908.488	17680
908.604	17524
908.72	17402
908.836	17417
908.952	17425
909.068	17596
909.184	17524
909.3	17429
909.415	17577
909.531	17558
909.647	17200
909.762	17162
909.878	17128
909.993	17083
910.108	17113
910.224	17109
910.339	17010
910.454	17102
910.57	17003
910.685	17010
910.8	17151
910.915	17083
911.03	16896
911.145	16786
911.259	16824
911.374	16752
911.489	16637
911.604	16626
911.718	16523
911.833	16428
911.947	16337
912.062	16287
912.176	16527
912.291	16481
912.405	16356
912.519	16645
912.633	16710
912.748	16462
912.862	16459
912.976	16341
913.09	16207
913.204	16268
913.318	16306
913.431	16413
913.545	16318
913.659	16421
913.772	16223
913.886	16128
914	16158
914.113	16223
914.226	16124
914.34	16112
914.453	15968
914.566	16059
914.68	15926
914.793	15949
914.906	15698
915.019	15709
915.132	15622
915.245	15644
915.358	15644
915.47	15625
915.583	15644
915.696	15747
915.809	15728
915.921	15739
916.034	15576
916.146	15515
916.259	15545
916.371	15614
916.483	15523
916.595	15610
916.708	15587
916.82	15408
916.932	15450
917.044	15420
917.156	15473
917.268	15264
917.38	15279
917.491	15363
917.603	15336
917.715	15473
917.826	15374
917.938	15233
918.049	15104
918.161	15279
918.272	15439
918.384	15401
918.495	15180
918.606	15017
918.717	14952
918.828	14990
918.939	15127
919.05	14994
919.161	15085
919.272	14765
919.383	14842
919.494	15097
919.604	15264
919.715	14921
919.826	14864
919.936	14876
920.047	15066
920.157	14960
920.267	15233
920.378	14990
920.488	14944
920.598	15154
920.708	15218
920.818	15047
920.928	15074
921.038	15363
921.148	15222
921.258	14937
921.368	14785
921.477	14804
921.587	14705
921.697	14678
921.806	14644
921.916	14670
922.025	14423
922.134	14400
922.244	14328
922.353	14396
922.462	14259
922.571	14210
922.68	14027
922.789	13963
922.898	14020
923.007	14008
923.116	14031
923.224	13997
923.333	13967
923.442	13955
923.55	13814
923.659	13890
923.767	13868
923.876	13795
923.984	13837
924.092	13761
924.201	13830
924.309	13757
924.417	13658
924.525	13620
924.633	13723
924.741	14617
924.849	13483
924.956	13594
925.064	13419
925.172	13377
925.279	13407
925.387	13464
925.494	13343
925.602	13438
925.709	13445
925.816	13304
925.924	13358
926.031	13411
926.138	13388
926.245	13343
926.352	13339
926.459	13358
926.566	13457
926.673	13228
926.779	13118
926.886	13141
926.993	13038
927.099	12996
927.206	12821
927.312	12954
927.419	12962
927.525	12920
927.631	13000
927.737	12783
927.843	12760
927.95	12783
928.056	12791
928.162	12814
928.267	12844
928.373	13346
928.479	12878
928.585	12509
928.69	12612
928.796	12639
928.901	12585
929.007	12410
929.112	12692
929.218	12604
929.323	12467
929.428	12490
929.533	12700
929.638	12437
929.743	12437
929.848	12452
929.953	12429
930.058	12228
930.163	12152
930.267	12148
930.372	12273
930.477	12194
930.581	12407
930.685	12175
930.79	12026
930.894	12079
930.998	11939
931.103	12079
931.207	11771
931.311	11741
931.415	11649
931.519	11482
931.623	11440
