Data from test_V78500241_3168.txt Node
Date: Fri Mar 25 16:03:44 CST 2022
User: usil
Spectrometer: V785-0024
Trigger mode: 0
Integration Time (sec): 4.000000E-1
Scans to average: 1
Nonlinearity correction enabled: false
Boxcar width: 0
Storing dark spectrum: false
XAxis mode: Wavelengths
Number of Pixels in Spectrum: 1024
>>>>>Begin Spectral Data<<<<<
801.071	28698
801.214	28664
801.356	28363
801.499	28390
801.641	28249
801.783	28166
801.926	28238
802.068	28284
802.211	28272
802.353	28070
802.496	28036
802.638	27934
802.78	27922
802.923	27797
803.065	27831
803.208	27922
803.35	28010
803.492	28124
803.635	28070
803.777	28013
803.919	28215
804.061	28565
804.204	28268
804.346	28147
804.488	27979
804.63	28284
804.773	28211
804.915	28242
805.057	28207
805.199	28196
805.341	28295
805.483	28325
805.626	28371
805.768	28242
805.91	28314
806.052	28257
806.194	28143
806.336	28428
806.478	28367
806.62	28325
806.762	28573
806.904	28710
807.046	28736
807.188	28816
807.33	28786
807.472	28748
807.614	28793
807.756	28752
807.898	28630
808.04	28443
808.182	28519
808.324	28793
808.465	28729
808.607	28915
808.749	29166
808.891	29174
809.033	29220
809.174	29136
809.316	29052
809.458	28965
809.6	29014
809.741	29143
809.883	29109
810.025	29261
810.166	29322
810.308	29231
810.45	29197
810.591	29337
810.733	29181
810.875	29014
811.016	28896
811.158	28972
811.299	29242
811.441	29090
811.582	29193
811.724	29090
811.865	29006
812.007	29105
812.148	29029
812.29	29166
812.431	29170
812.573	29463
812.714	29341
812.855	29429
812.997	29638
813.138	29821
813.279	29767
813.421	29436
813.562	29467
813.703	29296
813.845	29265
813.986	29060
814.127	28847
814.268	28672
814.41	28668
814.551	28801
814.692	28717
814.833	28710
814.974	28599
815.115	28710
815.256	28580
815.397	28645
815.539	28443
815.68	28546
815.821	28489
815.962	28546
816.103	28493
816.244	28348
816.385	28352
816.526	28390
816.666	28128
816.807	27960
816.948	28112
817.089	28249
817.23	27998
817.371	27922
817.512	27941
817.653	27960
817.793	28116
817.934	28070
818.075	27987
818.216	28017
818.356	28021
818.497	27903
818.638	27812
818.778	27831
818.919	27812
819.06	27994
819.2	27975
819.341	28029
819.481	28025
819.622	28261
819.762	28504
819.903	28417
820.043	28318
820.184	28139
820.324	28162
820.465	28207
820.605	28253
820.746	28048
820.886	28074
821.026	28211
821.167	28044
821.307	28268
821.447	28150
821.588	28036
821.728	27778
821.868	27667
822.008	27637
822.149	27568
822.289	27458
822.429	27100
822.569	27272
822.709	27256
822.849	27032
822.99	27058
823.13	27077
823.27	26929
823.41	26834
823.55	26807
823.69	26727
823.83	26899
823.97	26724
824.11	26689
824.25	26632
824.389	26617
824.529	26773
824.669	26575
824.809	26876
824.949	26804
825.089	26765
825.228	26720
825.368	26545
825.508	26495
825.648	26632
825.787	26648
825.927	26708
826.067	26613
826.206	26575
826.346	26598
826.485	26511
826.625	26434
826.765	26743
826.904	26651
827.044	26218
827.183	26332
827.323	26290
827.462	26488
827.601	26282
827.741	26168
827.88	26278
828.02	26195
828.159	26358
828.298	26248
828.437	26377
828.577	26206
828.716	26320
828.855	26195
828.994	25978
829.134	25993
829.273	26081
829.412	25997
829.551	25936
829.69	25997
829.829	25993
829.968	25966
830.107	26054
830.246	25951
830.385	25875
830.524	25959
830.663	25769
830.802	25712
830.941	25388
831.08	25605
831.219	25582
831.357	25559
831.496	25811
831.635	25613
831.774	25362
831.913	25445
832.051	25343
832.19	25441
832.329	25388
832.467	25244
832.606	25126
832.744	25285
832.883	25198
833.022	25183
833.16	25217
833.299	25270
833.437	25297
833.576	25381
833.714	25479
833.852	25377
833.991	25327
834.129	25476
834.267	25426
834.406	25377
834.544	25263
834.682	25266
834.821	25217
834.959	25422
835.097	25278
835.235	25468
835.373	25278
835.511	25236
835.65	25080
835.788	25152
835.926	24970
836.064	24928
836.202	24844
836.34	25228
836.478	25251
836.615	25076
836.753	25095
836.891	25088
837.029	25175
837.167	24939
837.305	25114
837.443	25084
837.58	24897
837.718	25061
837.856	24901
837.993	25000
838.131	24981
838.269	24753
838.406	24970
838.544	24734
838.681	24741
838.819	24711
838.956	24555
839.094	24460
839.231	24395
839.369	24665
839.506	24852
839.643	24616
839.781	24410
839.918	24300
840.055	24350
840.193	24475
840.33	24437
840.467	24353
840.604	24467
840.742	24563
840.879	24121
841.016	24292
841.153	24247
841.29	24407
841.427	24190
841.564	24334
841.701	24289
841.838	24311
841.975	24144
842.112	24258
842.249	24049
842.385	24015
842.522	24311
842.659	24125
842.796	24148
842.933	24022
843.069	24144
843.206	24034
843.343	24098
843.479	24049
843.616	24144
843.752	23870
843.889	23973
844.025	24064
844.162	23961
844.298	23992
844.435	23798
844.571	23935
844.708	23832
844.844	23988
844.98	23992
845.117	23954
845.253	23809
845.389	23790
845.525	23790
845.661	23748
845.798	23585
845.934	23676
846.07	23646
846.206	23676
846.342	23745
846.478	23608
846.614	23463
846.75	23197
846.886	23326
847.022	23395
847.158	23307
847.294	23383
847.429	23296
847.565	23368
847.701	23539
847.837	23025
847.972	23079
848.108	23071
848.244	23025
848.379	22904
848.515	22911
848.65	22919
848.786	22949
848.921	22980
849.057	23022
849.192	23048
849.328	22873
849.463	22934
849.598	22987
849.734	22736
849.869	22809
850.004	22725
850.14	22698
850.275	22679
850.41	22634
850.545	22615
850.68	22706
850.815	22691
850.95	22656
851.085	22797
851.22	22839
851.355	22713
851.49	22679
851.625	22645
851.76	22641
851.895	22523
852.03	22542
852.165	22630
852.299	22710
852.434	22805
852.569	22748
852.703	22729
852.838	22664
852.973	22824
853.107	22736
853.242	22698
853.376	22630
853.511	22497
853.645	22455
853.78	22653
853.914	22481
854.048	22596
854.183	22500
854.317	22459
854.451	22706
854.585	22382
854.72	22519
854.854	22554
854.988	22413
855.122	22577
855.256	22382
855.39	22592
855.524	22557
855.658	22500
855.792	22512
855.926	22554
856.06	22561
856.194	22573
856.327	22557
856.461	22421
856.595	22508
856.729	22424
856.862	22626
856.996	22565
857.13	22603
857.263	22615
857.397	22672
857.53	22394
857.664	22462
857.797	22432
857.931	22565
858.064	22481
858.197	22531
858.331	22584
858.464	22481
858.597	22436
858.731	22497
858.864	22493
858.997	22390
859.13	22352
859.263	22580
859.396	22531
859.529	22421
859.662	22390
859.795	22508
859.928	22493
860.061	22645
860.194	22615
860.327	22561
860.46	22546
860.592	22615
860.725	22634
860.858	22656
860.99	22561
861.123	22226
861.256	22409
861.388	22363
861.521	23170
861.653	22394
861.786	22291
861.918	22287
862.05	22432
862.183	22306
862.315	22440
862.447	22459
862.58	22478
862.712	22265
862.844	22363
862.976	22291
863.108	22337
863.24	22554
863.372	22116
863.504	22219
863.636	22158
863.768	22360
863.9	22173
864.032	22139
864.164	22204
864.296	22287
864.428	22306
864.559	22261
864.691	22280
864.823	22169
864.954	22166
865.086	22196
865.217	22097
865.349	21972
865.48	22074
865.612	22105
865.743	22226
865.875	22044
866.006	22029
866.137	22139
866.269	22116
866.4	21960
866.531	22059
866.662	21922
866.793	22021
866.924	22021
867.055	22051
867.186	22093
867.317	21956
867.448	21949
867.579	22036
867.71	22017
867.841	22010
867.972	21983
868.103	22044
868.233	22055
868.364	22010
868.495	22169
868.625	22215
868.756	22341
868.886	22211
869.017	22234
869.147	22272
869.278	22375
869.408	22272
869.539	22242
869.669	22299
869.799	22154
869.929	22325
870.06	22337
870.19	22546
870.32	22523
870.45	22580
870.58	22615
870.71	22831
870.84	22622
870.97	22649
871.1	22603
871.23	22885
871.36	22767
871.489	22710
871.619	22816
871.749	22763
871.879	22965
872.008	23003
872.138	22816
872.267	22885
872.397	22752
872.526	22733
872.656	22649
872.785	22683
872.915	22809
873.044	23033
873.173	22915
873.303	22923
873.432	22934
873.561	23025
873.69	22919
873.819	22778
873.948	22942
874.077	22820
874.206	22797
874.335	22911
874.464	23052
874.593	23220
874.722	23090
874.851	23208
874.979	23189
875.108	23181
875.237	23064
875.365	22946
875.494	23022
875.623	23178
875.751	23151
875.88	23124
876.008	23254
876.136	23288
876.265	23551
876.393	23570
876.521	23573
876.65	23497
876.778	23433
876.906	23379
877.034	23459
877.162	23398
877.29	23414
877.418	23463
877.546	23478
877.674	23493
877.802	23474
877.93	23372
878.058	23334
878.185	23254
878.313	23368
878.441	23349
878.568	23170
878.696	23322
878.824	23528
878.951	23600
879.079	23528
879.206	23726
879.333	23482
879.461	23410
879.588	23531
879.715	23608
879.842	23672
879.97	23330
880.097	23292
880.224	23193
880.351	23159
880.478	23303
880.605	23102
880.732	23204
880.859	23395
880.986	23159
881.112	23155
881.239	23159
881.366	22968
881.493	22919
881.619	22771
881.746	22976
881.872	22889
881.999	22782
882.125	22675
882.252	22816
882.378	22839
882.505	22915
882.631	22588
882.757	22588
882.883	22618
883.01	22417
883.136	22344
883.262	22344
883.388	22371
883.514	22523
883.64	22535
883.766	22459
883.892	22265
884.018	22329
884.143	22398
884.269	22569
884.395	22143
884.52	22101
884.646	22139
884.772	21975
884.897	22029
885.023	22166
885.148	22207
885.274	22169
885.399	22147
885.524	22116
885.65	22188
885.775	22112
885.9	22177
886.025	22295
886.15	22036
886.275	22055
886.4	22010
886.525	22135
886.65	22109
886.775	22109
886.9	22253
887.025	22341
887.149	22074
887.274	21884
887.399	21930
887.523	21968
887.648	21838
887.773	21755
887.897	21934
888.021	21842
888.146	21823
888.27	21880
888.395	21827
888.519	21823
888.643	21804
888.767	21812
888.891	21854
889.015	21675
889.139	21747
889.263	21709
889.387	21823
889.511	21808
889.635	21766
889.759	21660
889.883	21587
890.006	21663
890.13	21793
890.254	21557
890.377	21637
890.501	21469
890.624	21351
890.748	21454
890.871	21287
890.995	21058
891.118	21211
891.241	21252
891.364	21302
891.488	21340
891.611	21275
891.734	21165
891.857	21268
891.98	21108
892.103	21100
892.226	21180
892.349	21119
892.471	21005
892.594	21233
892.717	21192
892.839	21104
892.962	21066
893.085	21135
893.207	21066
893.33	20963
893.452	21123
893.575	21062
893.697	21032
893.819	21378
893.941	21256
894.064	21268
894.186	21058
894.308	20994
894.43	21062
894.552	21180
894.674	21142
894.796	21009
894.918	21165
895.04	21104
895.161	21017
895.283	21180
895.405	20956
895.526	21218
895.648	21116
895.769	21173
895.891	21154
896.012	21165
896.134	21226
896.255	21116
896.376	20963
896.498	21062
896.619	21020
896.74	21017
896.861	21150
896.982	21408
897.103	21500
897.224	21336
897.345	21245
897.466	21218
897.587	21340
897.708	21355
897.828	21230
897.949	21317
898.07	21039
898.19	21176
898.311	21424
898.431	21180
898.552	21279
898.672	21332
898.792	21359
898.913	21249
899.033	21211
899.153	21020
899.273	20880
899.393	21070
899.513	21077
899.633	21070
899.753	21001
899.873	21028
899.993	20986
900.113	20975
900.232	20891
900.352	20769
900.472	20826
900.591	20720
900.711	20944
900.83	20902
900.95	20834
901.069	20899
901.189	20606
901.308	20396
901.427	20396
901.546	20343
901.665	20442
901.784	20336
901.904	20115
902.023	20084
902.141	19982
902.26	19967
902.379	20043
902.498	19738
902.617	19845
902.735	19928
902.854	19830
902.973	19723
903.091	19529
903.21	19609
903.328	19540
903.446	19396
903.565	19251
903.683	19377
903.801	19072
903.919	19244
904.038	19198
904.156	19076
904.274	19141
904.392	19084
904.51	19046
904.627	19042
904.745	19050
904.863	18977
904.981	18856
905.098	18772
905.216	18753
905.334	18783
905.451	18772
905.569	18582
905.686	18726
905.803	18711
905.921	18460
906.038	18578
906.155	18498
906.272	18350
906.389	18456
906.506	18273
906.623	18327
906.74	18308
906.857	18102
906.974	18171
907.091	18262
907.208	18433
907.324	18414
907.441	18076
907.557	18015
907.674	17984
907.79	17939
907.907	17946
908.023	18098
908.139	17920
908.256	17882
908.372	17935
908.488	17882
908.604	17676
908.72	17703
908.836	17741
908.952	17687
909.068	17756
909.184	17783
909.3	17699
909.415	17665
909.531	17608
909.647	17440
909.762	17463
909.878	17345
909.993	17364
910.108	17452
910.224	17261
910.339	17337
910.454	17181
910.57	17128
910.685	17143
910.8	17318
910.915	17429
911.03	17220
911.145	16953
911.259	16892
911.374	16980
911.489	16854
911.604	16755
911.718	16717
911.833	16748
911.947	16653
912.062	16504
912.176	16744
912.291	16759
912.405	16679
912.519	16889
912.633	16915
912.748	16801
912.862	16763
912.976	16554
913.09	16428
913.204	16523
913.318	16538
913.431	16573
913.545	16565
913.659	16519
913.772	16588
913.886	16360
914	16230
914.113	16478
914.226	16386
914.34	16257
914.453	16169
914.566	16344
914.68	16116
914.793	16086
914.906	15964
915.019	15964
915.132	15778
915.245	15895
915.358	15979
915.47	15873
915.583	15850
915.696	16002
915.809	15953
915.921	15994
916.034	15762
916.146	15675
916.259	15675
916.371	15800
916.483	15728
916.595	15690
916.708	15675
916.82	15713
916.932	15564
917.044	15671
917.156	15625
917.268	15462
917.38	15481
917.491	15462
917.603	15466
917.715	15481
917.826	15641
917.938	15424
918.049	15374
918.161	15526
918.272	15610
918.384	15545
918.495	15447
918.606	15184
918.717	15294
918.828	15233
918.939	15199
919.05	15077
919.161	15199
919.272	15051
919.383	15093
919.494	15294
919.604	15462
919.715	15264
919.826	15146
919.936	15169
920.047	15272
920.157	15207
920.267	15389
920.378	15207
920.488	15226
920.598	15336
920.708	15507
920.818	15340
920.928	15264
921.038	15485
921.148	15458
921.258	15165
921.368	15017
921.477	14872
921.587	14956
921.697	14811
921.806	14929
921.916	14746
922.025	14556
922.134	14507
922.244	14522
922.353	14590
922.462	14271
922.571	14339
922.68	14164
922.789	14157
922.898	14210
923.007	14111
923.116	14172
923.224	14229
923.333	14248
923.442	13974
923.55	14043
923.659	14065
923.767	14054
923.876	13982
923.984	13993
924.092	13887
924.201	13936
924.309	13875
924.417	13925
924.525	13871
924.633	13769
924.741	14663
924.849	13670
924.956	13753
925.064	13616
925.172	13495
925.279	13529
925.387	13636
925.494	13582
925.602	13696
925.709	13590
925.816	13499
925.924	13510
926.031	13559
926.138	13468
926.245	13529
926.352	13411
926.459	13544
926.566	13586
926.673	13434
926.779	13384
926.886	13343
926.993	13171
927.099	13160
927.206	13137
927.312	13053
927.419	13168
927.525	13027
927.631	13122
927.737	13012
927.843	12981
927.95	12745
928.056	12954
928.162	12924
928.267	12920
928.373	13571
928.479	13000
928.585	12764
928.69	12859
928.796	13012
928.901	12741
929.007	12540
929.112	12764
929.218	12783
929.323	12631
929.428	12639
929.533	12719
929.638	12563
929.743	12593
929.848	12604
929.953	12582
930.058	12464
930.163	12266
930.267	12369
930.372	12448
930.477	12209
930.581	12513
930.685	12399
930.79	12163
930.894	12216
930.998	12205
931.103	12285
931.207	11916
931.311	11783
931.415	11714
931.519	11562
931.623	11368
