Data from test_V78500241_2710.txt Node
Date: Fri Mar 25 16:00:34 CST 2022
User: usil
Spectrometer: V785-0024
Trigger mode: 0
Integration Time (sec): 4.000000E-1
Scans to average: 1
Nonlinearity correction enabled: false
Boxcar width: 0
Storing dark spectrum: false
XAxis mode: Wavelengths
Number of Pixels in Spectrum: 1024
>>>>>Begin Spectral Data<<<<<
801.071	28451
801.214	28409
801.356	28299
801.499	28272
801.641	28006
801.783	27945
801.926	28063
802.068	28135
802.211	27968
802.353	27846
802.496	27854
802.638	27751
802.78	27614
802.923	27690
803.065	27641
803.208	27660
803.35	27739
803.492	27854
803.635	27975
803.777	27789
803.919	27941
804.061	28314
804.204	28025
804.346	27937
804.488	27876
804.63	27979
804.773	27888
804.915	27972
805.057	28169
805.199	28006
805.341	27991
805.483	28234
805.626	28074
805.768	27972
805.91	28051
806.052	28204
806.194	28147
806.336	28318
806.478	28143
806.62	28086
806.762	28181
806.904	28409
807.046	28573
807.188	28523
807.33	28462
807.472	28569
807.614	28569
807.756	28535
807.898	28474
808.04	28265
808.182	28493
808.324	28470
808.465	28542
808.607	28637
808.749	28782
808.891	28790
809.033	28934
809.174	28854
809.316	28759
809.458	28809
809.6	28786
809.741	28877
809.883	28946
810.025	29113
810.166	29014
810.308	28961
810.45	28957
810.591	28915
810.733	28885
810.875	28793
811.016	28683
811.158	28664
811.299	28873
811.441	28938
811.582	28949
811.724	28858
811.865	28736
812.007	28698
812.148	28923
812.29	28801
812.431	28972
812.573	29041
812.714	29231
812.855	29322
812.997	29524
813.138	29623
813.279	29566
813.421	29410
813.562	29235
813.703	29162
813.845	28904
813.986	28710
814.127	28584
814.268	28432
814.41	28409
814.551	28592
814.692	28485
814.833	28413
814.974	28409
815.115	28455
815.256	28333
815.397	28333
815.539	28329
815.68	28211
815.821	28124
815.962	28249
816.103	28314
816.244	28147
816.385	28101
816.526	28078
816.666	27964
816.807	27660
816.948	27846
817.089	27846
817.23	27800
817.371	27808
817.512	27880
817.653	27766
817.793	27793
817.934	27629
818.075	27869
818.216	27739
818.356	27667
818.497	27557
818.638	27492
818.778	27439
818.919	27610
819.06	27450
819.2	27686
819.341	27854
819.481	27831
819.622	27975
819.762	28082
819.903	28131
820.043	28059
820.184	28002
820.324	27895
820.465	27953
820.605	27873
820.746	27804
820.886	27846
821.026	27926
821.167	27884
821.307	27979
821.447	27823
821.588	27705
821.728	27679
821.868	27386
822.008	27389
822.149	27256
822.289	27298
822.429	27051
822.569	26929
822.709	27009
822.849	26777
822.99	26944
823.13	26625
823.27	26758
823.41	26602
823.55	26362
823.69	26720
823.83	26499
823.97	26514
824.11	26305
824.25	26366
824.389	26457
824.529	26476
824.669	26488
824.809	26526
824.949	26552
825.089	26560
825.228	26377
825.368	26240
825.508	26298
825.648	26313
825.787	26343
825.927	26393
826.067	26263
826.206	26225
826.346	26358
826.485	26347
826.625	26301
826.765	26358
826.904	26252
827.044	26142
827.183	26103
827.323	26043
827.462	26142
827.601	26054
827.741	26050
827.88	26027
828.02	25940
828.159	25963
828.298	26035
828.437	26176
828.577	25913
828.716	26046
828.855	25887
828.994	25708
829.134	25647
829.273	25712
829.412	25571
829.551	25609
829.69	25639
829.829	25795
829.968	25761
830.107	25757
830.246	25677
830.385	25658
830.524	25620
830.663	25491
830.802	25411
830.941	25240
831.08	25316
831.219	25430
831.357	25419
831.496	25403
831.635	25289
831.774	25304
831.913	25217
832.051	25194
832.19	25095
832.329	25099
832.467	25042
832.606	24928
832.744	25012
832.883	25050
833.022	25027
833.16	25015
833.299	24932
833.437	25027
833.576	25091
833.714	25095
833.852	25084
833.991	25008
834.129	25053
834.267	25110
834.406	25160
834.544	25088
834.682	25012
834.821	24920
834.959	25118
835.097	24951
835.235	25126
835.373	25050
835.511	24973
835.65	24890
835.788	25103
835.926	24764
836.064	24760
836.202	24692
836.34	25008
836.478	24901
836.615	24810
836.753	25027
836.891	24958
837.029	24973
837.167	24867
837.305	24722
837.443	24760
837.58	24661
837.718	24741
837.856	24635
837.993	24650
838.131	24734
838.269	24582
838.406	24513
838.544	24498
838.681	24441
838.819	24327
838.956	24228
839.094	24159
839.231	24262
839.369	24426
839.506	24494
839.643	24452
839.781	24110
839.918	24136
840.055	24015
840.193	24129
840.33	24049
840.467	24068
840.604	24121
840.742	24289
840.879	23931
841.016	23988
841.153	24030
841.29	24148
841.427	24030
841.564	24064
841.701	24022
841.838	23980
841.975	23885
842.112	23984
842.249	23885
842.385	23836
842.522	24171
842.659	24018
842.796	23748
842.933	23874
843.069	23828
843.206	23870
843.343	23882
843.479	23813
843.616	23786
843.752	23668
843.889	23642
844.025	23748
844.162	23566
844.298	23554
844.435	23668
844.571	23581
844.708	23676
844.844	23699
844.98	23843
845.117	23745
845.253	23543
845.389	23589
845.525	23459
845.661	23566
845.798	23197
845.934	23493
846.07	23265
846.206	23364
846.342	23425
846.478	23372
846.614	23083
846.75	23128
846.886	23075
847.022	23010
847.158	23060
847.294	23170
847.429	23079
847.565	23071
847.701	23318
847.837	22847
847.972	22843
848.108	22927
848.244	23041
848.379	22801
848.515	22713
848.65	22641
848.786	22748
848.921	22740
849.057	22698
849.192	22683
849.328	22752
849.463	22664
849.598	22649
849.734	22599
849.869	22565
850.004	22462
850.14	22508
850.275	22455
850.41	22344
850.545	22363
850.68	22337
850.815	22485
850.95	22489
851.085	22523
851.22	22500
851.355	22443
851.49	22432
851.625	22295
851.76	22451
851.895	22295
852.03	22436
852.165	22348
852.299	22474
852.434	22649
852.569	22394
852.703	22394
852.838	22542
852.973	22519
853.107	22451
853.242	22348
853.376	22314
853.511	22181
853.645	22196
853.78	22322
853.914	22257
854.048	22154
854.183	22207
854.317	22112
854.451	22402
854.585	22303
854.72	22238
854.854	22360
854.988	22188
855.122	22200
855.256	22139
855.39	22105
855.524	22322
855.658	22284
855.792	22329
855.926	22299
856.06	22230
856.194	22390
856.327	22230
856.461	22185
856.595	22261
856.729	22169
856.862	22310
856.996	22169
857.13	22207
857.263	22402
857.397	22215
857.53	22147
857.664	22322
857.797	22348
857.931	22310
858.064	22234
858.197	22440
858.331	22295
858.464	22219
858.597	22120
858.731	22234
858.864	22207
858.997	22173
859.13	22181
859.263	22299
859.396	22284
859.529	22147
859.662	22147
859.795	22177
859.928	22147
860.061	22390
860.194	22432
860.327	22226
860.46	22402
860.592	22246
860.725	22367
860.858	22474
860.99	22234
861.123	22143
861.256	22154
861.388	22363
861.521	23010
861.653	22109
861.786	21968
861.918	22048
862.05	22219
862.183	22032
862.315	22120
862.447	22147
862.58	22120
862.712	21880
862.844	21956
862.976	22006
863.108	22135
863.24	22291
863.372	21838
863.504	21915
863.636	21857
863.768	21934
863.9	22055
864.032	21823
864.164	21922
864.296	22021
864.428	22025
864.559	21994
864.691	21911
864.823	21987
864.954	21972
865.086	21876
865.217	21793
865.349	21774
865.48	21892
865.612	21778
865.743	21941
865.875	21831
866.006	21812
866.137	21823
866.269	21789
866.4	21743
866.531	21660
866.662	21614
866.793	21781
866.924	21686
867.055	21793
867.186	21823
867.317	21656
867.448	21545
867.579	21724
867.71	21701
867.841	21720
867.972	21717
868.103	21816
868.233	21724
868.364	21793
868.495	21850
868.625	22032
868.756	22109
868.886	22032
869.017	22025
869.147	22158
869.278	22124
869.408	21926
869.539	21888
869.669	22166
869.799	22010
869.929	22021
870.06	22090
870.19	22261
870.32	22382
870.45	22356
870.58	22466
870.71	22504
870.84	22470
870.97	22447
871.1	22440
871.23	22592
871.36	22516
871.489	22535
871.619	22675
871.749	22603
871.879	22504
872.008	22656
872.138	22649
872.267	22653
872.397	22451
872.526	22428
872.656	22512
872.785	22447
872.915	22596
873.044	22607
873.173	22668
873.303	22603
873.432	22748
873.561	22752
873.69	22713
873.819	22744
873.948	22580
874.077	22683
874.206	22474
874.335	22569
874.464	22596
874.593	22816
874.722	22744
874.851	22793
874.979	22904
875.108	22889
875.237	22843
875.365	22771
875.494	22805
875.623	22835
875.751	22786
875.88	22687
876.008	23052
876.136	23010
876.265	23197
876.393	23330
876.521	23376
876.65	23269
876.778	23143
876.906	23128
877.034	23193
877.162	23132
877.29	23136
877.418	23242
877.546	23189
877.674	23151
877.802	23128
877.93	23162
878.058	23109
878.185	23105
878.313	23136
878.441	23193
878.568	22987
878.696	23178
878.824	23246
878.951	23307
879.079	23311
879.206	23444
879.333	23474
879.461	23280
879.588	23372
879.715	23429
879.842	23402
879.97	23299
880.097	23113
880.224	22919
880.351	23098
880.478	23022
880.605	22839
880.732	22991
880.859	23216
880.986	22934
881.112	22919
881.239	22854
881.366	22687
881.493	22687
881.619	22622
881.746	22554
881.872	22557
881.999	22478
882.125	22432
882.252	22580
882.378	22611
882.505	22679
882.631	22432
882.757	22238
882.883	22363
883.01	22230
883.136	22276
883.262	22158
883.388	22181
883.514	22234
883.64	22238
883.766	22169
883.892	21964
884.018	22021
884.143	22173
884.269	22337
884.395	22044
884.52	21987
884.646	21926
884.772	21686
884.897	21892
885.023	21842
885.148	21968
885.274	22093
885.399	21956
885.524	21915
885.65	21888
885.775	21949
885.9	21831
886.025	21945
886.15	21915
886.275	21823
886.4	21800
886.525	21660
886.65	21778
886.775	21888
886.9	21983
887.025	22021
887.149	21926
887.274	21679
887.399	21728
887.523	21682
887.648	21637
887.773	21572
887.897	21724
888.021	21713
888.146	21599
888.27	21682
888.395	21755
888.519	21671
888.643	21606
888.767	21736
888.891	21488
889.015	21473
889.139	21481
889.263	21389
889.387	21568
889.511	21694
889.635	21606
889.759	21458
889.883	21443
890.006	21408
890.13	21420
890.254	21443
890.377	21302
890.501	21161
890.624	21070
890.748	21237
890.871	20979
890.995	21036
891.118	20963
891.241	20967
891.364	20956
891.488	21176
891.611	21062
891.734	21020
891.857	21009
891.98	21051
892.103	21017
892.226	20937
892.349	20864
892.471	20712
892.594	20925
892.717	20963
892.839	20925
892.962	20842
893.085	20952
893.207	21051
893.33	20845
893.452	20811
893.575	21028
893.697	20811
893.819	20986
893.941	20986
894.064	20994
894.186	20899
894.308	20762
894.43	20963
894.552	21036
894.674	20918
894.796	20689
894.918	20948
895.04	20921
895.161	20914
895.283	20880
895.405	20758
895.526	20868
895.648	20887
895.769	20804
895.891	20902
896.012	20906
896.134	20925
896.255	21013
896.376	20769
896.498	20834
896.619	20800
896.74	20982
896.861	21020
896.982	21157
897.103	21389
897.224	21203
897.345	20963
897.466	21055
897.587	21066
897.708	21180
897.828	21017
897.949	21074
898.07	20891
898.19	20960
898.311	21089
898.431	20921
898.552	21093
898.672	21203
898.792	21089
898.913	21116
899.033	21043
899.153	20880
899.273	20773
899.393	20834
899.513	20883
899.633	20872
899.753	20845
899.873	20754
899.993	20941
900.113	20712
900.232	20735
900.352	20678
900.472	20594
900.591	20636
900.711	20590
900.83	20492
900.95	20594
901.069	20587
901.189	20564
901.308	20252
901.427	20153
901.546	20164
901.665	20134
901.784	20149
901.904	20024
902.023	19940
902.141	19681
902.26	19662
902.379	19784
902.498	19601
902.617	19613
902.735	19727
902.854	19605
902.973	19510
903.091	19381
903.21	19297
903.328	19282
903.446	19171
903.565	19160
903.683	19225
903.801	19012
903.919	19069
904.038	19084
904.156	18920
904.274	18928
904.392	18772
904.51	18798
904.627	18791
904.745	18825
904.863	18856
904.981	18620
905.098	18513
905.216	18574
905.334	18506
905.451	18635
905.569	18448
905.686	18559
905.803	18521
905.921	18319
906.038	18414
906.155	18338
906.272	18216
906.389	18258
906.506	18060
906.623	18034
906.74	18003
906.857	17874
906.974	17958
907.091	18087
907.208	18098
907.324	18072
907.441	17969
907.557	17786
907.674	17783
907.79	17752
907.907	17714
908.023	17775
908.139	17802
908.256	17680
908.372	17646
908.488	17608
908.604	17524
908.72	17516
908.836	17501
908.952	17558
909.068	17414
909.184	17581
909.3	17459
909.415	17589
909.531	17455
909.647	17242
909.762	17166
909.878	17280
909.993	17239
910.108	17117
910.224	17265
910.339	17178
910.454	17079
910.57	17010
910.685	16877
910.8	17212
910.915	17140
911.03	17003
911.145	16740
911.259	16797
911.374	16824
911.489	16702
911.604	16611
911.718	16497
911.833	16588
911.947	16466
912.062	16413
912.176	16497
912.291	16485
912.405	16535
912.519	16656
912.633	16630
912.748	16573
912.862	16455
912.976	16325
913.09	16211
913.204	16306
913.318	16318
913.431	16409
913.545	16455
913.659	16405
913.772	16204
913.886	16242
914	16093
914.113	16116
914.226	16242
914.34	16204
914.453	15960
914.566	16162
914.68	16086
914.793	15915
914.906	15812
915.019	15743
915.132	15519
915.245	15732
915.358	15747
915.47	15686
915.583	15705
915.696	15671
915.809	15720
915.921	15880
916.034	15667
916.146	15690
916.259	15633
916.371	15595
916.483	15618
916.595	15671
916.708	15473
916.82	15481
916.932	15534
917.044	15488
917.156	15500
917.268	15340
917.38	15397
917.491	15272
917.603	15264
917.715	15416
917.826	15317
917.938	15226
918.049	15097
918.161	15230
918.272	15408
918.384	15405
918.495	15249
918.606	15135
918.717	15074
918.828	15108
918.939	15013
919.05	14998
919.161	15165
919.272	14902
919.383	14979
919.494	15135
919.604	15233
919.715	15108
919.826	14979
919.936	14982
920.047	15100
920.157	15036
920.267	15245
920.378	15085
920.488	15020
920.598	15249
920.708	15313
920.818	15154
920.928	15169
921.038	15302
921.148	15195
921.258	14952
921.368	14994
921.477	14758
921.587	14667
921.697	14667
921.806	14773
921.916	14511
922.025	14503
922.134	14457
922.244	14343
922.353	14343
922.462	14221
922.571	14138
922.68	14027
922.789	14107
922.898	14039
923.007	14005
923.116	14065
923.224	13936
923.333	13967
923.442	13879
923.55	13845
923.659	13925
923.767	13963
923.876	13833
923.984	13799
924.092	13719
924.201	13727
924.309	13803
924.417	13685
924.525	13658
924.633	13723
924.741	14651
924.849	13521
924.956	13689
925.064	13540
925.172	13350
925.279	13472
925.387	13335
925.494	13441
925.602	13552
925.709	13499
925.816	13278
925.924	13384
926.031	13457
926.138	13381
926.245	13403
926.352	13266
926.459	13415
926.566	13449
926.673	13301
926.779	13118
926.886	13046
926.993	12970
927.099	12973
927.206	12840
927.312	12890
927.419	12993
927.525	12985
927.631	12947
927.737	12825
927.843	12810
927.95	12726
928.056	12791
928.162	12814
928.267	12772
928.373	13365
928.479	12886
928.585	12578
928.69	12715
928.796	12760
928.901	12688
929.007	12509
929.112	12620
929.218	12559
929.323	12547
929.428	12464
929.533	12650
929.638	12395
929.743	12502
929.848	12464
929.953	12448
930.058	12273
930.163	12159
930.267	12095
930.372	12304
930.477	12110
930.581	12410
930.685	12129
930.79	12019
930.894	12091
930.998	11923
931.103	12182
931.207	11805
931.311	11718
931.415	11600
931.519	11417
931.623	11486
