Data from test_V78500241_2874.txt Node
Date: Fri Mar 25 16:01:42 CST 2022
User: usil
Spectrometer: V785-0024
Trigger mode: 0
Integration Time (sec): 4.000000E-1
Scans to average: 1
Nonlinearity correction enabled: false
Boxcar width: 0
Storing dark spectrum: false
XAxis mode: Wavelengths
Number of Pixels in Spectrum: 1024
>>>>>Begin Spectral Data<<<<<
801.071	28474
801.214	28531
801.356	28337
801.499	28322
801.641	28017
801.783	28139
801.926	28147
802.068	28120
802.211	27987
802.353	28109
802.496	27888
802.638	27918
802.78	27701
802.923	27755
803.065	27762
803.208	27686
803.35	27876
803.492	28112
803.635	28051
803.777	27922
803.919	28067
804.061	28310
804.204	28021
804.346	28002
804.488	27934
804.63	28097
804.773	28120
804.915	28086
805.057	28230
805.199	28025
805.341	28112
805.483	28242
805.626	28246
805.768	28234
805.91	28029
806.052	28242
806.194	28131
806.336	28261
806.478	28261
806.62	28200
806.762	28344
806.904	28455
807.046	28706
807.188	28607
807.33	28649
807.472	28660
807.614	28622
807.756	28748
807.898	28474
808.04	28500
808.182	28512
808.324	28607
808.465	28500
808.607	28816
808.749	28984
808.891	28919
809.033	29098
809.174	28892
809.316	28866
809.458	28915
809.6	28942
809.741	29006
809.883	29197
810.025	29242
810.166	29048
810.308	29090
810.45	29098
810.591	29083
810.733	28938
810.875	28938
811.016	28854
811.158	28892
811.299	28968
811.441	29113
811.582	29071
811.724	28736
811.865	28812
812.007	28843
812.148	29041
812.29	29041
812.431	29079
812.573	29242
812.714	29341
812.855	29467
812.997	29455
813.138	29760
813.279	29535
813.421	29535
813.562	29379
813.703	29235
813.845	29075
813.986	28965
814.127	28713
814.268	28599
814.41	28615
814.551	28584
814.692	28523
814.833	28512
814.974	28481
815.115	28721
815.256	28325
815.397	28421
815.539	28550
815.68	28428
815.821	28306
815.962	28447
816.103	28500
816.244	28303
816.385	28154
816.526	28185
816.666	28013
816.807	27762
816.948	27922
817.089	27941
817.23	27934
817.371	27972
817.512	27934
817.653	27911
817.793	27846
817.934	27949
818.075	27922
818.216	27960
818.356	27857
818.497	27854
818.638	27660
818.778	27663
818.919	27587
819.06	27781
819.2	27831
819.341	27926
819.481	27949
819.622	28181
819.762	28177
819.903	28139
820.043	28105
820.184	28013
820.324	28093
820.465	27998
820.605	27934
820.746	28036
820.886	27865
821.026	27968
821.167	27994
821.307	28040
821.447	28097
821.588	27755
821.728	27812
821.868	27545
822.008	27431
822.149	27473
822.289	27435
822.429	27165
822.569	27005
822.709	27039
822.849	26986
822.99	26902
823.13	26815
823.27	26887
823.41	26701
823.55	26674
823.69	26712
823.83	26686
823.97	26674
824.11	26503
824.25	26552
824.389	26495
824.529	26651
824.669	26499
824.809	26663
824.949	26583
825.089	26560
825.228	26465
825.368	26324
825.508	26415
825.648	26370
825.787	26522
825.927	26427
826.067	26465
826.206	26393
826.346	26480
826.485	26552
826.625	26507
826.765	26530
826.904	26438
827.044	26153
827.183	26172
827.323	26191
827.462	26126
827.601	26187
827.741	26096
827.88	26172
828.02	25906
828.159	26054
828.298	26142
828.437	26142
828.577	26134
828.716	26267
828.855	26237
828.994	25883
829.134	25826
829.273	25814
829.412	25791
829.551	25826
829.69	25795
829.829	25928
829.968	25887
830.107	25955
830.246	25864
830.385	25723
830.524	25814
830.663	25700
830.802	25578
830.941	25419
831.08	25422
831.219	25518
831.357	25529
831.496	25643
831.635	25445
831.774	25301
831.913	25403
832.051	25320
832.19	25156
832.329	25297
832.467	25168
832.606	24966
832.744	25160
832.883	25027
833.022	25069
833.16	25099
833.299	25042
833.437	25099
833.576	25266
833.714	25263
833.852	25160
833.991	25183
834.129	25259
834.267	25190
834.406	25095
834.544	25148
834.682	25213
834.821	25023
834.959	25289
835.097	25091
835.235	25373
835.373	25023
835.511	25080
835.65	24962
835.788	25053
835.926	24947
836.064	24665
836.202	24821
836.34	24962
836.478	25027
836.615	25038
836.753	24981
836.891	24939
837.029	25038
837.167	25019
837.305	25019
837.443	24856
837.58	24741
837.718	24886
837.856	24768
837.993	24779
838.131	24783
838.269	24650
838.406	24692
838.544	24635
838.681	24399
838.819	24585
838.956	24304
839.094	24243
839.231	24308
839.369	24479
839.506	24547
839.643	24502
839.781	24296
839.918	24224
840.055	24273
840.193	24296
840.33	24228
840.467	24155
840.604	24254
840.742	24509
840.879	24072
841.016	24136
841.153	23992
841.29	24205
841.427	24243
841.564	24232
841.701	24125
841.838	24216
841.975	24159
842.112	24102
842.249	24049
842.385	23885
842.522	24152
842.659	24068
842.796	23897
842.933	23969
843.069	23874
843.206	23920
843.343	23969
843.479	23866
843.616	23836
843.752	23756
843.889	23710
844.025	23889
844.162	23600
844.298	23824
844.435	23710
844.571	23665
844.708	23699
844.844	23889
844.98	23999
845.117	23805
845.253	23745
845.389	23535
845.525	23661
845.661	23543
845.798	23463
845.934	23573
846.07	23414
846.206	23387
846.342	23543
846.478	23330
846.614	23280
846.75	23075
846.886	23212
847.022	23239
847.158	23242
847.294	23258
847.429	23349
847.565	23151
847.701	23398
847.837	22957
847.972	22824
848.108	22869
848.244	22991
848.379	22831
848.515	22744
848.65	22721
848.786	22721
848.921	22771
849.057	22908
849.192	22843
849.328	22820
849.463	22710
849.598	22725
849.734	22713
849.869	22649
850.004	22675
850.14	22615
850.275	22569
850.41	22409
850.545	22443
850.68	22577
850.815	22557
850.95	22630
851.085	22557
851.22	22664
851.355	22538
851.49	22531
851.625	22538
851.76	22634
851.895	22542
852.03	22478
852.165	22455
852.299	22698
852.434	22664
852.569	22634
852.703	22497
852.838	22531
852.973	22763
853.107	22698
853.242	22451
853.376	22310
853.511	22246
853.645	22314
853.78	22436
853.914	22329
854.048	22272
854.183	22299
854.317	22405
854.451	22584
854.585	22333
854.72	22428
854.854	22546
854.988	22325
855.122	22333
855.256	22166
855.39	22223
855.524	22348
855.658	22428
855.792	22382
855.926	22421
856.06	22398
856.194	22394
856.327	22440
856.461	22303
856.595	22257
856.729	22333
856.862	22451
856.996	22360
857.13	22341
857.263	22440
857.397	22417
857.53	22329
857.664	22341
857.797	22474
857.931	22363
858.064	22516
858.197	22516
858.331	22318
858.464	22230
858.597	22158
858.731	22356
858.864	22440
858.997	22246
859.13	22242
859.263	22390
859.396	22523
859.529	22249
859.662	22310
859.795	22166
859.928	22386
860.061	22413
860.194	22519
860.327	22322
860.46	22405
860.592	22413
860.725	22573
860.858	22451
860.99	22348
861.123	22272
861.256	22181
861.388	22363
861.521	23113
861.653	22242
861.786	22109
861.918	22204
862.05	22185
862.183	22223
862.315	22246
862.447	22318
862.58	22360
862.712	22059
862.844	21945
862.976	22188
863.108	22139
863.24	22596
863.372	21960
863.504	22055
863.636	22074
863.768	22109
863.9	22128
864.032	22036
864.164	21979
864.296	22131
864.428	22200
864.559	22185
864.691	22082
864.823	21945
864.954	21907
865.086	22017
865.217	21994
865.349	21880
865.48	21850
865.612	21816
865.743	22021
865.875	21812
866.006	21808
866.137	21994
866.269	21850
866.4	21918
866.531	21911
866.662	21789
866.793	21888
866.924	21895
867.055	21857
867.186	21850
867.317	21800
867.448	21812
867.579	21892
867.71	21774
867.841	21622
867.972	21759
868.103	21884
868.233	22013
868.364	21816
868.495	21960
868.625	22166
868.756	22192
868.886	21895
869.017	22093
869.147	22162
869.278	22287
869.408	22059
869.539	22135
869.669	22162
869.799	22257
869.929	22242
870.06	22268
870.19	22432
870.32	22341
870.45	22455
870.58	22493
870.71	22607
870.84	22546
870.97	22481
871.1	22516
871.23	22653
871.36	22713
871.489	22455
871.619	22618
871.749	22603
871.879	22675
872.008	22869
872.138	22771
872.267	22691
872.397	22630
872.526	22481
872.656	22421
872.785	22550
872.915	22645
873.044	22820
873.173	22668
873.303	22725
873.432	22763
873.561	22805
873.69	22733
873.819	22656
873.948	22892
874.077	22656
874.206	22641
874.335	22774
874.464	22782
874.593	23098
874.722	22847
874.851	22965
874.979	22987
875.108	22930
875.237	22828
875.365	22717
875.494	22839
875.623	23033
875.751	22812
875.88	22938
876.008	23166
876.136	23105
876.265	23353
876.393	23425
876.521	23379
876.65	23261
876.778	23288
876.906	23212
877.034	23292
877.162	23330
877.29	23132
877.418	23242
877.546	23292
877.674	23303
877.802	23155
877.93	23246
878.058	23212
878.185	23189
878.313	23117
878.441	23128
878.568	23166
878.696	23246
878.824	23250
878.951	23440
879.079	23349
879.206	23551
879.333	23417
879.461	23318
879.588	23349
879.715	23490
879.842	23551
879.97	23261
880.097	23113
880.224	23147
880.351	23136
880.478	23086
880.605	23041
880.732	23181
880.859	23433
880.986	23075
881.112	23151
881.239	22991
881.366	22850
881.493	22805
881.619	22679
881.746	22748
881.872	22592
881.999	22580
882.125	22637
882.252	22660
882.378	22577
882.505	22664
882.631	22599
882.757	22402
882.883	22470
883.01	22375
883.136	22280
883.262	22344
883.388	22158
883.514	22268
883.64	22493
883.766	22215
883.892	22143
884.018	22101
884.143	22234
884.269	22405
884.395	21979
884.52	21968
884.646	22173
884.772	21922
884.897	21819
885.023	22010
885.148	21922
885.274	22051
885.399	22082
885.524	21922
885.65	21998
885.775	22032
885.9	21903
886.025	22135
886.15	22051
886.275	22090
886.4	21968
886.525	21949
886.65	21827
886.775	21709
886.9	21991
887.025	22147
887.149	22006
887.274	21755
887.399	21743
887.523	21774
887.648	21709
887.773	21625
887.897	21785
888.021	21656
888.146	21671
888.27	21724
888.395	21915
888.519	21728
888.643	21675
888.767	21728
888.891	21633
889.015	21492
889.139	21511
889.263	21469
889.387	21523
889.511	21656
889.635	21591
889.759	21450
889.883	21435
890.006	21450
890.13	21713
890.254	21412
890.377	21291
890.501	21184
890.624	21203
890.748	21237
890.871	21074
890.995	21062
891.118	21028
891.241	21161
891.364	21161
891.488	21180
891.611	21036
891.734	21142
891.857	21131
891.98	21077
892.103	21047
892.226	21047
892.349	21024
892.471	20853
892.594	21039
892.717	21028
892.839	20990
892.962	20948
893.085	21119
893.207	20944
893.33	20834
893.452	20826
893.575	21005
893.697	20887
893.819	21100
893.941	21127
894.064	21081
894.186	20944
894.308	20998
894.43	21074
894.552	21066
894.674	21013
894.796	20811
894.918	20921
895.04	20876
895.161	20895
895.283	20986
895.405	20845
895.526	21051
895.648	20830
895.769	20925
895.891	21017
896.012	21047
896.134	21066
896.255	20971
896.376	20941
896.498	21013
896.619	20944
896.74	20990
896.861	20982
896.982	21112
897.103	21389
897.224	21222
897.345	21184
897.466	21096
897.587	21104
897.708	21325
897.828	21074
897.949	21131
898.07	21062
898.19	21112
898.311	21256
898.431	21169
898.552	21230
898.672	21207
898.792	21146
898.913	21119
899.033	21001
899.153	20960
899.273	20834
899.393	20902
899.513	20921
899.633	20849
899.753	20910
899.873	20861
899.993	20861
900.113	20960
900.232	20811
900.352	20823
900.472	20651
900.591	20590
900.711	20632
900.83	20625
900.95	20689
901.069	20571
901.189	20537
901.308	20385
901.427	20263
901.546	20142
901.665	20221
901.784	20122
901.904	20096
902.023	20020
902.141	19795
902.26	19738
902.379	19849
902.498	19738
902.617	19677
902.735	19799
902.854	19674
902.973	19635
903.091	19468
903.21	19350
903.328	19354
903.446	19247
903.565	19251
903.683	19160
903.801	19137
903.919	19164
904.038	19084
904.156	18909
904.274	19057
904.392	18993
904.51	18954
904.627	18993
904.745	18886
904.863	19080
904.981	18707
905.098	18593
905.216	18597
905.334	18688
905.451	18650
905.569	18620
905.686	18760
905.803	18566
905.921	18346
906.038	18509
906.155	18376
906.272	18376
906.389	18292
906.506	18186
906.623	18114
906.74	18079
906.857	18064
906.974	18068
907.091	18114
907.208	18235
907.324	18098
907.441	18038
907.557	17866
907.674	17805
907.79	17783
907.907	17783
908.023	17828
908.139	17920
908.256	17718
908.372	17710
908.488	17687
908.604	17524
908.72	17577
908.836	17596
908.952	17501
909.068	17562
909.184	17695
909.3	17520
909.415	17623
909.531	17600
909.647	17383
909.762	17265
909.878	17231
909.993	17269
910.108	17220
910.224	17212
910.339	17239
910.454	17162
910.57	17109
910.685	16976
910.8	17227
910.915	17242
911.03	16980
911.145	16911
911.259	16843
911.374	16820
911.489	16782
911.604	16790
911.718	16527
911.833	16752
911.947	16508
912.062	16478
912.176	16588
912.291	16527
912.405	16611
912.519	16812
912.633	16828
912.748	16603
912.862	16497
912.976	16447
913.09	16314
913.204	16325
913.318	16440
913.431	16569
913.545	16516
913.659	16493
913.772	16394
913.886	16207
914	16177
914.113	16287
914.226	16280
914.34	16246
914.453	16147
914.566	16109
914.68	16021
914.793	15998
914.906	15842
915.019	15797
915.132	15762
915.245	15747
915.358	15778
915.47	15808
915.583	15827
915.696	15800
915.809	15835
915.921	15766
916.034	15713
916.146	15717
916.259	15629
916.371	15759
916.483	15778
916.595	15572
916.708	15698
916.82	15675
916.932	15485
917.044	15511
917.156	15488
917.268	15412
917.38	15435
917.491	15477
917.603	15416
917.715	15393
917.826	15454
917.938	15344
918.049	15211
918.161	15230
918.272	15466
918.384	15511
918.495	15306
918.606	15161
918.717	15131
918.828	15154
918.939	15176
919.05	15070
919.161	15097
919.272	14937
919.383	14891
919.494	15116
919.604	15256
919.715	15241
919.826	15005
919.936	15188
920.047	15180
920.157	15150
920.267	15325
920.378	15089
920.488	14994
920.598	15310
920.708	15416
920.818	15264
920.928	15226
921.038	15393
921.148	15401
921.258	15039
921.368	14929
921.477	14849
921.587	14864
921.697	14579
921.806	14762
921.916	14655
922.025	14408
922.134	14457
922.244	14457
922.353	14560
922.462	14267
922.571	14252
922.68	14065
922.789	14103
922.898	14107
923.007	14043
923.116	14191
923.224	14050
923.333	14119
923.442	13932
923.55	14031
923.659	13932
923.767	13898
923.876	13849
923.984	13917
924.092	13841
924.201	13772
924.309	13864
924.417	13795
924.525	13689
924.633	13769
924.741	14697
924.849	13578
924.956	13681
925.064	13537
925.172	13354
925.279	13480
925.387	13502
925.494	13514
925.602	13525
925.709	13369
925.816	13392
925.924	13358
926.031	13575
926.138	13460
926.245	13400
926.352	13282
926.459	13460
926.566	13502
926.673	13381
926.779	13168
926.886	13164
926.993	13027
927.099	13072
927.206	12989
927.312	12943
927.419	13015
927.525	12993
927.631	13050
927.737	12958
927.843	12833
927.95	12738
928.056	12791
928.162	12916
928.267	12916
928.373	13472
928.479	12817
928.585	12646
928.69	12753
928.796	12802
928.901	12715
929.007	12566
929.112	12703
929.218	12604
929.323	12646
929.428	12616
929.533	12673
929.638	12445
929.743	12483
929.848	12544
929.953	12456
930.058	12414
930.163	12201
930.267	12205
930.372	12403
930.477	12163
930.581	12334
930.685	12220
930.79	12125
930.894	12136
930.998	12026
931.103	12163
931.207	11847
931.311	11714
931.415	11630
931.519	11516
931.623	11459
