Data from test_V78500241_3051.txt Node
Date: Fri Mar 25 16:02:56 CST 2022
User: usil
Spectrometer: V785-0024
Trigger mode: 0
Integration Time (sec): 4.000000E-1
Scans to average: 1
Nonlinearity correction enabled: false
Boxcar width: 0
Storing dark spectrum: false
XAxis mode: Wavelengths
Number of Pixels in Spectrum: 1024
>>>>>Begin Spectral Data<<<<<
801.071	28188
801.214	28341
801.356	27934
801.499	27987
801.641	27736
801.783	27785
801.926	27838
802.068	27785
802.211	27705
802.353	27766
802.496	27610
802.638	27447
802.78	27378
802.923	27386
803.065	27389
803.208	27424
803.35	27526
803.492	27466
803.635	27682
803.777	27515
803.919	27701
804.061	27972
804.204	27854
804.346	27663
804.488	27469
804.63	27633
804.773	27549
804.915	27804
805.057	27911
805.199	27846
805.341	27819
805.483	27907
805.626	27720
805.768	27903
805.91	27975
806.052	27899
806.194	27785
806.336	28017
806.478	27907
806.62	27755
806.762	27937
806.904	28135
807.046	28413
807.188	28226
807.33	28257
807.472	28314
807.614	28242
807.756	28265
807.898	28287
808.04	27975
808.182	28048
808.324	28154
808.465	28169
808.607	28295
808.749	28489
808.891	28588
809.033	28656
809.174	28596
809.316	28565
809.458	28577
809.6	28466
809.741	28584
809.883	28481
810.025	28869
810.166	28767
810.308	28782
810.45	28675
810.591	28797
810.733	28565
810.875	28455
811.016	28371
811.158	28386
811.299	28531
811.441	28649
811.582	28584
811.724	28421
811.865	28485
812.007	28481
812.148	28535
812.29	28546
812.431	28653
812.573	28778
812.714	28904
812.855	29037
812.997	29128
813.138	29353
813.279	29029
813.421	28995
813.562	28908
813.703	28736
813.845	28687
813.986	28535
814.127	28310
814.268	28116
814.41	28143
814.551	28211
814.692	28139
814.833	28169
814.974	28044
815.115	28261
815.256	28093
815.397	28074
815.539	28078
815.68	28006
815.821	27918
815.962	27979
816.103	27960
816.244	27732
816.385	27728
816.526	27713
816.666	27633
816.807	27412
816.948	27603
817.089	27656
817.23	27515
817.371	27443
817.512	27504
817.653	27336
817.793	27420
817.934	27454
818.075	27340
818.216	27355
818.356	27397
818.497	27370
818.638	27150
818.778	27211
818.919	27344
819.06	27351
819.2	27420
819.341	27545
819.481	27530
819.622	27675
819.762	27766
819.903	27781
820.043	27564
820.184	27614
820.324	27625
820.465	27743
820.605	27625
820.746	27523
820.886	27427
821.026	27561
821.167	27656
821.307	27595
821.447	27504
821.588	27443
821.728	27363
821.868	27123
822.008	26994
822.149	27119
822.289	26940
822.429	26716
822.569	26552
822.709	26659
822.849	26552
822.99	26499
823.13	26393
823.27	26488
823.41	26233
823.55	26214
823.69	26309
823.83	26313
823.97	26301
824.11	26218
824.25	26031
824.389	26069
824.529	26362
824.669	26134
824.809	26259
824.949	26218
825.089	26305
825.228	26271
825.368	25894
825.508	26065
825.648	26084
825.787	26119
825.927	26142
826.067	26054
826.206	26008
826.346	26062
826.485	26035
826.625	26005
826.765	26157
826.904	26024
827.044	25864
827.183	25772
827.323	25681
827.462	25704
827.601	25856
827.741	25772
827.88	25723
828.02	25510
828.159	25651
828.298	25845
828.437	25769
828.577	25613
828.716	25826
828.855	25620
828.994	25506
829.134	25403
829.273	25403
829.412	25396
829.551	25343
829.69	25327
829.829	25369
829.968	25495
830.107	25453
830.246	25400
830.385	25438
830.524	25362
830.663	25202
830.802	25156
830.941	24901
831.08	25038
831.219	24992
831.357	25171
831.496	25346
831.635	25012
831.774	24939
831.913	25034
832.051	24878
832.19	24783
832.329	24821
832.467	24673
832.606	24544
832.744	24544
832.883	24703
833.022	24700
833.16	24646
833.299	24760
833.437	24677
833.576	24700
833.714	24688
833.852	24837
833.991	24760
834.129	24844
834.267	24700
834.406	24913
834.544	24745
834.682	24669
834.821	24787
834.959	24909
835.097	24673
835.235	24856
835.373	24673
835.511	24776
835.65	24589
835.788	24490
835.926	24513
836.064	24308
836.202	24479
836.34	24658
836.478	24787
836.615	24608
836.753	24623
836.891	24563
837.029	24631
837.167	24563
837.305	24418
837.443	24441
837.58	24372
837.718	24547
837.856	24490
837.993	24410
838.131	24426
838.269	24239
838.406	24369
838.544	24235
838.681	24011
838.819	24060
838.956	23863
839.094	24007
839.231	23840
839.369	24091
839.506	24239
839.643	24072
839.781	23836
839.918	23729
840.055	23855
840.193	23874
840.33	23809
840.467	23783
840.604	23927
840.742	23958
840.879	23649
841.016	23748
841.153	23680
841.29	23893
841.427	23748
841.564	23794
841.701	23775
841.838	23817
841.975	23657
842.112	23726
842.249	23596
842.385	23478
842.522	23764
842.659	23703
842.796	23691
842.933	23558
843.069	23520
843.206	23554
843.343	23585
843.479	23562
843.616	23577
843.752	23337
843.889	23368
844.025	23467
844.162	23307
844.298	23406
844.435	23421
844.571	23269
844.708	23372
844.844	23520
844.98	23463
845.117	23406
845.253	23395
845.389	23200
845.525	23299
845.661	23242
845.798	23090
845.934	22946
846.07	23025
846.206	23041
846.342	23216
846.478	23105
846.614	22835
846.75	22691
846.886	22645
847.022	22881
847.158	22820
847.294	22793
847.429	22820
847.565	22721
847.701	23022
847.837	22531
847.972	22516
848.108	22577
848.244	22592
848.379	22447
848.515	22398
848.65	22459
848.786	22382
848.921	22337
849.057	22531
849.192	22333
849.328	22402
849.463	22363
849.598	22356
849.734	22360
849.869	22276
850.004	22196
850.14	22276
850.275	22207
850.41	22192
850.545	22215
850.68	22124
850.815	22192
850.95	22230
851.085	22310
851.22	22284
851.355	22242
851.49	22154
851.625	22150
851.76	22063
851.895	22139
852.03	22074
852.165	22166
852.299	22048
852.434	22234
852.569	22120
852.703	22124
852.838	22120
852.973	22268
853.107	22223
853.242	22051
853.376	22051
853.511	21888
853.645	21972
853.78	21960
853.914	21949
854.048	21903
854.183	22006
854.317	22074
854.451	22196
854.585	22086
854.72	21956
854.854	22036
854.988	21949
855.122	21876
855.256	21793
855.39	22070
855.524	22025
855.658	22074
855.792	21983
855.926	21964
856.06	22040
856.194	21979
856.327	21934
856.461	21922
856.595	21850
856.729	21949
856.862	22029
856.996	22048
857.13	22173
857.263	22059
857.397	22116
857.53	22040
857.664	22048
857.797	22112
857.931	22013
858.064	22063
858.197	22116
858.331	21964
858.464	21930
858.597	21979
858.731	21892
858.864	21918
858.997	21884
859.13	21926
859.263	21941
859.396	22128
859.529	21934
859.662	21907
859.795	21922
859.928	22021
860.061	22017
860.194	22223
860.327	21987
860.46	21983
860.592	22109
860.725	22093
860.858	22070
860.99	21994
861.123	21941
861.256	21934
861.388	22036
861.521	22831
861.653	21724
861.786	21755
861.918	21895
862.05	21869
862.183	21926
862.315	21953
862.447	22055
862.58	21915
862.712	21682
862.844	21580
862.976	21743
863.108	21587
863.24	22192
863.372	21622
863.504	21580
863.636	21610
863.768	21770
863.9	21743
864.032	21603
864.164	21614
864.296	21667
864.428	21865
864.559	21682
864.691	21549
864.823	21625
864.954	21644
865.086	21576
865.217	21549
865.349	21500
865.48	21545
865.612	21515
865.743	21743
865.875	21542
866.006	21416
866.137	21549
866.269	21564
866.4	21595
866.531	21420
866.662	21507
866.793	21443
866.924	21454
867.055	21492
867.186	21473
867.317	21401
867.448	21367
867.579	21424
867.71	21481
867.841	21408
867.972	21545
868.103	21496
868.233	21500
868.364	21671
868.495	21618
868.625	21728
868.756	21705
868.886	21606
869.017	21694
869.147	21827
869.278	21755
869.408	21816
869.539	21850
869.669	21728
869.799	21701
869.929	22010
870.06	21960
870.19	22086
870.32	22013
870.45	22131
870.58	22128
870.71	22177
870.84	22261
870.97	22082
871.1	22154
871.23	22329
871.36	22322
871.489	22265
871.619	22230
871.749	22360
871.879	22356
872.008	22424
872.138	22322
872.267	22348
872.397	22246
872.526	22166
872.656	22265
872.785	22238
872.915	22386
873.044	22470
873.173	22310
873.303	22325
873.432	22497
873.561	22462
873.69	22379
873.819	22421
873.948	22421
874.077	22295
874.206	22242
874.335	22424
874.464	22493
874.593	22577
874.722	22577
874.851	22634
874.979	22634
875.108	22630
875.237	22573
875.365	22451
875.494	22531
875.623	22729
875.751	22580
875.88	22592
876.008	22675
876.136	22717
876.265	22972
876.393	23208
876.521	23067
876.65	23102
876.778	22976
876.906	23071
877.034	22809
877.162	22904
877.29	22877
877.418	22919
877.546	22953
877.674	22904
877.802	22896
877.93	22904
878.058	22843
878.185	22828
878.313	22866
878.441	22862
878.568	22725
878.696	22812
878.824	22923
878.951	23140
879.079	23151
879.206	23223
879.333	23056
879.461	22995
879.588	22987
879.715	23151
879.842	23102
879.97	22953
880.097	22721
880.224	22790
880.351	22850
880.478	22771
880.605	22782
880.732	22645
880.859	23037
880.986	22930
881.112	22767
881.239	22645
881.366	22679
881.493	22443
881.619	22322
881.746	22299
881.872	22230
881.999	22287
882.125	22333
882.252	22272
882.378	22246
882.505	22390
882.631	22177
882.757	22055
882.883	22154
883.01	21987
883.136	21926
883.262	21854
883.388	21816
883.514	21956
883.64	21930
883.766	21937
883.892	21671
884.018	21907
884.143	22067
884.269	21934
884.395	21660
884.52	21576
884.646	21587
884.772	21663
884.897	21500
885.023	21603
885.148	21667
885.274	21739
885.399	21781
885.524	21713
885.65	21583
885.775	21618
885.9	21580
886.025	21804
886.15	21747
886.275	21622
886.4	21587
886.525	21610
886.65	21500
886.775	21534
886.9	21660
887.025	21835
887.149	21679
887.274	21329
887.399	21393
887.523	21393
887.648	21268
887.773	21283
887.897	21500
888.021	21568
888.146	21351
888.27	21488
888.395	21488
888.519	21511
888.643	21519
888.767	21466
888.891	21214
889.015	21233
889.139	21317
889.263	21157
889.387	21279
889.511	21420
889.635	21329
889.759	21184
889.883	21192
890.006	21252
890.13	21268
890.254	21237
890.377	21062
890.501	21020
890.624	21020
890.748	21055
890.871	20838
890.995	20834
891.118	20758
891.241	20758
891.364	20750
891.488	20796
891.611	20765
891.734	20746
891.857	20785
891.98	20731
892.103	20758
892.226	20651
892.349	20697
892.471	20552
892.594	20667
892.717	20682
892.839	20693
892.962	20564
893.085	20686
893.207	20644
893.33	20590
893.452	20716
893.575	20640
893.697	20552
893.819	20701
893.941	20796
894.064	20788
894.186	20617
894.308	20507
894.43	20693
894.552	20811
894.674	20781
894.796	20457
894.918	20560
895.04	20511
895.161	20720
895.283	20678
895.405	20541
895.526	20689
895.648	20606
895.769	20678
895.891	20590
896.012	20579
896.134	20537
896.255	20697
896.376	20537
896.498	20621
896.619	20587
896.74	20556
896.861	20800
896.982	20937
897.103	21093
897.224	20944
897.345	20807
897.466	20838
897.587	20792
897.708	20918
897.828	20777
897.949	20857
898.07	20804
898.19	20621
898.311	20960
898.431	20883
898.552	20849
898.672	20971
898.792	20842
898.913	20804
899.033	20705
899.153	20750
899.273	20484
899.393	20598
899.513	20731
899.633	20629
899.753	20640
899.873	20518
899.993	20594
900.113	20488
900.232	20598
900.352	20511
900.472	20374
900.591	20377
900.711	20320
900.83	20275
900.95	20499
901.069	20408
901.189	20256
901.308	20062
901.427	19955
901.546	19902
901.665	20065
901.784	19906
901.904	19765
902.023	19727
902.141	19552
902.26	19502
902.379	19540
902.498	19392
902.617	19559
902.735	19460
902.854	19403
902.973	19350
903.091	19103
903.21	19019
903.328	19129
903.446	19000
903.565	18867
903.683	18981
903.801	18871
903.919	18871
904.038	18856
904.156	18825
904.274	18749
904.392	18684
904.51	18601
904.627	18620
904.745	18692
904.863	18844
904.981	18433
905.098	18209
905.216	18357
905.334	18330
905.451	18239
905.569	18388
905.686	18395
905.803	18224
905.921	18087
906.038	18209
906.155	18076
906.272	18045
906.389	18136
906.506	17920
906.623	17882
906.74	17840
906.857	17840
906.974	17748
907.091	18076
907.208	18026
907.324	17832
907.441	17767
907.557	17581
907.674	17611
907.79	17455
907.907	17665
908.023	17524
908.139	17524
908.256	17512
908.372	17406
908.488	17429
908.604	17315
908.72	17273
908.836	17273
908.952	17318
909.068	17254
909.184	17265
909.3	17307
909.415	17318
909.531	17265
909.647	17010
909.762	16942
909.878	16949
909.993	16984
910.108	16942
910.224	16923
910.339	16953
910.454	16919
910.57	16774
910.685	16774
910.8	16968
910.915	16949
911.03	16854
911.145	16725
911.259	16592
911.374	16584
911.489	16645
911.604	16497
911.718	16234
911.833	16341
911.947	16337
912.062	16253
912.176	16188
912.291	16382
912.405	16314
912.519	16497
912.633	16455
912.748	16344
912.862	16287
912.976	16253
913.09	16055
913.204	16112
913.318	16105
913.431	16242
913.545	16230
913.659	16226
913.772	16112
913.886	15884
914	15895
914.113	15922
914.226	15960
914.34	15987
914.453	15850
914.566	15945
914.68	15835
914.793	15850
914.906	15549
915.019	15599
915.132	15447
915.245	15557
915.358	15568
915.47	15469
915.583	15538
915.696	15488
915.809	15652
915.921	15682
916.034	15469
916.146	15450
916.259	15420
916.371	15549
916.483	15549
916.595	15367
916.708	15370
916.82	15344
916.932	15283
917.044	15230
917.156	15256
917.268	15157
917.38	15173
917.491	15146
917.603	15074
917.715	15214
917.826	15233
917.938	15268
918.049	15093
918.161	15104
918.272	15184
918.384	15298
918.495	15100
918.606	14933
918.717	14758
918.828	14952
918.939	15009
919.05	14781
919.161	14910
919.272	14731
919.383	14788
919.494	14937
919.604	15097
919.715	14891
919.826	14811
919.936	14842
920.047	14826
920.157	14830
920.267	15055
920.378	14902
920.488	14842
920.598	15047
920.708	15112
920.818	14918
920.928	15108
921.038	15127
921.148	15066
921.258	14853
921.368	14773
921.477	14632
921.587	14549
921.697	14450
921.806	14598
921.916	14541
922.025	14309
922.134	14339
922.244	14138
922.353	14324
922.462	14119
922.571	14058
922.68	13883
922.789	13913
922.898	13906
923.007	13814
923.116	13974
923.224	13974
923.333	13822
923.442	13742
923.55	13746
923.659	13791
923.767	13799
923.876	13613
923.984	13696
924.092	13499
924.201	13651
924.309	13586
924.417	13628
924.525	13590
924.633	13571
924.741	14282
924.849	13312
924.956	13518
925.064	13270
925.172	13285
925.279	13259
925.387	13270
925.494	13301
925.602	13369
925.709	13301
925.816	13221
925.924	13270
926.031	13263
926.138	13168
926.245	13316
926.352	13095
926.459	13285
926.566	13202
926.673	13141
926.779	13046
926.886	12989
926.993	12901
927.099	12905
927.206	12760
927.312	12726
927.419	12852
927.525	12825
927.631	12878
927.737	12829
927.843	12627
927.95	12521
928.056	12593
928.162	12684
928.267	12707
928.373	13251
928.479	12722
928.585	12395
928.69	12623
928.796	12517
928.901	12448
929.007	12391
929.112	12521
929.218	12418
929.323	12418
929.428	12277
929.533	12475
929.638	12277
929.743	12353
929.848	12391
929.953	12350
930.058	12205
930.163	12015
930.267	12026
930.372	12178
930.477	11958
930.581	12277
930.685	12102
930.79	11923
930.894	11901
930.998	11870
931.103	12087
931.207	11737
931.311	11577
931.415	11486
931.519	11299
931.623	11376
