Data from test_V78500241_2101.txt Node
Date: Fri Mar 25 15:56:21 CST 2022
User: usil
Spectrometer: V785-0024
Trigger mode: 0
Integration Time (sec): 4.000000E-1
Scans to average: 1
Nonlinearity correction enabled: false
Boxcar width: 0
Storing dark spectrum: false
XAxis mode: Wavelengths
Number of Pixels in Spectrum: 1024
>>>>>Begin Spectral Data<<<<<
801.071	29056
801.214	29010
801.356	28736
801.499	28706
801.641	28527
801.783	28668
801.926	28733
802.068	28721
802.211	28573
802.353	28413
802.496	28417
802.638	28390
802.78	28333
802.923	28200
803.065	28234
803.208	28261
803.35	28162
803.492	28417
803.635	28519
803.777	28409
803.919	28546
804.061	28911
804.204	28645
804.346	28542
804.488	28500
804.63	28577
804.773	28527
804.915	28668
805.057	28660
805.199	28664
805.341	28713
805.483	28618
805.626	28793
805.768	28664
805.91	28801
806.052	28835
806.194	28649
806.336	28923
806.478	28968
806.62	28763
806.762	29033
806.904	28972
807.046	29292
807.188	29151
807.33	29113
807.472	29250
807.614	29239
807.756	29311
807.898	29162
808.04	28911
808.182	29090
808.324	29166
808.465	29166
808.607	29345
808.749	29417
808.891	29554
809.033	29596
809.174	29520
809.316	29372
809.458	29372
809.6	29349
809.741	29448
809.883	29630
810.025	29794
810.166	29726
810.308	29790
810.45	29748
810.591	29794
810.733	29471
810.875	29535
811.016	29375
811.158	29402
811.299	29623
811.441	29627
811.582	29623
811.724	29543
811.865	29516
812.007	29410
812.148	29471
812.29	29646
812.431	29691
812.573	29821
812.714	29870
812.855	29851
812.997	30106
813.138	30205
813.279	30034
813.421	29935
813.562	29794
813.703	29828
813.845	29699
813.986	29524
814.127	29189
814.268	29189
814.41	29242
814.551	29159
814.692	29212
814.833	29132
814.974	29102
815.115	29193
815.256	29178
815.397	28919
815.539	29044
815.68	29014
815.821	28885
815.962	29018
816.103	28999
816.244	29014
816.385	28847
816.526	28866
816.666	28546
816.807	28588
816.948	28596
817.089	28569
817.23	28554
817.371	28607
817.512	28432
817.653	28580
817.793	28390
817.934	28527
818.075	28569
818.216	28451
818.356	28447
818.497	28466
818.638	28337
818.778	28295
818.919	28185
819.06	28280
819.2	28291
819.341	28478
819.481	28508
819.622	28801
819.762	29033
819.903	28786
820.043	28611
820.184	28596
820.324	28634
820.465	28599
820.605	28580
820.746	28615
820.886	28500
821.026	28607
821.167	28675
821.307	28622
821.447	28561
821.588	28371
821.728	28284
821.868	28143
822.008	27960
822.149	27934
822.289	27994
822.429	27720
822.569	27652
822.709	27728
822.849	27622
822.99	27553
823.13	27515
823.27	27519
823.41	27325
823.55	27176
823.69	27355
823.83	27443
823.97	27226
824.11	27203
824.25	27047
824.389	27268
824.529	27195
824.669	27161
824.809	27374
824.949	27294
825.089	27306
825.228	27199
825.368	27070
825.508	26986
825.648	27085
825.787	27009
825.927	27096
826.067	26967
826.206	27085
826.346	27192
826.485	27017
826.625	27032
826.765	27192
826.904	27127
827.044	26796
827.183	26819
827.323	26651
827.462	26895
827.601	26857
827.741	26705
827.88	26792
828.02	26678
828.159	26739
828.298	26625
828.437	26796
828.577	26674
828.716	26937
828.855	26590
828.994	26442
829.134	26396
829.273	26575
829.412	26434
829.551	26320
829.69	26480
829.829	26469
829.968	26434
830.107	26545
830.246	26499
830.385	26450
830.524	26423
830.663	26259
830.802	26172
830.941	26092
831.08	26046
831.219	26164
831.357	26248
831.496	26328
831.635	26126
831.774	25986
831.913	25917
832.051	25696
832.19	25890
832.329	25849
832.467	25784
832.606	25719
832.744	25616
832.883	25746
833.022	25632
833.16	25693
833.299	25723
833.437	25807
833.576	25799
833.714	25887
833.852	25871
833.991	25814
834.129	25936
834.267	25845
834.406	25791
834.544	25898
834.682	25913
834.821	25738
834.959	25814
835.097	25772
835.235	25753
835.373	25689
835.511	25738
835.65	25575
835.788	25643
835.926	25597
836.064	25464
836.202	25468
836.34	25681
836.478	25586
836.615	25616
836.753	25559
836.891	25674
837.029	25658
837.167	25499
837.305	25415
837.443	25415
837.58	25251
837.718	25441
837.856	25419
837.993	25434
838.131	25419
838.269	25316
838.406	25327
838.544	25244
838.681	24932
838.819	24996
838.956	24867
839.094	24856
839.231	24981
839.369	24970
839.506	25255
839.643	25148
839.781	24962
839.918	24863
840.055	24837
840.193	24875
840.33	24848
840.467	24837
840.604	24791
840.742	25164
840.879	24574
841.016	24631
841.153	24669
841.29	24928
841.427	24661
841.564	24791
841.701	24719
841.838	24806
841.975	24585
842.112	24661
842.249	24688
842.385	24559
842.522	24692
842.659	24635
842.796	24536
842.933	24608
843.069	24460
843.206	24426
843.343	24513
843.479	24486
843.616	24471
843.752	24270
843.889	24380
844.025	24426
844.162	24361
844.298	24437
844.435	24304
844.571	24369
844.708	24422
844.844	24289
844.98	24437
845.117	24498
845.253	24304
845.389	24022
845.525	24220
845.661	24155
845.798	24022
845.934	24003
846.07	23946
846.206	24133
846.342	24087
846.478	23969
846.614	23969
846.75	23729
846.886	23840
847.022	23828
847.158	23817
847.294	23783
847.429	23764
847.565	23699
847.701	23969
847.837	23497
847.972	23349
848.108	23665
848.244	23554
848.379	23414
848.515	23326
848.65	23258
848.786	23311
848.921	23459
849.057	23452
849.192	23524
849.328	23452
849.463	23417
849.598	23189
849.734	23185
849.869	23064
850.004	23170
850.14	23025
850.275	23052
850.41	23109
850.545	22953
850.68	23064
850.815	23227
850.95	23147
851.085	23383
851.22	23258
851.355	23113
851.49	23060
851.625	23136
851.76	22949
851.895	23033
852.03	23071
852.165	23124
852.299	23159
852.434	23235
852.569	23102
852.703	23044
852.838	23239
852.973	23242
853.107	23212
853.242	23124
853.376	22915
853.511	22881
853.645	22843
853.78	22999
853.914	23003
854.048	22820
854.183	22930
854.317	23037
854.451	23178
854.585	23010
854.72	22904
854.854	22968
854.988	22885
855.122	22927
855.256	22782
855.39	22957
855.524	23064
855.658	23041
855.792	22972
855.926	22980
856.06	23025
856.194	22923
856.327	22938
856.461	22729
856.595	22934
856.729	22965
856.862	23079
856.996	22949
857.13	22930
857.263	23075
857.397	23098
857.53	23033
857.664	23006
857.797	22949
857.931	23010
858.064	23029
858.197	23060
858.331	22984
858.464	22980
858.597	22892
858.731	22946
858.864	22904
858.997	22873
859.13	22896
859.263	22965
859.396	23018
859.529	22904
859.662	22984
859.795	22873
859.928	22915
860.061	23181
860.194	23094
860.327	22999
860.46	22927
860.592	23071
860.725	23124
860.858	23235
860.99	22919
861.123	22877
861.256	22934
861.388	23025
861.521	23843
861.653	22774
861.786	22782
861.918	22778
862.05	22767
862.183	22885
862.315	22927
862.447	22968
862.58	22862
862.712	22668
862.844	22630
862.976	22778
863.108	22694
863.24	23025
863.372	22569
863.504	22706
863.636	22596
863.768	22713
863.9	22675
864.032	22691
864.164	22607
864.296	22725
864.428	22767
864.559	22603
864.691	22866
864.823	22683
864.954	22538
865.086	22641
865.217	22679
865.349	22474
865.48	22527
865.612	22569
865.743	22683
865.875	22523
866.006	22500
866.137	22417
866.269	22508
866.4	22375
866.531	22360
866.662	22470
866.793	22455
866.924	22573
867.055	22611
867.186	22386
867.317	22538
867.448	22379
867.579	22421
867.71	22367
867.841	22382
867.972	22569
868.103	22462
868.233	22405
868.364	22443
868.495	22554
868.625	22637
868.756	22774
868.886	22706
869.017	22603
869.147	22755
869.278	22805
869.408	22717
869.539	22622
869.669	22733
869.799	22736
869.929	22771
870.06	22645
870.19	22999
870.32	23003
870.45	23064
870.58	23117
870.71	23204
870.84	23216
870.97	23006
871.1	23185
871.23	23178
871.36	23421
871.489	23185
871.619	23258
871.749	23387
871.879	23299
872.008	23280
872.138	23299
872.267	23318
872.397	23113
872.526	23105
872.656	23086
872.785	23204
872.915	23326
873.044	23288
873.173	23322
873.303	23258
873.432	23376
873.561	23471
873.69	23330
873.819	23395
873.948	23311
874.077	23273
874.206	23284
874.335	23341
874.464	23429
874.593	23459
874.722	23455
874.851	23509
874.979	23512
875.108	23482
875.237	23490
875.365	23452
875.494	23490
875.623	23551
875.751	23478
875.88	23562
876.008	23657
876.136	23608
876.265	23897
876.393	24003
876.521	24022
876.65	23996
876.778	23813
876.906	23779
877.034	23866
877.162	23809
877.29	23866
877.418	23824
877.546	23946
877.674	23786
877.802	23794
877.93	23779
878.058	23786
878.185	23642
878.313	23870
878.441	23828
878.568	23627
878.696	23771
878.824	23733
878.951	23977
879.079	23954
879.206	24148
879.333	24110
879.461	23954
879.588	23790
879.715	23923
879.842	24095
879.97	23794
880.097	23623
880.224	23661
880.351	23775
880.478	23718
880.605	23619
880.732	23638
880.859	23870
880.986	23619
881.112	23680
881.239	23691
881.366	23360
881.493	23383
881.619	23269
881.746	23197
881.872	23330
881.999	23044
882.125	23018
882.252	23330
882.378	23151
882.505	23197
882.631	22999
882.757	22930
882.883	23060
883.01	22904
883.136	22858
883.262	22923
883.388	22656
883.514	22869
883.64	22896
883.766	22809
883.892	22645
884.018	22683
884.143	22896
884.269	22858
884.395	22634
884.52	22409
884.646	22542
884.772	22516
884.897	22322
885.023	22481
885.148	22546
885.274	22767
885.399	22618
885.524	22489
885.65	22557
885.775	22523
885.9	22508
886.025	22588
886.15	22679
886.275	22485
886.4	22344
886.525	22459
886.65	22386
886.775	22329
886.9	22637
887.025	22630
887.149	22474
887.274	22314
887.399	22325
887.523	22310
887.648	22204
887.773	22207
887.897	22249
888.021	22413
888.146	22044
888.27	22306
888.395	22333
888.519	22276
888.643	22196
888.767	22272
888.891	22154
889.015	22097
889.139	22154
889.263	21979
889.387	22188
889.511	22272
889.635	22105
889.759	22055
889.883	22044
890.006	22150
890.13	22090
890.254	21956
890.377	21926
890.501	21816
890.624	21865
890.748	21804
890.871	21629
890.995	21538
891.118	21652
891.241	21713
891.364	21504
891.488	21663
891.611	21610
891.734	21549
891.857	21682
891.98	21717
892.103	21633
892.226	21568
892.349	21504
892.471	21397
892.594	21557
892.717	21561
892.839	21420
892.962	21374
893.085	21488
893.207	21386
893.33	21386
893.452	21329
893.575	21534
893.697	21469
893.819	21629
893.941	21633
894.064	21652
894.186	21462
894.308	21252
894.43	21530
894.552	21583
894.674	21523
894.796	21355
894.918	21412
895.04	21450
895.161	21530
895.283	21530
895.405	21477
895.526	21504
895.648	21542
895.769	21477
895.891	21572
896.012	21428
896.134	21603
896.255	21462
896.376	21348
896.498	21553
896.619	21641
896.74	21450
896.861	21477
896.982	21755
897.103	21915
897.224	21660
897.345	21709
897.466	21580
897.587	21641
897.708	21759
897.828	21648
897.949	21549
898.07	21458
898.19	21561
898.311	21625
898.431	21534
898.552	21564
898.672	21720
898.792	21785
898.913	21667
899.033	21462
899.153	21462
899.273	21264
899.393	21336
899.513	21359
899.633	21306
899.753	21405
899.873	21298
899.993	21317
900.113	21382
900.232	21275
900.352	21272
900.472	21237
900.591	21085
900.711	21074
900.83	21146
900.95	21188
901.069	21207
901.189	20994
901.308	20762
901.427	20655
901.546	20781
901.665	20670
901.784	20708
901.904	20434
902.023	20431
902.141	20191
902.26	20225
902.379	20218
902.498	20290
902.617	20084
902.735	20290
902.854	20176
902.973	20153
903.091	19799
903.21	19898
903.328	19826
903.446	19696
903.565	19761
903.683	19647
903.801	19460
903.919	19575
904.038	19495
904.156	19327
904.274	19396
904.392	19384
904.51	19388
904.627	19263
904.745	19403
904.863	19331
904.981	19084
905.098	19023
905.216	19080
905.334	19091
905.451	19183
905.569	18928
905.686	19042
905.803	19145
905.921	18859
906.038	18890
906.155	18905
906.272	18726
906.389	18787
906.506	18563
906.623	18566
906.74	18532
906.857	18429
906.974	18475
907.091	18528
907.208	18665
907.324	18608
907.441	18445
907.557	18376
907.674	18247
907.79	18308
907.907	18232
908.023	18251
908.139	18251
908.256	18228
908.372	18125
908.488	18155
908.604	18015
908.72	17885
908.836	17965
908.952	17939
909.068	18015
909.184	18140
909.3	17950
909.415	18026
909.531	17973
909.647	17687
909.762	17771
909.878	17722
909.993	17691
910.108	17646
910.224	17585
910.339	17642
910.454	17547
910.57	17528
910.685	17501
910.8	17649
910.915	17684
911.03	17459
911.145	17181
911.259	17246
911.374	17265
911.489	17235
911.604	17041
911.718	16957
911.833	17052
911.947	16843
912.062	16866
912.176	17075
912.291	16961
912.405	16980
912.519	17128
912.633	17242
912.748	16949
912.862	16957
912.976	16908
913.09	16816
913.204	16771
913.318	16778
913.431	16797
913.545	16850
913.659	16904
913.772	16740
913.886	16603
914	16577
914.113	16630
914.226	16630
914.34	16588
914.453	16459
914.566	16535
914.68	16424
914.793	16493
914.906	16314
915.019	16135
915.132	16013
915.245	16135
915.358	16249
915.47	16192
915.583	16032
915.696	16246
915.809	16284
915.921	16299
916.034	16029
916.146	15994
916.259	16105
916.371	16154
916.483	16135
916.595	16013
916.708	15987
916.82	15964
916.932	15869
917.044	15934
917.156	15926
917.268	15732
917.38	15762
917.491	15797
917.603	15743
917.715	15816
917.826	15876
917.938	15686
918.049	15580
918.161	15679
918.272	15804
918.384	15797
918.495	15709
918.606	15515
918.717	15523
918.828	15591
918.939	15534
919.05	15458
919.161	15477
919.272	15192
919.383	15310
919.494	15412
919.604	15671
919.715	15515
919.826	15374
919.936	15317
920.047	15477
920.157	15435
920.267	15644
920.378	15458
920.488	15443
920.598	15686
920.708	15652
920.818	15523
920.928	15572
921.038	15690
921.148	15713
921.258	15313
921.368	15329
921.477	15119
921.587	15108
921.697	15108
921.806	15203
921.916	15051
922.025	14830
922.134	14864
922.244	14750
922.353	14849
922.462	14746
922.571	14625
922.68	14492
922.789	14423
922.898	14366
923.007	14408
923.116	14465
923.224	14305
923.333	14366
923.442	14324
923.55	14290
923.659	14263
923.767	14290
923.876	14252
923.984	14282
924.092	14191
924.201	14233
924.309	14130
924.417	14092
924.525	14046
924.633	14119
924.741	15013
924.849	13860
924.956	14027
925.064	13795
925.172	13742
925.279	13712
925.387	13818
925.494	13849
925.602	13925
925.709	13776
925.816	13681
925.924	13750
926.031	13856
926.138	13647
926.245	13803
926.352	13548
926.459	13693
926.566	13799
926.673	13605
926.779	13521
926.886	13483
926.993	13358
927.099	13308
927.206	13304
927.312	13316
927.419	13388
927.525	13251
927.631	13324
927.737	13278
927.843	13164
927.95	13050
928.056	13209
928.162	13141
928.267	13152
928.373	13830
928.479	13228
928.585	13027
928.69	13042
928.796	13095
928.901	12962
929.007	12795
929.112	12943
929.218	12973
929.323	12996
929.428	12779
929.533	12901
929.638	12810
929.743	12844
929.848	12768
929.953	12760
930.058	12692
930.163	12521
930.267	12483
930.372	12631
930.477	12506
930.581	12673
930.685	12498
930.79	12380
930.894	12391
930.998	12311
931.103	12486
931.207	12133
931.311	12034
931.415	11965
931.519	11726
931.623	11756
