Data from test_V78500241_199.txt Node
Date: Fri Mar 25 15:43:10 CST 2022
User: usil
Spectrometer: V785-0024
Trigger mode: 0
Integration Time (sec): 4.000000E-1
Scans to average: 1
Nonlinearity correction enabled: false
Boxcar width: 0
Storing dark spectrum: false
XAxis mode: Wavelengths
Number of Pixels in Spectrum: 1024
>>>>>Begin Spectral Data<<<<<
801.071	29315
801.214	29162
801.356	29071
801.499	28968
801.641	28820
801.783	28744
801.926	28675
802.068	28664
802.211	28713
802.353	28622
802.496	28485
802.638	28538
802.78	28344
802.923	28390
803.065	28196
803.208	28390
803.35	28409
803.492	28523
803.635	28607
803.777	28447
803.919	28493
804.061	28919
804.204	28451
804.346	28428
804.488	28382
804.63	28413
804.773	28291
804.915	28428
805.057	28535
805.199	28436
805.341	28653
805.483	28542
805.626	28523
805.768	28535
805.91	28554
806.052	28489
806.194	28489
806.336	28717
806.478	28740
806.62	28611
806.762	28596
806.904	28854
807.046	29037
807.188	28915
807.33	28930
807.472	29010
807.614	28930
807.756	28885
807.898	28744
808.04	28740
808.182	28736
808.324	28752
808.465	28797
808.607	28927
808.749	28980
808.891	29250
809.033	29334
809.174	29212
809.316	29090
809.458	29174
809.6	29083
809.741	29246
809.883	29311
810.025	29387
810.166	29277
810.308	29269
810.45	29345
810.591	29193
810.733	29140
810.875	29083
811.016	28938
811.158	29037
811.299	29231
811.441	29345
811.582	29231
811.724	29090
811.865	29098
812.007	29056
812.148	29147
812.29	29071
812.431	29216
812.573	29330
812.714	29463
812.855	29661
812.997	29604
813.138	29726
813.279	29547
813.421	29543
813.562	29471
813.703	29345
813.845	29273
813.986	28911
814.127	28786
814.268	28599
814.41	28694
814.551	28584
814.692	28774
814.833	28683
814.974	28592
815.115	28596
815.256	28489
815.397	28478
815.539	28573
815.68	28417
815.821	28398
815.962	28409
816.103	28356
816.244	28401
816.385	28048
816.526	28219
816.666	28025
816.807	27941
816.948	27934
817.089	27816
817.23	27838
817.371	27914
817.512	27751
817.653	27861
817.793	27770
817.934	27762
818.075	27838
818.216	27633
818.356	27686
818.497	27739
818.638	27500
818.778	27564
818.919	27561
819.06	27519
819.2	27603
819.341	27724
819.481	27736
819.622	27934
819.762	28135
819.903	27983
820.043	27937
820.184	27831
820.324	27842
820.465	27876
820.605	27838
820.746	27728
820.886	27694
821.026	27880
821.167	27686
821.307	27812
821.447	27732
821.588	27466
821.728	27595
821.868	27416
822.008	27245
822.149	27310
822.289	27218
822.429	26979
822.569	26868
822.709	26880
822.849	26727
822.99	26750
823.13	26629
823.27	26575
823.41	26613
823.55	26248
823.69	26488
823.83	26598
823.97	26389
824.11	26282
824.25	26172
824.389	26309
824.529	26252
824.669	26191
824.809	26256
824.949	26351
825.089	26286
825.228	26275
825.368	26027
825.508	26046
825.648	26134
825.787	26199
825.927	26073
826.067	26020
826.206	25982
826.346	26199
826.485	26046
826.625	26126
826.765	26164
826.904	26027
827.044	25818
827.183	25685
827.323	25628
827.462	25719
827.601	25750
827.741	25742
827.88	25738
828.02	25666
828.159	25605
828.298	25852
828.437	25826
828.577	25548
828.716	25830
828.855	25556
828.994	25483
829.134	25476
829.273	25518
829.412	25354
829.551	25312
829.69	25506
829.829	25445
829.968	25594
830.107	25529
830.246	25381
830.385	25282
830.524	25365
830.663	25129
830.802	25046
830.941	24996
831.08	24776
831.219	24913
831.357	24924
831.496	25187
831.635	24848
831.774	24840
831.913	24852
832.051	24772
832.19	24696
832.329	24764
832.467	24730
832.606	24547
832.744	24574
832.883	24623
833.022	24604
833.16	24597
833.299	24639
833.437	24566
833.576	24566
833.714	24639
833.852	24551
833.991	24635
834.129	24669
834.267	24642
834.406	24475
834.544	24536
834.682	24593
834.821	24555
834.959	24764
835.097	24692
835.235	24658
835.373	24532
835.511	24445
835.65	24418
835.788	24399
835.926	24266
836.064	24243
836.202	24262
836.34	24251
836.478	24597
836.615	24342
836.753	24414
836.891	24445
837.029	24361
837.167	24319
837.305	24311
837.443	24186
837.58	24308
837.718	24327
837.856	24178
837.993	24114
838.131	24155
838.269	24045
838.406	24110
838.544	24072
838.681	23802
838.819	23851
838.956	23726
839.094	23570
839.231	23821
839.369	23843
839.506	24064
839.643	23870
839.781	23566
839.918	23653
840.055	23615
840.193	23661
840.33	23516
840.467	23501
840.604	23661
840.742	23836
840.879	23528
841.016	23410
841.153	23387
841.29	23596
841.427	23486
841.564	23398
841.701	23448
841.838	23433
841.975	23383
842.112	23547
842.249	23368
842.385	23242
842.522	23505
842.659	23132
842.796	23216
842.933	23185
843.069	23102
843.206	23280
843.343	23212
843.479	23140
843.616	23128
843.752	22987
843.889	22957
844.025	23109
844.162	22892
844.298	23113
844.435	22923
844.571	22923
844.708	23018
844.844	23071
844.98	23208
845.117	23113
845.253	22854
845.389	22626
845.525	22885
845.661	22873
845.798	22675
845.934	22637
846.07	22592
846.206	22736
846.342	22866
846.478	22550
846.614	22485
846.75	22398
846.886	22398
847.022	22535
847.158	22413
847.294	22489
847.429	22344
847.565	22375
847.701	22592
847.837	22147
847.972	22097
848.108	22223
848.244	22135
848.379	22021
848.515	21930
848.65	21979
848.786	21941
848.921	21972
849.057	22021
849.192	22029
849.328	21949
849.463	22021
849.598	21998
849.734	21785
849.869	21747
850.004	21800
850.14	21835
850.275	21743
850.41	21523
850.545	21618
850.68	21618
850.815	21660
850.95	21545
851.085	21793
851.22	21690
851.355	21698
851.49	21614
851.625	21599
851.76	21709
851.895	21511
852.03	21576
852.165	21568
852.299	21720
852.434	21774
852.569	21751
852.703	21667
852.838	21720
852.973	21675
853.107	21770
853.242	21549
853.376	21428
853.511	21386
853.645	21435
853.78	21622
853.914	21568
854.048	21431
854.183	21416
854.317	21492
854.451	21530
854.585	21454
854.72	21416
854.854	21580
854.988	21378
855.122	21488
855.256	21329
855.39	21405
855.524	21431
855.658	21504
855.792	21504
855.926	21416
856.06	21549
856.194	21424
856.327	21401
856.461	21439
856.595	21336
856.729	21344
856.862	21496
856.996	21458
857.13	21447
857.263	21450
857.397	21534
857.53	21428
857.664	21545
857.797	21439
857.931	21492
858.064	21367
858.197	21580
858.331	21344
858.464	21348
858.597	21275
858.731	21386
858.864	21431
858.997	21325
859.13	21317
859.263	21401
859.396	21435
859.529	21310
859.662	21294
859.795	21245
859.928	21397
860.061	21599
860.194	21610
860.327	21237
860.46	21260
860.592	21568
860.725	21496
860.858	21443
860.99	21348
861.123	21264
861.256	21374
861.388	21393
861.521	22032
861.653	21294
861.786	21249
861.918	21135
862.05	21386
862.183	21397
862.315	21386
862.447	21504
862.58	21443
862.712	21043
862.844	21100
862.976	21336
863.108	21116
863.24	21382
863.372	21039
863.504	21096
863.636	21127
863.768	21138
863.9	21058
864.032	21017
864.164	21100
864.296	21100
864.428	21154
864.559	21123
864.691	21001
864.823	21093
864.954	20929
865.086	21135
865.217	21009
865.349	20876
865.48	20986
865.612	20910
865.743	21135
865.875	20906
866.006	20975
866.137	20982
866.269	20944
866.4	21116
866.531	20864
866.662	20979
866.793	20739
866.924	20842
867.055	21009
867.186	20933
867.317	20925
867.448	20929
867.579	20815
867.71	20804
867.841	20792
867.972	20838
868.103	20883
868.233	20861
868.364	20826
868.495	20891
868.625	21184
868.756	21252
868.886	21028
869.017	21104
869.147	21188
869.278	21237
869.408	21089
869.539	20979
869.669	21165
869.799	21207
869.929	21222
870.06	21150
870.19	21443
870.32	21401
870.45	21564
870.58	21481
870.71	21656
870.84	21614
870.97	21561
871.1	21526
871.23	21694
871.36	21755
871.489	21568
871.619	21641
871.749	21755
871.879	21694
872.008	21827
872.138	21732
872.267	21713
872.397	21599
872.526	21485
872.656	21553
872.785	21481
872.915	21701
873.044	21838
873.173	21759
873.303	21759
873.432	21762
873.561	21835
873.69	21800
873.819	21762
873.948	21789
874.077	21709
874.206	21576
874.335	21751
874.464	21949
874.593	22090
874.722	22082
874.851	22025
874.979	22013
875.108	22067
875.237	21991
875.365	21888
875.494	21983
875.623	21991
875.751	22017
875.88	21876
876.008	22150
876.136	22185
876.265	22371
876.393	22573
876.521	22409
876.65	22542
876.778	22310
876.906	22363
877.034	22249
877.162	22421
877.29	22268
877.418	22367
877.546	22291
877.674	22470
877.802	22238
877.93	22428
878.058	22188
878.185	22287
878.313	22272
878.441	22371
878.568	22196
878.696	22246
878.824	22363
878.951	22386
879.079	22497
879.206	22607
879.333	22478
879.461	22322
879.588	22428
879.715	22493
879.842	22550
879.97	22303
880.097	22143
880.224	22120
880.351	22284
880.478	22177
880.605	22002
880.732	22093
880.859	22451
880.986	22116
881.112	22147
881.239	22025
881.366	21926
881.493	21755
881.619	21793
881.746	21759
881.872	21720
881.999	21755
882.125	21610
882.252	21743
882.378	21671
882.505	21804
882.631	21671
882.757	21481
882.883	21667
883.01	21549
883.136	21458
883.262	21268
883.388	21283
883.514	21462
883.64	21378
883.766	21351
883.892	21138
884.018	21348
884.143	21355
884.269	21408
884.395	21066
884.52	21138
884.646	21146
884.772	21013
884.897	20925
885.023	21070
885.148	21184
885.274	21169
885.399	21077
885.524	20994
885.65	21146
885.775	21036
885.9	20941
886.025	21249
886.15	21074
886.275	21017
886.4	21001
886.525	20979
886.65	20952
886.775	21081
886.9	21146
887.025	21214
887.149	21005
887.274	20914
887.399	20891
887.523	20975
887.648	20731
887.773	20815
887.897	20853
888.021	20811
888.146	20796
888.27	20834
888.395	20891
888.519	20857
888.643	20883
888.767	20716
888.891	20781
889.015	20625
889.139	20644
889.263	20629
889.387	20705
889.511	20769
889.635	20727
889.759	20640
889.883	20606
890.006	20686
890.13	20686
890.254	20549
890.377	20503
890.501	20412
890.624	20298
890.748	20332
890.871	20218
890.995	20225
891.118	20088
891.241	20142
891.364	20199
891.488	20343
891.611	20138
891.734	20256
891.857	20309
891.98	20286
892.103	20119
892.226	20221
892.349	20077
892.471	20073
892.594	20100
892.717	20153
892.839	20111
892.962	20199
893.085	20153
893.207	19993
893.33	19940
893.452	19925
893.575	20183
893.697	19989
893.819	20218
893.941	20320
894.064	20161
894.186	20024
894.308	19963
894.43	20157
894.552	20153
894.674	20248
894.796	20096
894.918	20103
895.04	19951
895.161	20244
895.283	20054
895.405	20084
895.526	20012
895.648	20157
895.769	19963
895.891	20180
896.012	20145
896.134	20214
896.255	20111
896.376	20054
896.498	20115
896.619	20111
896.74	20180
896.861	20210
896.982	20438
897.103	20617
897.224	20370
897.345	20374
897.466	20313
897.587	20404
897.708	20412
897.828	20328
897.949	20244
898.07	20100
898.19	20221
898.311	20290
898.431	20210
898.552	20370
898.672	20415
898.792	20282
898.913	20294
899.033	20149
899.153	20088
899.273	19978
899.393	20005
899.513	20008
899.633	19955
899.753	19993
899.873	19921
899.993	20088
900.113	19917
900.232	19879
900.352	19986
900.472	19742
900.591	19742
900.711	19860
900.83	19712
900.95	19875
901.069	19845
901.189	19833
901.308	19597
901.427	19244
901.546	19320
901.665	19400
901.784	19533
901.904	19206
902.023	19206
902.141	18943
902.26	18989
902.379	18989
902.498	18875
902.617	18897
902.735	18894
902.854	18791
902.973	18745
903.091	18677
903.21	18471
903.328	18547
903.446	18437
903.565	18391
903.683	18342
903.801	18243
903.919	18311
904.038	18304
904.156	18167
904.274	18254
904.392	18091
904.51	18125
904.627	18171
904.745	18064
904.863	18106
904.981	17885
905.098	17821
905.216	17855
905.334	17794
905.451	17809
905.569	17691
905.686	17767
905.803	17855
905.921	17600
906.038	17783
906.155	17520
906.272	17444
906.389	17459
906.506	17258
906.623	17372
906.74	17216
906.857	17181
906.974	17269
907.091	17174
907.208	17372
907.324	17376
907.441	17220
907.557	17041
907.674	16927
907.79	16824
907.907	16850
908.023	17014
908.139	16930
908.256	16953
908.372	16877
908.488	16820
908.604	16691
908.72	16656
908.836	16645
908.952	16542
909.068	16637
909.184	16938
909.3	16706
909.415	16611
909.531	16649
909.647	16341
909.762	16314
909.878	16299
909.993	16398
910.108	16371
910.224	16215
910.339	16299
910.454	16207
910.57	16200
910.685	16158
910.8	16421
910.915	16322
911.03	16097
911.145	16025
911.259	15972
911.374	15968
911.489	15918
911.604	15911
911.718	15751
911.833	15686
911.947	15629
912.062	15519
912.176	15720
912.291	15766
912.405	15644
912.519	15819
912.633	15846
912.748	15751
912.862	15572
912.976	15408
913.09	15332
913.204	15420
913.318	15564
913.431	15568
913.545	15622
913.659	15625
913.772	15393
913.886	15336
914	15302
914.113	15332
914.226	15408
914.34	15405
914.453	15192
914.566	15351
914.68	15260
914.793	15226
914.906	14990
915.019	14906
915.132	14845
915.245	14891
915.358	14986
915.47	14933
915.583	14948
915.696	15013
915.809	14925
915.921	15055
916.034	14902
916.146	14758
916.259	14765
916.371	14868
916.483	14823
916.595	14686
916.708	14739
916.82	14800
916.932	14689
917.044	14655
917.156	14712
917.268	14602
917.38	14594
917.491	14484
917.603	14610
917.715	14674
917.826	14667
917.938	14446
918.049	14465
918.161	14537
918.272	14693
918.384	14606
918.495	14568
918.606	14389
918.717	14267
918.828	14278
918.939	14434
919.05	14142
919.161	14294
919.272	14119
919.383	14100
919.494	14343
919.604	14484
919.715	14301
919.826	14286
919.936	14370
920.047	14320
920.157	14328
920.267	14427
920.378	14336
920.488	14259
920.598	14552
920.708	14579
920.818	14343
920.928	14393
921.038	14617
921.148	14541
921.258	14244
921.368	14062
921.477	14096
921.587	14005
921.697	13875
921.806	13997
921.916	13818
922.025	13731
922.134	13590
922.244	13620
922.353	13712
922.462	13533
922.571	13499
922.68	13324
922.789	13324
922.898	13255
923.007	13206
923.116	13316
923.224	13259
923.333	13327
923.442	13190
923.55	13145
923.659	13179
923.767	13297
923.876	13107
923.984	13175
924.092	12958
924.201	13069
924.309	13061
924.417	13042
924.525	12928
924.633	13023
924.741	13689
924.849	12757
924.956	12943
925.064	12863
925.172	12707
925.279	12768
925.387	12795
925.494	12768
925.602	12890
925.709	12810
925.816	12616
925.924	12642
926.031	12745
926.138	12715
926.245	12700
926.352	12631
926.459	12707
926.566	12810
926.673	12574
926.779	12528
926.886	12456
926.993	12372
927.099	12376
927.206	12289
927.312	12266
927.419	12350
927.525	12327
927.631	12403
927.737	12216
927.843	12224
927.95	12064
928.056	12152
928.162	12163
928.267	12140
928.373	12840
928.479	12190
928.585	12022
928.69	12076
928.796	12167
928.901	11992
929.007	11802
929.112	11996
929.218	11942
929.323	11817
929.428	11847
929.533	12022
929.638	11794
929.743	11847
929.848	11859
929.953	11775
930.058	11771
930.163	11474
930.267	11554
930.372	11707
930.477	11512
930.581	11710
930.685	11493
930.79	11452
930.894	11376
930.998	11353
931.103	11558
931.207	11140
931.311	11140
931.415	10957
931.519	10858
931.623	10774
