Data from test_V78500241_1412.txt Node
Date: Fri Mar 25 15:51:34 CST 2022
User: usil
Spectrometer: V785-0024
Trigger mode: 0
Integration Time (sec): 4.000000E-1
Scans to average: 1
Nonlinearity correction enabled: false
Boxcar width: 0
Storing dark spectrum: false
XAxis mode: Wavelengths
Number of Pixels in Spectrum: 1024
>>>>>Begin Spectral Data<<<<<
801.071	28112
801.214	28044
801.356	27823
801.499	27660
801.641	27660
801.783	27660
801.926	27603
802.068	27644
802.211	27454
802.353	27492
802.496	27329
802.638	27306
802.78	27275
802.923	27272
803.065	27207
803.208	27066
803.35	27230
803.492	27355
803.635	27488
803.777	27344
803.919	27450
804.061	27785
804.204	27519
804.346	27378
804.488	27260
804.63	27336
804.773	27370
804.915	27336
805.057	27587
805.199	27492
805.341	27485
805.483	27591
805.626	27720
805.768	27450
805.91	27698
806.052	27629
806.194	27667
806.336	27751
806.478	27648
806.62	27595
806.762	27785
806.904	27899
807.046	28002
807.188	28093
807.33	28097
807.472	28051
807.614	28135
807.756	28044
807.898	27892
808.04	27922
808.182	27869
808.324	27907
808.465	27972
808.607	28177
808.749	28242
808.891	28265
809.033	28413
809.174	28375
809.316	28211
809.458	28169
809.6	28356
809.741	28417
809.883	28424
810.025	28603
810.166	28618
810.308	28637
810.45	28481
810.591	28386
810.733	28394
810.875	28242
811.016	28131
811.158	28291
811.299	28299
811.441	28341
811.582	28443
811.724	28162
811.865	28276
812.007	28135
812.148	28242
812.29	28363
812.431	28409
812.573	28462
812.714	28672
812.855	28774
812.997	28759
813.138	28908
813.279	28923
813.421	28904
813.562	28687
813.703	28519
813.845	28405
813.986	28131
814.127	28051
814.268	28017
814.41	27964
814.551	27926
814.692	28101
814.833	27930
814.974	27998
815.115	27972
815.256	27793
815.397	27789
815.539	27713
815.68	27857
815.821	27732
815.962	27698
816.103	27816
816.244	27610
816.385	27606
816.526	27458
816.666	27249
816.807	27287
816.948	27214
817.089	27298
817.23	27302
817.371	27264
817.512	27127
817.653	27283
817.793	27123
817.934	27325
818.075	27237
818.216	27252
818.356	27249
818.497	27028
818.638	26921
818.778	26994
818.919	27013
819.06	26925
819.2	27154
819.341	27237
819.481	27264
819.622	27374
819.762	27538
819.903	27485
820.043	27427
820.184	27374
820.324	27405
820.465	27370
820.605	27344
820.746	27226
820.886	27237
821.026	27279
821.167	27256
821.307	27469
821.447	27260
821.588	27135
821.728	27032
821.868	26796
822.008	26830
822.149	26659
822.289	26678
822.429	26530
822.569	26431
822.709	26286
822.849	26267
822.99	26229
823.13	26259
823.27	26157
823.41	25932
823.55	26043
823.69	25982
823.83	26008
823.97	25898
824.11	25837
824.25	25814
824.389	25906
824.529	25986
824.669	25822
824.809	26020
824.949	25997
825.089	25864
825.228	25921
825.368	25769
825.508	25613
825.648	25647
825.787	25708
825.927	25643
826.067	25613
826.206	25658
826.346	25700
826.485	25818
826.625	25723
826.765	25852
826.904	25750
827.044	25563
827.183	25525
827.323	25373
827.462	25388
827.601	25441
827.741	25457
827.88	25460
828.02	25297
828.159	25457
828.298	25411
828.437	25343
828.577	25327
828.716	25499
828.855	25388
828.994	25061
829.134	25145
829.273	25202
829.412	25080
829.551	25012
829.69	25053
829.829	25076
829.968	25145
830.107	25221
830.246	25091
830.385	24989
830.524	25179
830.663	24890
830.802	24810
830.941	24760
831.08	24593
831.219	24905
831.357	24840
831.496	24981
831.635	24722
831.774	24620
831.913	24582
832.051	24456
832.19	24475
832.329	24620
832.467	24475
832.606	24353
832.744	24407
832.883	24437
833.022	24502
833.16	24372
833.299	24338
833.437	24369
833.576	24513
833.714	24498
833.852	24391
833.991	24391
834.129	24505
834.267	24536
834.406	24452
834.544	24388
834.682	24555
834.821	24452
834.959	24639
835.097	24426
835.235	24479
835.373	24467
835.511	24338
835.65	24235
835.788	24243
835.926	24072
836.064	24015
836.202	24106
836.34	24216
836.478	24525
836.615	24319
836.753	24365
836.891	24270
837.029	24258
837.167	24201
837.305	24121
837.443	24015
837.58	24174
837.718	24117
837.856	24159
837.993	23942
838.131	24182
838.269	24072
838.406	24038
838.544	23901
838.681	23737
838.819	23745
838.956	23668
839.094	23596
839.231	23668
839.369	23676
839.506	23908
839.643	23874
839.781	23630
839.918	23524
840.055	23463
840.193	23539
840.33	23672
840.467	23577
840.604	23524
840.742	23680
840.879	23402
841.016	23512
841.153	23273
841.29	23531
841.427	23505
841.564	23505
841.701	23459
841.838	23410
841.975	23379
842.112	23455
842.249	23277
842.385	23345
842.522	23501
842.659	23311
842.796	23239
842.933	23299
843.069	23277
843.206	23227
843.343	23178
843.479	23204
843.616	23258
843.752	22987
843.889	22930
844.025	23200
844.162	23033
844.298	23113
844.435	23052
844.571	22869
844.708	23102
844.844	23197
844.98	23197
845.117	23124
845.253	22904
845.389	22904
845.525	22934
845.661	22869
845.798	22736
845.934	22763
846.07	22831
846.206	22908
846.342	22869
846.478	22733
846.614	22611
846.75	22481
846.886	22424
847.022	22497
847.158	22493
847.294	22554
847.429	22573
847.565	22443
847.701	22778
847.837	22196
847.972	22131
848.108	22291
848.244	22131
848.379	22109
848.515	22131
848.65	22017
848.786	22082
848.921	22055
849.057	22154
849.192	22185
849.328	22173
849.463	21979
849.598	22051
849.734	21994
849.869	21911
850.004	21736
850.14	21846
850.275	21800
850.41	21705
850.545	21732
850.68	21778
850.815	21854
850.95	21857
851.085	21956
851.22	22021
851.355	21892
851.49	21812
851.625	21793
851.76	21915
851.895	21789
852.03	21751
852.165	21762
852.299	21892
852.434	21918
852.569	21922
852.703	21793
852.838	21987
852.973	21915
853.107	22086
853.242	21759
853.376	21618
853.511	21542
853.645	21690
853.78	21732
853.914	21652
854.048	21625
854.183	21774
854.317	21705
854.451	21797
854.585	21629
854.72	21709
854.854	21778
854.988	21625
855.122	21785
855.256	21538
855.39	21816
855.524	21656
855.658	21778
855.792	21698
855.926	21747
856.06	21660
856.194	21892
856.327	21648
856.461	21694
856.595	21717
856.729	21656
856.862	21736
856.996	21682
857.13	21648
857.263	21789
857.397	21850
857.53	21667
857.664	21785
857.797	21804
857.931	21759
858.064	21720
858.197	21732
858.331	21720
858.464	21599
858.597	21523
858.731	21599
858.864	21557
858.997	21660
859.13	21679
859.263	21751
859.396	21747
859.529	21576
859.662	21682
859.795	21583
859.928	21603
860.061	21854
860.194	21930
860.327	21739
860.46	21705
860.592	21759
860.725	21808
860.858	21766
860.99	21732
861.123	21507
861.256	21572
861.388	21732
861.521	22375
861.653	21709
861.786	21408
861.918	21450
862.05	21511
862.183	21583
862.315	21576
862.447	21675
862.58	21591
862.712	21332
862.844	21408
862.976	21534
863.108	21477
863.24	21785
863.372	21325
863.504	21382
863.636	21382
863.768	21397
863.9	21420
864.032	21275
864.164	21458
864.296	21351
864.428	21526
864.559	21351
864.691	21382
864.823	21447
864.954	21408
865.086	21306
865.217	21313
865.349	21116
865.48	21317
865.612	21214
865.743	21507
865.875	21306
866.006	21268
866.137	21245
866.269	21249
866.4	21260
866.531	21268
866.662	21222
866.793	21199
866.924	21108
867.055	21146
867.186	21222
867.317	21184
867.448	21074
867.579	21188
867.71	21192
867.841	21089
867.972	21154
868.103	21313
868.233	21173
868.364	21127
868.495	21214
868.625	21382
868.756	21496
868.886	21355
869.017	21523
869.147	21488
869.278	21538
869.408	21466
869.539	21507
869.669	21477
869.799	21374
869.929	21553
870.06	21534
870.19	21762
870.32	21736
870.45	21835
870.58	21823
870.71	22010
870.84	21865
870.97	21717
871.1	21926
871.23	22097
871.36	22040
871.489	22006
871.619	22025
871.749	21983
871.879	22090
872.008	22230
872.138	22090
872.267	22074
872.397	21972
872.526	21968
872.656	21812
872.785	21998
872.915	22200
873.044	22173
873.173	22059
873.303	22029
873.432	22112
873.561	22154
873.69	22120
873.819	22207
873.948	22230
874.077	22093
874.206	22006
874.335	22025
874.464	22230
874.593	22242
874.722	22306
874.851	22322
874.979	22314
875.108	22314
875.237	22246
875.365	22196
875.494	22280
875.623	22344
875.751	22230
875.88	22344
876.008	22348
876.136	22409
876.265	22767
876.393	22824
876.521	22866
876.65	22793
876.778	22702
876.906	22546
877.034	22744
877.162	22664
877.29	22577
877.418	22691
877.546	22596
877.674	22577
877.802	22649
877.93	22626
878.058	22622
878.185	22485
878.313	22523
878.441	22679
878.568	22550
878.696	22649
878.824	22550
878.951	22694
879.079	22854
879.206	22961
879.333	22797
879.461	22767
879.588	22797
879.715	22896
879.842	22919
879.97	22767
880.097	22512
880.224	22523
880.351	22569
880.478	22577
880.605	22394
880.732	22466
880.859	22729
880.986	22481
881.112	22478
881.239	22405
881.366	22230
881.493	22158
881.619	21983
881.746	22116
881.872	22048
881.999	22093
882.125	21941
882.252	22044
882.378	21949
882.505	22010
882.631	22010
882.757	21751
882.883	21869
883.01	21766
883.136	21717
883.262	21519
883.388	21557
883.514	21781
883.64	21774
883.766	21538
883.892	21515
884.018	21519
884.143	21648
884.269	21789
884.395	21519
884.52	21321
884.646	21332
884.772	21329
884.897	21325
885.023	21477
885.148	21450
885.274	21466
885.399	21488
885.524	21370
885.65	21355
885.775	21287
885.9	21275
886.025	21511
886.15	21386
886.275	21363
886.4	21180
886.525	21176
886.65	21226
886.775	21241
886.9	21477
887.025	21679
887.149	21317
887.274	21157
887.399	21077
887.523	21176
887.648	21108
887.773	21058
887.897	21173
888.021	21192
888.146	21081
888.27	21138
888.395	21180
888.519	21192
888.643	21218
888.767	21306
888.891	21081
889.015	20963
889.139	20971
889.263	20815
889.387	21024
889.511	21070
889.635	21051
889.759	20800
889.883	20975
890.006	20830
890.13	20902
890.254	20887
890.377	20891
890.501	20743
890.624	20549
890.748	20693
890.871	20594
890.995	20514
891.118	20442
891.241	20606
891.364	20488
891.488	20659
891.611	20507
891.734	20495
891.857	20590
891.98	20450
892.103	20708
892.226	20423
892.349	20423
892.471	20358
892.594	20389
892.717	20336
892.839	20381
892.962	20412
893.085	20606
893.207	20358
893.33	20252
893.452	20355
893.575	20343
893.697	20267
893.819	20549
893.941	20632
894.064	20613
894.186	20286
894.308	20309
894.43	20370
894.552	20522
894.674	20507
894.796	20275
894.918	20343
895.04	20290
895.161	20423
895.283	20366
895.405	20298
895.526	20339
895.648	20355
895.769	20415
895.891	20560
896.012	20419
896.134	20442
896.255	20396
896.376	20313
896.498	20408
896.619	20309
896.74	20461
896.861	20480
896.982	20625
897.103	20906
897.224	20674
897.345	20632
897.466	20564
897.587	20613
897.708	20640
897.828	20590
897.949	20587
898.07	20305
898.19	20499
898.311	20670
898.431	20530
898.552	20590
898.672	20621
898.792	20594
898.913	20617
899.033	20590
899.153	20431
899.273	20259
899.393	20355
899.513	20286
899.633	20374
899.753	20320
899.873	20237
899.993	20324
900.113	20134
900.232	20328
900.352	20199
900.472	20180
900.591	20168
900.711	20069
900.83	20031
900.95	20267
901.069	20191
901.189	19970
901.308	19788
901.427	19750
901.546	19731
901.665	19776
901.784	19761
901.904	19552
902.023	19346
902.141	19304
902.26	19232
902.379	19396
902.498	19213
902.617	19194
902.735	19213
902.854	19156
902.973	19133
903.091	18970
903.21	18939
903.328	18837
903.446	18764
903.565	18684
903.683	18757
903.801	18547
903.919	18582
904.038	18601
904.156	18532
904.274	18521
904.392	18460
904.51	18380
904.627	18422
904.745	18403
904.863	18467
904.981	18220
905.098	18167
905.216	18129
905.334	18068
905.451	18213
905.569	18072
905.686	18235
905.803	18136
905.921	17939
906.038	17916
906.155	17904
906.272	17855
906.389	17836
906.506	17623
906.623	17680
906.74	17646
906.857	17581
906.974	17520
907.091	17649
907.208	17802
907.324	17699
907.441	17535
907.557	17356
907.674	17410
907.79	17307
907.907	17364
908.023	17395
908.139	17307
908.256	17273
908.372	17216
908.488	17151
908.604	16976
908.72	17166
908.836	17041
908.952	17037
909.068	17090
909.184	17128
909.3	17014
909.415	17064
909.531	17132
909.647	16843
909.762	16828
909.878	16801
909.993	16809
910.108	16835
910.224	16679
910.339	16736
910.454	16702
910.57	16569
910.685	16573
910.8	16854
910.915	16649
911.03	16649
911.145	16325
911.259	16356
911.374	16276
911.489	16306
911.604	16185
911.718	16074
911.833	16063
911.947	16063
912.062	16002
912.176	16063
912.291	16169
912.405	16097
912.519	16287
912.633	16284
912.748	16188
912.862	16074
912.976	15945
913.09	15808
913.204	15888
913.318	15968
913.431	16002
913.545	15934
913.659	16044
913.772	15922
913.886	15713
914	15736
914.113	15797
914.226	15739
914.34	15762
914.453	15633
914.566	15709
914.68	15492
914.793	15519
914.906	15378
915.019	15355
915.132	15268
915.245	15351
915.358	15325
915.47	15302
915.583	15279
915.696	15393
915.809	15363
915.921	15405
916.034	15203
916.146	15138
916.259	15112
916.371	15252
916.483	15287
916.595	15085
916.708	15199
916.82	15157
916.932	15062
917.044	15032
917.156	15089
917.268	14925
917.38	14887
917.491	14941
917.603	15005
917.715	14990
917.826	14994
917.938	14963
918.049	14823
918.161	15020
918.272	15036
918.384	14963
918.495	14872
918.606	14754
918.717	14651
918.828	14796
918.939	14792
919.05	14621
919.161	14678
919.272	14484
919.383	14560
919.494	14815
919.604	14796
919.715	14724
919.826	14545
919.936	14583
920.047	14750
920.157	14659
920.267	14849
920.378	14636
920.488	14648
920.598	14853
920.708	15028
920.818	14845
920.928	14811
921.038	14883
921.148	14937
921.258	14621
921.368	14480
921.477	14518
921.587	14438
921.697	14313
921.806	14427
921.916	14290
922.025	14077
922.134	14024
922.244	14008
922.353	14206
922.462	13940
922.571	13845
922.68	13696
922.789	13639
922.898	13655
923.007	13655
923.116	13784
923.224	13658
923.333	13514
923.442	13605
923.55	13495
923.659	13567
923.767	13586
923.876	13441
923.984	13499
924.092	13369
924.201	13510
924.309	13381
924.417	13552
924.525	13343
924.633	13346
924.741	14187
924.849	13255
924.956	13308
925.064	13228
925.172	13118
925.279	13012
925.387	13129
925.494	13110
925.602	13282
925.709	13179
925.816	13031
925.924	13057
926.031	13057
926.138	13034
926.245	13095
926.352	13000
926.459	13069
926.566	13187
926.673	13000
926.779	12814
926.886	12829
926.993	12741
927.099	12677
927.206	12578
927.312	12601
927.419	12764
927.525	12650
927.631	12563
927.737	12604
927.843	12563
927.95	12418
928.056	12502
928.162	12464
928.267	12528
928.373	13141
928.479	12620
928.585	12369
928.69	12536
928.796	12391
928.901	12353
929.007	12201
929.112	12346
929.218	12292
929.323	12243
929.428	12140
929.533	12304
929.638	12152
929.743	12178
929.848	12190
929.953	12167
930.058	12053
930.163	11920
930.267	11889
930.372	12041
930.477	11783
930.581	11977
930.685	11931
930.79	11752
930.894	11688
930.998	11665
931.103	11931
931.207	11570
931.311	11444
931.415	11372
931.519	11162
931.623	11113
