Data from test_V78500241_3231.txt Node
Date: Fri Mar 25 16:04:11 CST 2022
User: usil
Spectrometer: V785-0024
Trigger mode: 0
Integration Time (sec): 4.000000E-1
Scans to average: 1
Nonlinearity correction enabled: false
Boxcar width: 0
Storing dark spectrum: false
XAxis mode: Wavelengths
Number of Pixels in Spectrum: 1024
>>>>>Begin Spectral Data<<<<<
801.071	28900
801.214	28850
801.356	28725
801.499	28611
801.641	28401
801.783	28531
801.926	28672
802.068	28478
802.211	28401
802.353	28405
802.496	28230
802.638	28070
802.78	28162
802.923	28078
803.065	27964
803.208	28032
803.35	28188
803.492	28367
803.635	28382
803.777	28272
803.919	28348
804.061	28721
804.204	28508
804.346	28344
804.488	28371
804.63	28436
804.773	28344
804.915	28481
805.057	28596
805.199	28352
805.341	28440
805.483	28573
805.626	28557
805.768	28421
805.91	28569
806.052	28664
806.194	28573
806.336	28793
806.478	28535
806.62	28653
806.762	28733
806.904	28805
807.046	29223
807.188	28892
807.33	29067
807.472	29159
807.614	29155
807.756	29159
807.898	29018
808.04	28782
808.182	28873
808.324	28904
808.465	29090
808.607	29029
808.749	29425
808.891	29429
809.033	29337
809.174	29315
809.316	29311
809.458	29273
809.6	29288
809.741	29284
809.883	29490
810.025	29699
810.166	29619
810.308	29547
810.45	29570
810.591	29505
810.733	29368
810.875	29307
811.016	29242
811.158	29242
811.299	29391
811.441	29474
811.582	29474
811.724	29307
811.865	29315
812.007	29254
812.148	29414
812.29	29368
812.431	29539
812.573	29733
812.714	29756
812.855	29931
812.997	30068
813.138	30155
813.279	29999
813.421	29885
813.562	29843
813.703	29672
813.845	29630
813.986	29326
814.127	29060
814.268	29044
814.41	29132
814.551	29014
814.692	29029
814.833	29044
814.974	29041
815.115	29003
815.256	29014
815.397	28843
815.539	28892
815.68	28759
815.821	28622
815.962	28976
816.103	28778
816.244	28672
816.385	28634
816.526	28588
816.666	28478
816.807	28344
816.948	28481
817.089	28504
817.23	28436
817.371	28356
817.512	28299
817.653	28230
817.793	28150
817.934	28371
818.075	28417
818.216	28478
818.356	28451
818.497	28223
818.638	28124
818.778	28192
818.919	28086
819.06	28181
819.2	28390
819.341	28421
819.481	28284
819.622	28519
819.762	28885
819.903	28698
820.043	28736
820.184	28599
820.324	28421
820.465	28588
820.605	28634
820.746	28497
820.886	28455
821.026	28489
821.167	28447
821.307	28451
821.447	28322
821.588	28337
821.728	28234
821.868	27975
822.008	28010
822.149	27827
822.289	27892
822.429	27496
822.569	27496
822.709	27534
822.849	27302
822.99	27466
823.13	27401
823.27	27310
823.41	27237
823.55	27055
823.69	27268
823.83	27211
823.97	27211
824.11	26963
824.25	26921
824.389	26956
824.529	27032
824.669	26994
824.809	27051
824.949	27165
825.089	26937
825.228	26998
825.368	26834
825.508	26762
825.648	26960
825.787	26883
825.927	26963
826.067	26853
826.206	26929
826.346	27005
826.485	27036
826.625	26819
826.765	27024
826.904	26925
827.044	26705
827.183	26697
827.323	26522
827.462	26568
827.601	26571
827.741	26575
827.88	26746
828.02	26583
828.159	26598
828.298	26522
828.437	26587
828.577	26450
828.716	26716
828.855	26381
828.994	26195
829.134	26374
829.273	26347
829.412	26358
829.551	26301
829.69	26381
829.829	26343
829.968	26389
830.107	26366
830.246	26301
830.385	26248
830.524	26187
830.663	26031
830.802	26062
830.941	25856
831.08	25989
831.219	25951
831.357	26012
831.496	26267
831.635	25974
831.774	25894
831.913	25849
832.051	25784
832.19	25696
832.329	25628
832.467	25708
832.606	25514
832.744	25449
832.883	25609
833.022	25556
833.16	25464
833.299	25499
833.437	25780
833.576	25601
833.714	25586
833.852	25693
833.991	25647
834.129	25746
834.267	25765
834.406	25674
834.544	25784
834.682	25624
834.821	25635
834.959	25712
835.097	25556
835.235	25704
835.373	25609
835.511	25609
835.65	25438
835.788	25571
835.926	25373
836.064	25301
836.202	25270
836.34	25411
836.478	25510
836.615	25411
836.753	25506
836.891	25578
837.029	25502
837.167	25400
837.305	25411
837.443	25392
837.58	25289
837.718	25369
837.856	25396
837.993	25221
838.131	25221
838.269	25118
838.406	25251
838.544	25107
838.681	24928
838.819	24901
838.956	24795
839.094	24745
839.231	24730
839.369	24985
839.506	25122
839.643	24954
839.781	24848
839.918	24749
840.055	24757
840.193	24700
840.33	24604
840.467	24726
840.604	24703
840.742	24935
840.879	24559
841.016	24650
841.153	24536
841.29	24798
841.427	24505
841.564	24688
841.701	24764
841.838	24601
841.975	24578
842.112	24505
842.249	24521
842.385	24631
842.522	24726
842.659	24403
842.796	24559
842.933	24528
843.069	24369
843.206	24407
843.343	24350
843.479	24361
843.616	24361
843.752	24247
843.889	24197
844.025	24220
844.162	24243
844.298	24395
844.435	24068
844.571	24197
844.708	24273
844.844	24327
844.98	24407
845.117	24197
845.253	24129
845.389	24015
845.525	24251
845.661	24095
845.798	23904
845.934	24003
846.07	24041
846.206	23996
846.342	23950
846.478	23832
846.614	23824
846.75	23653
846.886	23680
847.022	23615
847.158	23707
847.294	23585
847.429	23699
847.565	23722
847.701	23805
847.837	23318
847.972	23391
848.108	23520
848.244	23383
848.379	23231
848.515	23280
848.65	23239
848.786	23185
848.921	23284
849.057	23471
849.192	23421
849.328	23208
849.463	23372
849.598	23235
849.734	23189
849.869	23037
850.004	22968
850.14	23029
850.275	23048
850.41	22892
850.545	22965
850.68	22984
850.815	22976
850.95	22995
851.085	23136
851.22	23185
851.355	23025
851.49	22961
851.625	23010
851.76	22995
851.895	22976
852.03	22915
852.165	23067
852.299	23117
852.434	23162
852.569	23056
852.703	22953
852.838	23189
852.973	23086
853.107	23090
853.242	22934
853.376	22862
853.511	22949
853.645	22759
853.78	22862
853.914	22820
854.048	22942
854.183	22854
854.317	22782
854.451	22984
854.585	22763
854.72	22858
854.854	23025
854.988	22809
855.122	22915
855.256	22809
855.39	22797
855.524	22999
855.658	22866
855.792	22755
855.926	22942
856.06	22999
856.194	22858
856.327	22752
856.461	22831
856.595	22816
856.729	22908
856.862	22824
856.996	22854
857.13	22927
857.263	22965
857.397	22949
857.53	22767
857.664	22881
857.797	22850
857.931	23006
858.064	22752
858.197	22908
858.331	22759
858.464	22752
858.597	22660
858.731	22793
858.864	22744
858.997	22771
859.13	22923
859.263	22858
859.396	22885
859.529	22839
859.662	22733
859.795	22820
859.928	22843
860.061	22949
860.194	23094
860.327	22824
860.46	22850
860.592	22949
860.725	22934
860.858	22908
860.99	22911
861.123	22694
861.256	22710
861.388	22809
861.521	23471
861.653	22622
861.786	22653
861.918	22702
862.05	22698
862.183	22755
862.315	22797
862.447	22793
862.58	22717
862.712	22512
862.844	22641
862.976	22577
863.108	22611
863.24	22946
863.372	22535
863.504	22565
863.636	22573
863.768	22474
863.9	22519
864.032	22413
864.164	22573
864.296	22580
864.428	22592
864.559	22603
864.691	22504
864.823	22538
864.954	22466
865.086	22424
865.217	22432
865.349	22253
865.48	22428
865.612	22527
865.743	22440
865.875	22352
866.006	22253
866.137	22390
866.269	22398
866.4	22287
866.531	22348
866.662	22352
866.793	22272
866.924	22318
867.055	22341
867.186	22421
867.317	22402
867.448	22299
867.579	22185
867.71	22226
867.841	22303
867.972	22329
868.103	22333
868.233	22337
868.364	22276
868.495	22493
868.625	22531
868.756	22656
868.886	22462
869.017	22527
869.147	22641
869.278	22618
869.408	22592
869.539	22504
869.669	22645
869.799	22626
869.929	22694
870.06	22618
870.19	22900
870.32	22885
870.45	22965
870.58	22869
870.71	23067
870.84	23052
870.97	23010
871.1	22938
871.23	23151
871.36	23010
871.489	23014
871.619	23208
871.749	23166
871.879	23200
872.008	23334
872.138	23147
872.267	23117
872.397	23109
872.526	22946
872.656	23041
872.785	23022
872.915	23136
873.044	23204
873.173	23212
873.303	23242
873.432	23242
873.561	23353
873.69	23231
873.819	23181
873.948	23242
874.077	23220
874.206	23231
874.335	23216
874.464	23265
874.593	23398
874.722	23364
874.851	23531
874.979	23376
875.108	23353
875.237	23284
875.365	23239
875.494	23349
875.623	23539
875.751	23322
875.88	23341
876.008	23592
876.136	23661
876.265	23737
876.393	23965
876.521	23809
876.65	23775
876.778	23843
876.906	23741
877.034	23703
877.162	23707
877.29	23676
877.418	23775
877.546	23695
877.674	23748
877.802	23718
877.93	23630
878.058	23699
878.185	23573
878.313	23794
878.441	23733
878.568	23528
878.696	23649
878.824	23809
878.951	23882
879.079	23920
879.206	23859
879.333	23794
879.461	23920
879.588	23965
879.715	23859
879.842	23939
879.97	23901
880.097	23596
880.224	23436
880.351	23562
880.478	23497
880.605	23528
880.732	23554
880.859	23771
880.986	23596
881.112	23573
881.239	23417
881.366	23296
881.493	23235
881.619	23071
881.746	23200
881.872	23189
881.999	23239
882.125	23094
882.252	23193
882.378	23060
882.505	23258
882.631	23037
882.757	22774
882.883	22934
883.01	22812
883.136	22782
883.262	22664
883.388	22801
883.514	22831
883.64	22824
883.766	22645
883.892	22622
884.018	22675
884.143	22710
884.269	22843
884.395	22584
884.52	22470
884.646	22356
884.772	22390
884.897	22226
885.023	22386
885.148	22485
885.274	22637
885.399	22580
885.524	22421
885.65	22337
885.775	22409
885.9	22443
886.025	22577
886.15	22470
886.275	22341
886.4	22303
886.525	22409
886.65	22348
886.775	22352
886.9	22577
887.025	22645
887.149	22519
887.274	22299
887.399	22287
887.523	22196
887.648	22139
887.773	22128
887.897	22375
888.021	22246
888.146	22120
888.27	22299
888.395	22268
888.519	22166
888.643	22249
888.767	22234
888.891	22090
889.015	22048
889.139	22101
889.263	21869
889.387	22188
889.511	22261
889.635	22074
889.759	21968
889.883	22002
890.006	22078
890.13	22105
890.254	21892
890.377	21899
890.501	21759
890.624	21641
890.748	21800
890.871	21648
890.995	21553
891.118	21473
891.241	21545
891.364	21500
891.488	21682
891.611	21382
891.734	21633
891.857	21595
891.98	21679
892.103	21553
892.226	21454
892.349	21389
892.471	21351
892.594	21473
892.717	21553
892.839	21458
892.962	21420
893.085	21378
893.207	21306
893.33	21184
893.452	21336
893.575	21523
893.697	21367
893.819	21526
893.941	21523
894.064	21595
894.186	21340
894.308	21469
894.43	21511
894.552	21526
894.674	21507
894.796	21211
894.918	21329
895.04	21393
895.161	21447
895.283	21504
895.405	21340
895.526	21275
895.648	21439
895.769	21625
895.891	21458
896.012	21507
896.134	21439
896.255	21428
896.376	21310
896.498	21283
896.619	21428
896.74	21252
896.861	21279
896.982	21755
897.103	21816
897.224	21618
897.345	21549
897.466	21523
897.587	21591
897.708	21679
897.828	21751
897.949	21431
898.07	21439
898.19	21412
898.311	21606
898.431	21458
898.552	21606
898.672	21564
898.792	21644
898.913	21507
899.033	21496
899.153	21424
899.273	21214
899.393	21344
899.513	21378
899.633	21336
899.753	21336
899.873	21100
899.993	21207
900.113	21252
900.232	21203
900.352	21279
900.472	21013
900.591	21028
900.711	21066
900.83	21096
900.95	21211
901.069	21218
901.189	20883
901.308	20743
901.427	20579
901.546	20739
901.665	20499
901.784	20629
901.904	20476
902.023	20362
902.141	20157
902.26	20172
902.379	20202
902.498	20161
902.617	20062
902.735	20138
902.854	20092
902.973	20039
903.091	19849
903.21	19833
903.328	19791
903.446	19742
903.565	19533
903.683	19700
903.801	19426
903.919	19563
904.038	19441
904.156	19354
904.274	19377
904.392	19320
904.51	19354
904.627	19339
904.745	19236
904.863	19411
904.981	19225
905.098	19038
905.216	19099
905.334	19076
905.451	19053
905.569	18886
905.686	18951
905.803	18996
905.921	18669
906.038	18977
906.155	18787
906.272	18696
906.389	18639
906.506	18509
906.623	18525
906.74	18506
906.857	18365
906.974	18388
907.091	18665
907.208	18692
907.324	18544
907.441	18452
907.557	18292
907.674	18213
907.79	18140
907.907	18323
908.023	18243
908.139	18205
908.256	18186
908.372	18064
908.488	18064
908.604	18022
908.72	17961
908.836	17939
908.952	17908
909.068	18022
909.184	17965
909.3	18049
909.415	17920
909.531	17927
909.647	17767
909.762	17619
909.878	17619
909.993	17608
910.108	17684
910.224	17623
910.339	17638
910.454	17512
910.57	17410
910.685	17326
910.8	17619
910.915	17547
911.03	17417
911.145	17326
911.259	17109
911.374	17284
911.489	17105
911.604	17162
911.718	17086
911.833	17014
911.947	16831
912.062	16748
912.176	17010
912.291	17033
912.405	16911
912.519	17060
912.633	17033
912.748	17006
912.862	16930
912.976	16835
913.09	16630
913.204	16721
913.318	16782
913.431	16869
913.545	16767
913.659	16816
913.772	16630
913.886	16721
914	16500
914.113	16698
914.226	16561
914.34	16637
914.453	16424
914.566	16630
914.68	16459
914.793	16455
914.906	16253
915.019	16131
915.132	16181
915.245	16162
915.358	16223
915.47	16120
915.583	16211
915.696	16200
915.809	16291
915.921	16188
916.034	16032
916.146	15956
916.259	15960
916.371	16055
916.483	16006
916.595	15926
916.708	15987
916.82	15975
916.932	15907
917.044	15819
917.156	15857
917.268	15774
917.38	15766
917.491	15644
917.603	15641
917.715	15755
917.826	15751
917.938	15751
918.049	15507
918.161	15701
918.272	15743
918.384	15816
918.495	15732
918.606	15538
918.717	15363
918.828	15435
918.939	15488
919.05	15412
919.161	15469
919.272	15249
919.383	15298
919.494	15496
919.604	15679
919.715	15454
919.826	15332
919.936	15439
920.047	15488
920.157	15458
920.267	15595
920.378	15492
920.488	15462
920.598	15648
920.708	15648
920.818	15507
920.928	15549
921.038	15774
921.148	15781
921.258	15416
921.368	15287
921.477	15093
921.587	15089
921.697	15062
921.806	15157
921.916	14971
922.025	14830
922.134	14804
922.244	14678
922.353	14765
922.462	14651
922.571	14564
922.68	14412
922.789	14385
922.898	14469
923.007	14320
923.116	14396
923.224	14332
923.333	14275
923.442	14244
923.55	14210
923.659	14183
923.767	14199
923.876	14164
923.984	14221
924.092	14096
924.201	14092
924.309	14157
924.417	14100
924.525	14058
924.633	14100
924.741	14769
924.849	13814
924.956	14073
925.064	13860
925.172	13670
925.279	13849
925.387	13833
925.494	13788
925.602	13837
925.709	13742
925.816	13605
925.924	13677
926.031	13769
926.138	13734
926.245	13852
926.352	13616
926.459	13746
926.566	13700
926.673	13666
926.779	13548
926.886	13476
926.993	13346
927.099	13297
927.206	13225
927.312	13232
927.419	13384
927.525	13282
927.631	13320
927.737	13179
927.843	13126
927.95	12947
928.056	13137
928.162	13232
928.267	13141
928.373	13594
928.479	13187
928.585	12909
928.69	13000
928.796	13190
928.901	12901
929.007	12787
929.112	12985
929.218	12924
929.323	12779
929.428	12776
929.533	12943
929.638	12692
929.743	12688
929.848	12833
929.953	12688
930.058	12665
930.163	12483
930.267	12551
930.372	12696
930.477	12460
930.581	12703
930.685	12445
930.79	12338
930.894	12388
930.998	12308
931.103	12445
931.207	12125
931.311	12015
931.415	11927
931.519	11752
931.623	11668
