Data from test_V78500241_3414.txt Node
Date: Fri Mar 25 16:05:27 CST 2022
User: usil
Spectrometer: V785-0024
Trigger mode: 0
Integration Time (sec): 4.000000E-1
Scans to average: 1
Nonlinearity correction enabled: false
Boxcar width: 0
Storing dark spectrum: false
XAxis mode: Wavelengths
Number of Pixels in Spectrum: 1024
>>>>>Begin Spectral Data<<<<<
801.071	28782
801.214	28656
801.356	28565
801.499	28291
801.641	28367
801.783	28405
801.926	28314
802.068	28497
802.211	28284
802.353	28211
802.496	27930
802.638	27994
802.78	28063
802.923	27987
803.065	27895
803.208	27884
803.35	27987
803.492	28299
803.635	28226
803.777	28162
803.919	28375
804.061	28542
804.204	28276
804.346	28234
804.488	28215
804.63	28242
804.773	28249
804.915	28166
805.057	28375
805.199	28291
805.341	28379
805.483	28291
805.626	28291
805.768	28238
805.91	28538
806.052	28379
806.194	28516
806.336	28596
806.478	28413
806.62	28322
806.762	28535
806.904	28790
807.046	28968
807.188	29159
807.33	28942
807.472	28995
807.614	28805
807.756	28809
807.898	28710
808.04	28656
808.182	28740
808.324	28740
808.465	28877
808.607	29067
808.749	29162
808.891	29124
809.033	29227
809.174	29231
809.316	29117
809.458	29109
809.6	29124
809.741	29147
809.883	29326
810.025	29406
810.166	29425
810.308	29486
810.45	29318
810.591	29277
810.733	29159
810.875	29090
811.016	29090
811.158	28938
811.299	29277
811.441	29311
811.582	29197
811.724	29193
811.865	29208
812.007	29003
812.148	29162
812.29	29079
812.431	29280
812.573	29497
812.714	29649
812.855	29520
812.997	29843
813.138	29840
813.279	29786
813.421	29649
813.562	29539
813.703	29478
813.845	29379
813.986	29083
814.127	28999
814.268	28809
814.41	28885
814.551	28805
814.692	29083
814.833	28881
814.974	28710
815.115	28797
815.256	28687
815.397	28721
815.539	28793
815.68	28679
815.821	28588
815.962	28854
816.103	28592
816.244	28500
816.385	28516
816.526	28516
816.666	28318
816.807	28154
816.948	28234
817.089	28310
817.23	28303
817.371	28219
817.512	28234
817.653	28219
817.793	28017
817.934	28200
818.075	28154
818.216	28242
818.356	28097
818.497	28032
818.638	27892
818.778	27949
818.919	27930
819.06	27953
819.2	28082
819.341	28158
819.481	28116
819.622	28382
819.762	28470
819.903	28481
820.043	28226
820.184	28226
820.324	28348
820.465	28284
820.605	28451
820.746	28401
820.886	28211
821.026	28272
821.167	28295
821.307	28295
821.447	28261
821.588	28040
821.728	27975
821.868	27903
822.008	27766
822.149	27641
822.289	27660
822.429	27378
822.569	27408
822.709	27272
822.849	27157
822.99	27165
823.13	27108
823.27	27116
823.41	26804
823.55	27013
823.69	26937
823.83	27043
823.97	26940
824.11	26777
824.25	26880
824.389	26880
824.529	26807
824.669	26845
824.809	26910
824.949	26883
825.089	26838
825.228	26971
825.368	26594
825.508	26826
825.648	26644
825.787	26746
825.927	26731
826.067	26609
826.206	26693
826.346	26746
826.485	26659
826.625	26720
826.765	26910
826.904	26807
827.044	26522
827.183	26537
827.323	26453
827.462	26560
827.601	26431
827.741	26324
827.88	26381
828.02	26256
828.159	26469
828.298	26457
828.437	26427
828.577	26362
828.716	26419
828.855	26320
828.994	26134
829.134	25959
829.273	26145
829.412	25951
829.551	25959
829.69	26016
829.829	26122
829.968	26225
830.107	26221
830.246	26142
830.385	26027
830.524	26020
830.663	25936
830.802	25811
830.941	25795
831.08	25689
831.219	25814
831.357	25830
831.496	25947
831.635	25753
831.774	25616
831.913	25609
832.051	25514
832.19	25483
832.329	25457
832.467	25483
832.606	25289
832.744	25403
832.883	25346
833.022	25244
833.16	25278
833.299	25316
833.437	25476
833.576	25518
833.714	25464
833.852	25537
833.991	25620
834.129	25438
834.267	25514
834.406	25422
834.544	25491
834.682	25339
834.821	25293
834.959	25597
835.097	25339
835.235	25544
835.373	25453
835.511	25403
835.65	25384
835.788	25324
835.926	25194
836.064	25015
836.202	25187
836.34	25312
836.478	25274
836.615	25164
836.753	25259
836.891	25282
837.029	25259
837.167	25266
837.305	25175
837.443	25190
837.58	25114
837.718	25133
837.856	25129
837.993	25046
838.131	25027
838.269	25023
838.406	25008
838.544	24886
838.681	24817
838.819	24650
838.956	24642
839.094	24597
839.231	24532
839.369	24825
839.506	24970
839.643	24783
839.781	24563
839.918	24441
840.055	24563
840.193	24551
840.33	24483
840.467	24437
840.604	24620
840.742	24753
840.879	24213
841.016	24361
841.153	24365
841.29	24578
841.427	24460
841.564	24338
841.701	24448
841.838	24418
841.975	24376
842.112	24464
842.249	24395
842.385	24216
842.522	24437
842.659	24353
842.796	24205
842.933	24194
843.069	24167
843.206	24235
843.343	24346
843.479	24277
843.616	24106
843.752	24038
843.889	24133
844.025	24098
844.162	24049
844.298	24125
844.435	23999
844.571	23996
844.708	24045
844.844	24117
844.98	24095
845.117	24194
845.253	23954
845.389	23802
845.525	23939
845.661	23824
845.798	23718
845.934	23813
846.07	23684
846.206	23878
846.342	23805
846.478	23733
846.614	23562
846.75	23478
846.886	23417
847.022	23558
847.158	23417
847.294	23429
847.429	23490
847.565	23368
847.701	23714
847.837	23174
847.972	23121
848.108	23353
848.244	23220
848.379	23090
848.515	22911
848.65	23037
848.786	23124
848.921	23064
849.057	23231
849.192	23105
849.328	23113
849.463	23094
849.598	22961
849.734	23060
849.869	22835
850.004	22721
850.14	22694
850.275	22778
850.41	22752
850.545	22706
850.68	22835
850.815	22911
850.95	22694
851.085	22957
851.22	22904
851.355	22824
851.49	22744
851.625	22755
851.76	22706
851.895	22660
852.03	22615
852.165	22797
852.299	22862
852.434	22889
852.569	22782
852.703	22801
852.838	22889
852.973	22900
853.107	22892
853.242	22679
853.376	22584
853.511	22573
853.645	22672
853.78	22755
853.914	22672
854.048	22683
854.183	22744
854.317	22725
854.451	22786
854.585	22596
854.72	22702
854.854	22634
854.988	22645
855.122	22611
855.256	22630
855.39	22569
855.524	22748
855.658	22660
855.792	22607
855.926	22531
856.06	22683
856.194	22736
856.327	22641
856.461	22611
856.595	22569
856.729	22459
856.862	22828
856.996	22656
857.13	22733
857.263	22687
857.397	22584
857.53	22740
857.664	22637
857.797	22691
857.931	22729
858.064	22656
858.197	22664
858.331	22691
858.464	22516
858.597	22611
858.731	22634
858.864	22485
858.997	22561
859.13	22561
859.263	22592
859.396	22672
859.529	22656
859.662	22542
859.795	22584
859.928	22611
860.061	22687
860.194	22850
860.327	22710
860.46	22637
860.592	22733
860.725	22809
860.858	22767
860.99	22630
861.123	22550
861.256	22584
861.388	22664
861.521	23520
861.653	22535
861.786	22219
861.918	22561
862.05	22577
862.183	22607
862.315	22466
862.447	22569
862.58	22611
862.712	22371
862.844	22341
862.976	22455
863.108	22348
863.24	22733
863.372	22333
863.504	22337
863.636	22421
863.768	22284
863.9	22337
864.032	22280
864.164	22287
864.296	22386
864.428	22405
864.559	22367
864.691	22493
864.823	22272
864.954	22223
865.086	22242
865.217	22070
865.349	22181
865.48	22166
865.612	22162
865.743	22333
865.875	22253
866.006	22310
866.137	22223
866.269	22177
866.4	22261
866.531	22272
866.662	22044
866.793	22143
866.924	22135
867.055	22128
867.186	22143
867.317	22188
867.448	22128
867.579	22105
867.71	22097
867.841	22074
867.972	22070
868.103	22074
868.233	22086
868.364	22112
868.495	22246
868.625	22402
868.756	22481
868.886	22234
869.017	22375
869.147	22493
869.278	22440
869.408	22478
869.539	22223
869.669	22390
869.799	22409
869.929	22440
870.06	22504
870.19	22603
870.32	22717
870.45	22637
870.58	22710
870.71	22968
870.84	22843
870.97	22748
871.1	22771
871.23	22934
871.36	22938
871.489	22828
871.619	22965
871.749	22949
871.879	23041
872.008	22995
872.138	22896
872.267	22999
872.397	22904
872.526	22702
872.656	22896
872.785	22740
872.915	23025
873.044	22995
873.173	23155
873.303	23086
873.432	22938
873.561	23117
873.69	22965
873.819	22968
873.948	23044
874.077	23121
874.206	22850
874.335	22923
874.464	23117
874.593	23204
874.722	23155
874.851	23269
874.979	23269
875.108	23315
875.237	23166
875.365	23117
875.494	23140
875.623	23250
875.751	23185
875.88	23220
876.008	23433
876.136	23296
876.265	23775
876.393	23760
876.521	23672
876.65	23699
876.778	23558
876.906	23478
877.034	23623
877.162	23391
877.29	23520
877.418	23642
877.546	23501
877.674	23474
877.802	23554
877.93	23535
878.058	23551
878.185	23341
878.313	23478
878.441	23501
878.568	23455
878.696	23516
878.824	23528
878.951	23657
879.079	23646
879.206	23802
879.333	23657
879.461	23604
879.588	23653
879.715	23687
879.842	23843
879.97	23630
880.097	23379
880.224	23341
880.351	23307
880.478	23490
880.605	23235
880.732	23349
880.859	23585
880.986	23307
881.112	23353
881.239	23239
881.366	23193
881.493	23006
881.619	22957
881.746	22949
881.872	22923
881.999	22946
882.125	22847
882.252	22824
882.378	22976
882.505	23048
882.631	22831
882.757	22698
882.883	22755
883.01	22717
883.136	22615
883.262	22497
883.388	22367
883.514	22599
883.64	22626
883.766	22550
883.892	22360
884.018	22390
884.143	22626
884.269	22634
884.395	22204
884.52	22226
884.646	22265
884.772	22158
884.897	22211
885.023	22284
885.148	22325
885.274	22382
885.399	22363
885.524	22223
885.65	22386
885.775	22211
885.9	22337
886.025	22329
886.15	22253
886.275	22154
886.4	22109
886.525	22131
886.65	22150
886.775	22101
886.9	22333
887.025	22451
887.149	22238
887.274	22036
887.399	22055
887.523	21899
887.648	21911
887.773	21819
887.897	22226
888.021	22010
888.146	21937
888.27	22013
888.395	22226
888.519	22002
888.643	22002
888.767	22082
888.891	21937
889.015	21819
889.139	21899
889.263	21739
889.387	21934
889.511	21873
889.635	21823
889.759	21770
889.883	21629
890.006	21831
890.13	21789
890.254	21705
890.377	21625
890.501	21545
890.624	21557
890.748	21553
890.871	21428
890.995	21367
891.118	21340
891.241	21405
891.364	21287
891.488	21523
891.611	21374
891.734	21393
891.857	21283
891.98	21306
892.103	21272
892.226	21370
892.349	21173
892.471	21161
892.594	21203
892.717	21176
892.839	21211
892.962	21287
893.085	21252
893.207	21237
893.33	20975
893.452	21157
893.575	21241
893.697	21142
893.819	21466
893.941	21504
894.064	21291
894.186	21173
894.308	21150
894.43	21287
894.552	21291
894.674	21408
894.796	21146
894.918	21104
895.04	21123
895.161	21150
895.283	21218
895.405	21146
895.526	21218
895.648	21146
895.769	21249
895.891	21317
896.012	21332
896.134	21154
896.255	21203
896.376	21154
896.498	21199
896.619	21237
896.74	21142
896.861	21249
896.982	21564
897.103	21641
897.224	21397
897.345	21321
897.466	21348
897.587	21370
897.708	21485
897.828	21351
897.949	21302
898.07	21116
898.19	21211
898.311	21454
898.431	21256
898.552	21386
898.672	21549
898.792	21428
898.913	21310
899.033	21294
899.153	21157
899.273	21119
899.393	21104
899.513	21131
899.633	21123
899.753	21138
899.873	21055
899.993	21036
900.113	21032
900.232	20956
900.352	20986
900.472	20998
900.591	20864
900.711	20914
900.83	20849
900.95	20948
901.069	20944
901.189	20750
901.308	20541
901.427	20564
901.546	20484
901.665	20564
901.784	20438
901.904	20267
902.023	20244
902.141	20107
902.26	19955
902.379	20020
902.498	19940
902.617	19902
902.735	19921
902.854	19913
902.973	19814
903.091	19674
903.21	19628
903.328	19613
903.446	19510
903.565	19384
903.683	19430
903.801	19320
903.919	19320
904.038	19415
904.156	19213
904.274	19187
904.392	19187
904.51	19133
904.627	19145
904.745	19175
904.863	19190
904.981	18897
905.098	18711
905.216	18764
905.334	18901
905.451	18829
905.569	18772
905.686	18871
905.803	18779
905.921	18658
906.038	18757
906.155	18544
906.272	18471
906.389	18582
906.506	18395
906.623	18441
906.74	18304
906.857	18163
906.974	18281
907.091	18346
907.208	18559
907.324	18372
907.441	18285
907.557	18125
907.674	18060
907.79	17961
907.907	18015
908.023	17931
908.139	18068
908.256	18011
908.372	17977
908.488	17946
908.604	17840
908.72	17726
908.836	17783
908.952	17699
909.068	17722
909.184	17889
909.3	17752
909.415	17813
909.531	17840
909.647	17516
909.762	17463
909.878	17318
909.993	17543
910.108	17410
910.224	17402
910.339	17505
910.454	17273
910.57	17292
910.685	17220
910.8	17410
910.915	17444
911.03	17292
911.145	17136
911.259	17094
911.374	17117
911.489	17014
911.604	16972
911.718	16915
911.833	16858
911.947	16733
912.062	16645
912.176	16812
912.291	16850
912.405	16717
912.519	16854
912.633	16850
912.748	16866
912.862	16767
912.976	16664
913.09	16432
913.204	16535
913.318	16634
913.431	16691
913.545	16679
913.659	16653
913.772	16558
913.886	16322
914	16428
914.113	16474
914.226	16493
914.34	16405
914.453	16379
914.566	16500
914.68	16230
914.793	16276
914.906	16032
915.019	15964
915.132	15987
915.245	15922
915.358	15960
915.47	16010
915.583	15987
915.696	15899
915.809	16032
915.921	16116
916.034	15869
916.146	15934
916.259	15698
916.371	15911
916.483	15911
916.595	15705
916.708	15804
916.82	15739
916.932	15739
917.044	15724
917.156	15789
917.268	15652
917.38	15587
917.491	15538
917.603	15564
917.715	15599
917.826	15705
917.938	15450
918.049	15401
918.161	15462
918.272	15728
918.384	15504
918.495	15454
918.606	15302
918.717	15351
918.828	15317
918.939	15310
919.05	15237
919.161	15355
919.272	15047
919.383	15131
919.494	15344
919.604	15431
919.715	15252
919.826	15077
919.936	15245
920.047	15268
920.157	15214
920.267	15458
920.378	15252
920.488	15237
920.598	15424
920.708	15500
920.818	15378
920.928	15363
921.038	15469
921.148	15610
921.258	15279
921.368	15043
921.477	14963
921.587	14971
921.697	14838
921.806	14929
921.916	14807
922.025	14693
922.134	14617
922.244	14530
922.353	14701
922.462	14476
922.571	14408
922.68	14301
922.789	14244
922.898	14309
923.007	14225
923.116	14332
923.224	14218
923.333	14290
923.442	14039
923.55	14058
923.659	14115
923.767	14134
923.876	13974
923.984	14100
924.092	13917
924.201	14031
924.309	13993
924.417	14065
924.525	13887
924.633	13932
924.741	14686
924.849	13772
924.956	13818
925.064	13750
925.172	13616
925.279	13582
925.387	13674
925.494	13723
925.602	13674
925.709	13704
925.816	13449
925.924	13480
926.031	13689
926.138	13559
926.245	13567
926.352	13468
926.459	13578
926.566	13601
926.673	13445
926.779	13350
926.886	13301
926.993	13236
927.099	13304
927.206	13145
927.312	13145
927.419	13183
927.525	13152
927.631	13362
927.737	13000
927.843	13004
927.95	12882
928.056	12951
928.162	12954
928.267	13027
928.373	13689
928.479	13050
928.585	12821
928.69	12901
928.796	12916
928.901	12787
929.007	12730
929.112	12856
929.218	12821
929.323	12711
929.428	12692
929.533	12863
929.638	12673
929.743	12669
929.848	12623
929.953	12642
930.058	12517
930.163	12380
930.267	12437
930.372	12532
930.477	12311
930.581	12635
930.685	12433
930.79	12171
930.894	12194
930.998	12251
931.103	12342
931.207	11969
931.311	11931
931.415	11851
931.519	11573
931.623	11554
