Data from test_V78500241_1026.txt Node
Date: Fri Mar 25 15:48:54 CST 2022
User: usil
Spectrometer: V785-0024
Trigger mode: 0
Integration Time (sec): 4.000000E-1
Scans to average: 1
Nonlinearity correction enabled: false
Boxcar width: 0
Storing dark spectrum: false
XAxis mode: Wavelengths
Number of Pixels in Spectrum: 1024
>>>>>Begin Spectral Data<<<<<
801.071	28371
801.214	28207
801.356	28128
801.499	27854
801.641	27979
801.783	27979
801.926	27953
802.068	27937
802.211	27892
802.353	27720
802.496	27557
802.638	27614
802.78	27644
802.923	27504
803.065	27511
803.208	27458
803.35	27679
803.492	27595
803.635	27603
803.777	27507
803.919	27622
804.061	28097
804.204	27972
804.346	27705
804.488	27542
804.63	27564
804.773	27523
804.915	27743
805.057	27895
805.199	27819
805.341	27770
805.483	27960
805.626	27876
805.768	27781
805.91	28017
806.052	27918
806.194	27808
806.336	28204
806.478	28013
806.62	27861
806.762	27991
806.904	28116
807.046	28386
807.188	28341
807.33	28428
807.472	28379
807.614	28215
807.756	28303
807.898	28109
808.04	28215
808.182	28097
808.324	28116
808.465	28249
808.607	28459
808.749	28664
808.891	28637
809.033	28694
809.174	28580
809.316	28565
809.458	28668
809.6	28447
809.741	28755
809.883	28740
810.025	28835
810.166	28908
810.308	28911
810.45	28801
810.591	28793
810.733	28740
810.875	28607
811.016	28569
811.158	28436
811.299	28790
811.441	28866
811.582	28755
811.724	28516
811.865	28630
812.007	28660
812.148	28569
812.29	28778
812.431	28771
812.573	28866
812.714	29124
812.855	29360
812.997	29212
813.138	29311
813.279	29258
813.421	29132
813.562	28938
813.703	28797
813.845	28854
813.986	28516
814.127	28291
814.268	28333
814.41	28200
814.551	28325
814.692	28318
814.833	28284
814.974	28173
815.115	28382
815.256	28147
815.397	28002
815.539	28078
815.68	27991
815.821	28006
815.962	27945
816.103	28128
816.244	27880
816.385	27941
816.526	27907
816.666	27701
816.807	27557
816.948	27698
817.089	27625
817.23	27633
817.371	27762
817.512	27530
817.653	27462
817.793	27469
817.934	27701
818.075	27564
818.216	27587
818.356	27553
818.497	27431
818.638	27233
818.778	27283
818.919	27268
819.06	27363
819.2	27378
819.341	27511
819.481	27686
819.622	27671
819.762	27766
819.903	27968
820.043	27762
820.184	27564
820.324	27728
820.465	27667
820.605	27713
820.746	27614
820.886	27610
821.026	27622
821.167	27675
821.307	27663
821.447	27564
821.588	27496
821.728	27416
821.868	27272
822.008	27119
822.149	26990
822.289	27093
822.429	26693
822.569	26765
822.709	26769
822.849	26575
822.99	26579
823.13	26602
823.27	26461
823.41	26347
823.55	26286
823.69	26370
823.83	26404
823.97	26320
824.11	26183
824.25	26145
824.389	26164
824.529	26221
824.669	26195
824.809	26256
824.949	26290
825.089	26138
825.228	26168
825.368	26122
825.508	26069
825.648	26008
825.787	26115
825.927	26206
826.067	26096
826.206	25982
826.346	26126
826.485	26256
826.625	25978
826.765	26134
826.904	26084
827.044	25898
827.183	25784
827.323	25674
827.462	25963
827.601	25712
827.741	25811
827.88	25871
828.02	25723
828.159	25666
828.298	25826
828.437	25845
828.577	25772
828.716	25887
828.855	25719
828.994	25396
829.134	25499
829.273	25510
829.412	25430
829.551	25430
829.69	25384
829.829	25441
829.968	25514
830.107	25586
830.246	25537
830.385	25331
830.524	25354
830.663	25285
830.802	25198
830.941	24932
831.08	25088
831.219	25251
831.357	25225
831.496	25209
831.635	25034
831.774	25031
831.913	24951
832.051	24798
832.19	24886
832.329	24966
832.467	24791
832.606	24757
832.744	24639
832.883	24882
833.022	24776
833.16	24734
833.299	24745
833.437	24753
833.576	24741
833.714	24711
833.852	24802
833.991	24757
834.129	24852
834.267	24901
834.406	24852
834.544	24734
834.682	24924
834.821	24772
834.959	24992
835.097	24741
835.235	24935
835.373	24757
835.511	24753
835.65	24517
835.788	24722
835.926	24741
836.064	24403
836.202	24559
836.34	24521
836.478	24658
836.615	24654
836.753	24620
836.891	24730
837.029	24623
837.167	24593
837.305	24612
837.443	24601
837.58	24467
837.718	24540
837.856	24426
837.993	24403
838.131	24570
838.269	24380
838.406	24441
838.544	24224
838.681	24072
838.819	24178
838.956	24015
839.094	24007
839.231	23977
839.369	24125
839.506	24296
839.643	24232
839.781	23965
839.918	23859
840.055	23931
840.193	23969
840.33	23851
840.467	24057
840.604	23843
840.742	24178
840.879	23726
841.016	23786
841.153	23809
841.29	23920
841.427	23885
841.564	23889
841.701	23805
841.838	23901
841.975	23767
842.112	23843
842.249	23733
842.385	23425
842.522	23821
842.659	23707
842.796	23623
842.933	23531
843.069	23570
843.206	23592
843.343	23649
843.479	23516
843.616	23512
843.752	23311
843.889	23486
844.025	23573
844.162	23379
844.298	23296
844.435	23410
844.571	23296
844.708	23642
844.844	23596
844.98	23589
845.117	23554
845.253	23334
845.389	23121
845.525	23250
845.661	23185
845.798	23197
845.934	23132
846.07	23197
846.206	23216
846.342	23185
846.478	23037
846.614	22953
846.75	22831
846.886	22820
847.022	22831
847.158	22744
847.294	22831
847.429	22889
847.565	22797
847.701	23178
847.837	22497
847.972	22577
848.108	22691
848.244	22603
848.379	22466
848.515	22512
848.65	22417
848.786	22341
848.921	22478
849.057	22656
849.192	22596
849.328	22436
849.463	22447
849.598	22424
849.734	22363
849.869	22287
850.004	22268
850.14	22154
850.275	22070
850.41	22090
850.545	22105
850.68	22211
850.815	22150
850.95	22238
851.085	22451
851.22	22295
851.355	22242
851.49	22128
851.625	22242
851.76	22181
851.895	22234
852.03	22082
852.165	22204
852.299	22223
852.434	22291
852.569	22116
852.703	22109
852.838	22276
852.973	22314
853.107	22333
853.242	21987
853.376	22032
853.511	21892
853.645	22002
853.78	22147
853.914	22010
854.048	21998
854.183	22013
854.317	22101
854.451	22276
854.585	22135
854.72	21953
854.854	21956
854.988	21937
855.122	22013
855.256	21975
855.39	21907
855.524	22002
855.658	22097
855.792	22048
855.926	22036
856.06	21991
856.194	22135
856.327	21873
856.461	21975
856.595	21968
856.729	22017
856.862	22192
856.996	21960
857.13	22131
857.263	22105
857.397	22078
857.53	21884
857.664	22196
857.797	22044
857.931	22021
858.064	22101
858.197	22048
858.331	21972
858.464	21998
858.597	21953
858.731	21975
858.864	22017
858.997	21930
859.13	22116
859.263	22063
859.396	22074
859.529	22055
859.662	21895
859.795	21892
859.928	22002
860.061	22067
860.194	22067
860.327	21937
860.46	22021
860.592	22105
860.725	22154
860.858	22166
860.99	21972
861.123	21949
861.256	21979
861.388	22048
861.521	22866
861.653	21895
861.786	21865
861.918	21884
862.05	21869
862.183	21953
862.315	21880
862.447	21991
862.58	21797
862.712	21675
862.844	21648
862.976	21701
863.108	21720
863.24	22185
863.372	21770
863.504	21656
863.636	21561
863.768	21694
863.9	21762
864.032	21660
864.164	21789
864.296	21690
864.428	21915
864.559	21762
864.691	21705
864.823	21774
864.954	21690
865.086	21633
865.217	21667
865.349	21553
865.48	21515
865.612	21485
865.743	21686
865.875	21679
866.006	21610
866.137	21507
866.269	21549
866.4	21591
866.531	21553
866.662	21504
866.793	21504
866.924	21443
867.055	21705
867.186	21614
867.317	21496
867.448	21564
867.579	21511
867.71	21329
867.841	21492
867.972	21523
868.103	21458
868.233	21667
868.364	21576
868.495	21705
868.625	21800
868.756	21850
868.886	21561
869.017	21751
869.147	21873
869.278	21842
869.408	21717
869.539	21648
869.669	21804
869.799	21861
869.929	21899
870.06	21930
870.19	22090
870.32	22109
870.45	22112
870.58	22238
870.71	22257
870.84	22348
870.97	22192
871.1	22204
871.23	22253
871.36	22409
871.489	22280
871.619	22428
871.749	22440
871.879	22322
872.008	22470
872.138	22200
872.267	22344
872.397	22177
872.526	22219
872.656	22242
872.785	22128
872.915	22318
873.044	22371
873.173	22443
873.303	22478
873.432	22413
873.561	22360
873.69	22462
873.819	22436
873.948	22466
874.077	22325
874.206	22272
874.335	22455
874.464	22470
874.593	22588
874.722	22599
874.851	22592
874.979	22637
875.108	22584
875.237	22557
875.365	22504
875.494	22580
875.623	22584
875.751	22596
875.88	22508
876.008	22687
876.136	22790
876.265	23121
876.393	23064
876.521	23159
876.65	23098
876.778	22873
876.906	23006
877.034	22877
877.162	22999
877.29	22908
877.418	22896
877.546	23014
877.674	22885
877.802	22877
877.93	22965
878.058	22873
878.185	22733
878.313	22938
878.441	22957
878.568	22774
878.696	22858
878.824	22930
878.951	22946
879.079	23181
879.206	23174
879.333	23025
879.461	22999
879.588	23029
879.715	23140
879.842	23098
879.97	22980
880.097	22771
880.224	22782
880.351	22782
880.478	22866
880.605	22763
880.732	22733
880.859	22980
880.986	22740
881.112	22824
881.239	22653
881.366	22516
881.493	22519
881.619	22386
881.746	22432
881.872	22280
881.999	22204
882.125	22131
882.252	22379
882.378	22363
882.505	22519
882.631	22131
882.757	22006
882.883	22044
883.01	22078
883.136	21941
883.262	21846
883.388	21781
883.514	22150
883.64	22181
883.766	21998
883.892	21656
884.018	21812
884.143	21975
884.269	22032
884.395	21781
884.52	21644
884.646	21690
884.772	21504
884.897	21564
885.023	21648
885.148	21686
885.274	21762
885.399	21705
885.524	21690
885.65	21572
885.775	21530
885.9	21576
886.025	21720
886.15	21800
886.275	21675
886.4	21583
886.525	21622
886.65	21656
886.775	21477
886.9	21724
887.025	21808
887.149	21549
887.274	21523
887.399	21428
887.523	21412
887.648	21325
887.773	21241
887.897	21561
888.021	21450
888.146	21359
888.27	21637
888.395	21481
888.519	21443
888.643	21344
888.767	21462
888.891	21367
889.015	21260
889.139	21222
889.263	21180
889.387	21389
889.511	21382
889.635	21268
889.759	21192
889.883	21157
890.006	21294
890.13	21241
890.254	21116
890.377	21104
890.501	20960
890.624	20902
890.748	21001
890.871	20887
890.995	20804
891.118	20758
891.241	20739
891.364	20796
891.488	20868
891.611	20769
891.734	20849
891.857	20807
891.98	20842
892.103	20895
892.226	20804
892.349	20682
892.471	20530
892.594	20613
892.717	20769
892.839	20590
892.962	20667
893.085	20743
893.207	20686
893.33	20488
893.452	20606
893.575	20655
893.697	20663
893.819	20678
893.941	20804
894.064	20785
894.186	20495
894.308	20552
894.43	20735
894.552	20857
894.674	20670
894.796	20590
894.918	20575
895.04	20674
895.161	20697
895.283	20731
895.405	20564
895.526	20629
895.648	20644
895.769	20708
895.891	20724
896.012	20781
896.134	20731
896.255	20678
896.376	20590
896.498	20667
896.619	20743
896.74	20735
896.861	20689
896.982	20948
897.103	21089
897.224	20720
897.345	20811
897.466	20918
897.587	20773
897.708	21047
897.828	20937
897.949	20693
898.07	20792
898.19	20670
898.311	20906
898.431	20826
898.552	20819
898.672	20921
898.792	20910
898.913	20910
899.033	20743
899.153	20670
899.273	20522
899.393	20743
899.513	20640
899.633	20613
899.753	20590
899.873	20522
899.993	20651
900.113	20579
900.232	20556
900.352	20431
900.472	20381
900.591	20381
900.711	20454
900.83	20362
900.95	20400
901.069	20473
901.189	20339
901.308	19982
901.427	19959
901.546	19871
901.665	19967
901.784	19967
901.904	19826
902.023	19712
902.141	19609
902.26	19430
902.379	19529
902.498	19495
902.617	19586
902.735	19377
902.854	19396
902.973	19373
903.091	19114
903.21	19225
903.328	19050
903.446	18973
903.565	18966
903.683	18939
903.801	18856
903.919	18913
904.038	18867
904.156	18684
904.274	18757
904.392	18627
904.51	18623
904.627	18566
904.745	18677
904.863	18817
904.981	18448
905.098	18361
905.216	18266
905.334	18319
905.451	18391
905.569	18315
905.686	18445
905.803	18334
905.921	18053
906.038	18251
906.155	18152
906.272	17942
906.389	17977
906.506	17901
906.623	17878
906.74	17824
906.857	17748
906.974	17745
907.091	17942
907.208	17984
907.324	17832
907.441	17783
907.557	17581
907.674	17695
907.79	17592
907.907	17562
908.023	17611
908.139	17627
908.256	17543
908.372	17444
908.488	17474
908.604	17387
908.72	17235
908.836	17402
908.952	17349
909.068	17292
909.184	17288
909.3	17414
909.415	17292
909.531	17197
909.647	17212
909.762	16927
909.878	17014
909.993	17060
910.108	16999
910.224	17071
910.339	17056
910.454	16835
910.57	16889
910.685	16717
910.8	17071
910.915	16938
911.03	16752
911.145	16626
911.259	16592
911.374	16489
911.489	16352
911.604	16466
911.718	16325
911.833	16405
911.947	16211
912.062	16188
912.176	16379
912.291	16257
912.405	16162
912.519	16447
912.633	16516
912.748	16291
912.862	16299
912.976	16143
913.09	16128
913.204	16063
913.318	16181
913.431	16257
913.545	16139
913.659	16204
913.772	15937
913.886	16055
914	15895
914.113	15983
914.226	16082
914.34	15941
914.453	15804
914.566	15994
914.68	15766
914.793	15797
914.906	15553
915.019	15603
915.132	15530
915.245	15485
915.358	15591
915.47	15519
915.583	15511
915.696	15584
915.809	15618
915.921	15660
916.034	15351
916.146	15496
916.259	15405
916.371	15622
916.483	15485
916.595	15367
916.708	15367
916.82	15291
916.932	15256
917.044	15378
917.156	15252
917.268	15218
917.38	15154
917.491	15112
917.603	15211
917.715	15283
917.826	15279
917.938	15089
918.049	15150
918.161	15055
918.272	15332
918.384	15237
918.495	15157
918.606	15001
918.717	14921
918.828	15013
918.939	14990
919.05	14880
919.161	14899
919.272	14785
919.383	14743
919.494	15112
919.604	15150
919.715	14941
919.826	14788
919.936	14895
920.047	14910
920.157	14986
920.267	15097
920.378	14986
920.488	14925
920.598	15173
920.708	15233
920.818	15104
920.928	15058
921.038	15165
921.148	15051
921.258	14804
921.368	14872
921.477	14625
921.587	14663
921.697	14454
921.806	14678
921.916	14602
922.025	14294
922.134	14271
922.244	14237
922.353	14305
922.462	14252
922.571	14046
922.68	13963
922.789	13860
922.898	13894
923.007	13765
923.116	14001
923.224	13879
923.333	13883
923.442	13765
923.55	13799
923.659	13849
923.767	13845
923.876	13674
923.984	13734
924.092	13632
924.201	13704
924.309	13658
924.417	13670
924.525	13544
924.633	13639
924.741	14343
924.849	13392
924.956	13487
925.064	13362
925.172	13278
925.279	13289
925.387	13384
925.494	13255
925.602	13369
925.709	13365
925.816	13183
925.924	13350
926.031	13320
926.138	13160
926.245	13320
926.352	13168
926.459	13312
926.566	13343
926.673	13255
926.779	13107
926.886	13015
926.993	13000
927.099	12882
927.206	12814
927.312	12791
927.419	12977
927.525	12859
927.631	12844
927.737	12772
927.843	12719
927.95	12570
928.056	12688
928.162	12662
928.267	12707
928.373	13232
928.479	12696
928.585	12551
928.69	12597
928.796	12578
928.901	12544
929.007	12395
929.112	12540
929.218	12467
929.323	12483
929.428	12315
929.533	12475
929.638	12319
929.743	12357
929.848	12319
929.953	12330
930.058	12175
930.163	12064
930.267	12022
930.372	12251
930.477	12072
930.581	12224
930.685	12068
930.79	12045
930.894	12015
930.998	11885
931.103	12102
931.207	11760
931.311	11684
931.415	11547
931.519	11379
931.623	11337
