Data from test_V78500241_1851.txt Node
Date: Fri Mar 25 15:54:37 CST 2022
User: usil
Spectrometer: V785-0024
Trigger mode: 0
Integration Time (sec): 4.000000E-1
Scans to average: 1
Nonlinearity correction enabled: false
Boxcar width: 0
Storing dark spectrum: false
XAxis mode: Wavelengths
Number of Pixels in Spectrum: 1024
>>>>>Begin Spectral Data<<<<<
801.071	28466
801.214	28481
801.356	28280
801.499	28265
801.641	27968
801.783	27983
801.926	28143
802.068	28036
802.211	27945
802.353	27911
802.496	27641
802.638	27739
802.78	27660
802.923	27587
803.065	27603
803.208	27682
803.35	27739
803.492	27861
803.635	27979
803.777	27736
803.919	28032
804.061	28135
804.204	28025
804.346	27561
804.488	27930
804.63	27759
804.773	27865
804.915	27911
805.057	28051
805.199	27983
805.341	28101
805.483	28105
805.626	28162
805.768	27956
805.91	28032
806.052	28010
806.194	28040
806.336	28219
806.478	28006
806.62	28090
806.762	28074
806.904	28280
807.046	28615
807.188	28424
807.33	28645
807.472	28615
807.614	28478
807.756	28443
807.898	28291
808.04	28344
808.182	28325
808.324	28322
808.465	28459
808.607	28607
808.749	28850
808.891	28759
809.033	28968
809.174	28660
809.316	28801
809.458	28759
809.6	28706
809.741	28740
809.883	28904
810.025	28972
810.166	28881
810.308	29041
810.45	28911
810.591	28949
810.733	28820
810.875	28675
811.016	28694
811.158	28500
811.299	28858
811.441	28938
811.582	28835
811.724	28630
811.865	28759
812.007	28660
812.148	28679
812.29	28843
812.431	29003
812.573	29018
812.714	29041
812.855	29273
812.997	29330
813.138	29391
813.279	29364
813.421	29288
813.562	29178
813.703	28968
813.845	29003
813.986	28725
814.127	28527
814.268	28474
814.41	28390
814.551	28363
814.692	28421
814.833	28257
814.974	28341
815.115	28424
815.256	28219
815.397	28447
815.539	28223
815.68	28215
815.821	28139
815.962	28386
816.103	28272
816.244	28120
816.385	28055
816.526	27998
816.666	27838
816.807	27755
816.948	27884
817.089	27827
817.23	27755
817.371	27778
817.512	27637
817.653	27755
817.793	27606
817.934	27652
818.075	27751
818.216	27713
818.356	27606
818.497	27492
818.638	27397
818.778	27466
818.919	27488
819.06	27629
819.2	27564
819.341	27705
819.481	27778
819.622	27819
819.762	27991
819.903	27941
820.043	27899
820.184	28029
820.324	27720
820.465	27895
820.605	27846
820.746	27720
820.886	27709
821.026	27895
821.167	27720
821.307	27755
821.447	27717
821.588	27603
821.728	27542
821.868	27370
822.008	27150
822.149	27142
822.289	27321
822.429	26960
822.569	26887
822.709	26830
822.849	26708
822.99	26636
823.13	26568
823.27	26731
823.41	26514
823.55	26138
823.69	26526
823.83	26598
823.97	26511
824.11	26377
824.25	26233
824.389	26107
824.529	26484
824.669	26473
824.809	26408
824.949	26442
825.089	26499
825.228	26492
825.368	26195
825.508	26195
825.648	26374
825.787	26351
825.927	26278
826.067	26225
826.206	26210
826.346	26225
826.485	26446
826.625	26134
826.765	26355
826.904	26320
827.044	25944
827.183	25856
827.323	25902
827.462	26084
827.601	25833
827.741	25826
827.88	25906
828.02	25799
828.159	25913
828.298	25959
828.437	25925
828.577	25845
828.716	26084
828.855	25940
828.994	25491
829.134	25655
829.273	25769
829.412	25521
829.551	25647
829.69	25609
829.829	25658
829.968	25658
830.107	25632
830.246	25715
830.385	25525
830.524	25491
830.663	25453
830.802	25468
830.941	25263
831.08	25122
831.219	25278
831.357	25221
831.496	25510
831.635	25133
831.774	25213
831.913	25088
832.051	25008
832.19	25000
832.329	25190
832.467	24939
832.606	24741
832.744	24943
832.883	24844
833.022	24741
833.16	24825
833.299	24856
833.437	24856
833.576	25202
833.714	24985
833.852	25095
833.991	24992
834.129	24924
834.267	25156
834.406	24882
834.544	24909
834.682	24871
834.821	24985
834.959	25061
835.097	24985
835.235	25053
835.373	24973
835.511	24772
835.65	24768
835.788	24802
835.926	24741
836.064	24612
836.202	24658
836.34	24745
836.478	24814
836.615	24757
836.753	24669
836.891	24875
837.029	24726
837.167	24650
837.305	24715
837.443	24635
837.58	24722
837.718	24707
837.856	24791
837.993	24639
838.131	24574
838.269	24593
838.406	24498
838.544	24372
838.681	24167
838.819	24228
838.956	24068
839.094	23996
839.231	24057
839.369	24338
839.506	24460
839.643	24391
839.781	24110
839.918	24087
840.055	24049
840.193	24003
840.33	24038
840.467	23977
840.604	23999
840.742	24209
840.879	23786
841.016	23912
841.153	23771
841.29	24049
841.427	23939
841.564	23996
841.701	24076
841.838	23870
841.975	24015
842.112	23863
842.249	23741
842.385	23737
842.522	23901
842.659	23767
842.796	23870
842.933	23813
843.069	23642
843.206	23600
843.343	23729
843.479	23767
843.616	23642
843.752	23623
843.889	23531
844.025	23695
844.162	23520
844.298	23615
844.435	23482
844.571	23471
844.708	23627
844.844	23619
844.98	23646
845.117	23547
845.253	23410
845.389	23299
845.525	23349
845.661	23311
845.798	23349
845.934	23368
846.07	23102
846.206	23227
846.342	23402
846.478	23185
846.614	22938
846.75	22995
846.886	23041
847.022	23143
847.158	22991
847.294	22999
847.429	22987
847.565	22911
847.701	23166
847.837	22717
847.972	22580
848.108	22877
848.244	22752
848.379	22611
848.515	22573
848.65	22500
848.786	22489
848.921	22645
849.057	22733
849.192	22538
849.328	22542
849.463	22432
849.598	22523
849.734	22459
849.869	22356
850.004	22329
850.14	22459
850.275	22299
850.41	22257
850.545	22341
850.68	22230
850.815	22375
850.95	22379
851.085	22462
851.22	22329
851.355	22325
851.49	22371
851.625	22299
851.76	22230
851.895	22204
852.03	22261
852.165	22360
852.299	22390
852.434	22341
852.569	22409
852.703	22303
852.838	22371
852.973	22409
853.107	22508
853.242	22333
853.376	22040
853.511	22173
853.645	22048
853.78	22276
853.914	22112
854.048	22196
854.183	22112
854.317	22200
854.451	22329
854.585	22204
854.72	22188
854.854	22295
854.988	22188
855.122	22048
855.256	21975
855.39	22154
855.524	22169
855.658	22101
855.792	22173
855.926	22105
856.06	22120
856.194	22261
856.327	22090
856.461	22135
856.595	22029
856.729	22070
856.862	22185
856.996	22185
857.13	22147
857.263	22234
857.397	22287
857.53	21945
857.664	22097
857.797	22116
857.931	22226
858.064	22078
858.197	22238
858.331	22124
858.464	22116
858.597	21979
858.731	22166
858.864	22109
858.997	22101
859.13	22188
859.263	22200
859.396	22268
859.529	22097
859.662	22055
859.795	22166
859.928	22082
860.061	22253
860.194	22337
860.327	22261
860.46	22101
860.592	22238
860.725	22177
860.858	22223
860.99	22112
861.123	22086
861.256	22166
861.388	22204
861.521	22801
861.653	21926
861.786	22074
861.918	22017
862.05	21987
862.183	22135
862.315	21991
862.447	22166
862.58	22002
862.712	21899
862.844	21728
862.976	21972
863.108	21876
863.24	22318
863.372	21759
863.504	21869
863.636	21876
863.768	21876
863.9	21884
864.032	21797
864.164	21694
864.296	21892
864.428	21972
864.559	21960
864.691	21888
864.823	21850
864.954	21770
865.086	21717
865.217	21823
865.349	21759
865.48	21747
865.612	21762
865.743	21774
865.875	21747
866.006	21690
866.137	21755
866.269	21713
866.4	21652
866.531	21701
866.662	21614
866.793	21675
866.924	21629
867.055	21637
867.186	21648
867.317	21557
867.448	21511
867.579	21667
867.71	21572
867.841	21625
867.972	21682
868.103	21538
868.233	21770
868.364	21641
868.495	21675
868.625	21911
868.756	21968
868.886	21793
869.017	21960
869.147	21949
869.278	22013
869.408	21998
869.539	21884
869.669	21873
869.799	21876
869.929	21945
870.06	22097
870.19	22261
870.32	22166
870.45	22169
870.58	22261
870.71	22367
870.84	22371
870.97	22329
871.1	22303
871.23	22432
871.36	22500
871.489	22394
871.619	22546
871.749	22493
871.879	22474
872.008	22565
872.138	22451
872.267	22485
872.397	22474
872.526	22272
872.656	22390
872.785	22341
872.915	22637
873.044	22592
873.173	22516
873.303	22577
873.432	22637
873.561	22584
873.69	22565
873.819	22512
873.948	22516
874.077	22451
874.206	22523
874.335	22561
874.464	22664
874.593	22733
874.722	22710
874.851	22763
874.979	22786
875.108	22824
875.237	22653
875.365	22641
875.494	22683
875.623	22752
875.751	22786
875.88	22816
876.008	22869
876.136	22942
876.265	23079
876.393	23223
876.521	23239
876.65	23273
876.778	23075
876.906	23037
877.034	23136
877.162	23010
877.29	22995
877.418	23155
877.546	22991
877.674	23060
877.802	23010
877.93	23003
878.058	23033
878.185	22911
878.313	22972
878.441	22915
878.568	22831
878.696	22968
878.824	23052
878.951	23060
879.079	23334
879.206	23379
879.333	23223
879.461	23037
879.588	23277
879.715	23364
879.842	23341
879.97	23185
880.097	22942
880.224	22828
880.351	22869
880.478	22915
880.605	23033
880.732	22812
880.859	23246
880.986	22801
881.112	22942
881.239	22710
881.366	22634
881.493	22645
881.619	22489
881.746	22554
881.872	22333
881.999	22344
882.125	22421
882.252	22485
882.378	22421
882.505	22531
882.631	22207
882.757	22181
882.883	22238
883.01	22211
883.136	22253
883.262	21926
883.388	21949
883.514	22109
883.64	22192
883.766	22006
883.892	21941
884.018	21865
884.143	22093
884.269	22188
884.395	21869
884.52	21819
884.646	21778
884.772	21660
884.897	21743
885.023	21819
885.148	21812
885.274	21934
885.399	21819
885.524	21751
885.65	21835
885.775	21804
885.9	21701
886.025	21804
886.15	21816
886.275	21641
886.4	21606
886.525	21857
886.65	21614
886.775	21648
886.9	21899
887.025	21983
887.149	21762
887.274	21652
887.399	21542
887.523	21462
887.648	21447
887.773	21389
887.897	21614
888.021	21534
888.146	21526
888.27	21641
888.395	21622
888.519	21603
888.643	21500
888.767	21564
888.891	21382
889.015	21367
889.139	21374
889.263	21374
889.387	21477
889.511	21549
889.635	21416
889.759	21359
889.883	21283
890.006	21332
890.13	21351
890.254	21313
890.377	21245
890.501	21066
890.624	21009
890.748	21146
890.871	20937
890.995	20933
891.118	20887
891.241	20956
891.364	20834
891.488	21119
891.611	20883
891.734	21081
891.857	20971
891.98	20994
892.103	20933
892.226	20826
892.349	20792
892.471	20796
892.594	20758
892.717	20883
892.839	20853
892.962	20857
893.085	20891
893.207	20735
893.33	20739
893.452	20674
893.575	20792
893.697	20819
893.819	20838
893.941	20921
894.064	20788
894.186	20777
894.308	20773
894.43	20773
894.552	20830
894.674	20777
894.796	20773
894.918	20655
895.04	20644
895.161	20815
895.283	20918
895.405	20724
895.526	20842
895.648	20659
895.769	20857
895.891	20727
896.012	20868
896.134	20731
896.255	20750
896.376	20670
896.498	20720
896.619	20731
896.74	20640
896.861	21001
896.982	20994
897.103	21245
897.224	20948
897.345	21055
897.466	20929
897.587	20998
897.708	21104
897.828	20979
897.949	21005
898.07	20800
898.19	20933
898.311	21020
898.431	20895
898.552	21077
898.672	21055
898.792	21009
898.913	20967
899.033	20857
899.153	20724
899.273	20705
899.393	20788
899.513	20651
899.633	20796
899.753	20716
899.873	20682
899.993	20746
900.113	20727
900.232	20754
900.352	20648
900.472	20518
900.591	20442
900.711	20415
900.83	20446
900.95	20473
901.069	20533
901.189	20396
901.308	20164
901.427	20164
901.546	20126
901.665	20084
901.784	20142
901.904	19894
902.023	19871
902.141	19552
902.26	19597
902.379	19693
902.498	19613
902.617	19613
902.735	19575
902.854	19605
902.973	19422
903.091	19350
903.21	19198
903.328	19183
903.446	19179
903.565	19084
903.683	19076
903.801	18935
903.919	18993
904.038	18981
904.156	18791
904.274	18840
904.392	18757
904.51	18688
904.627	18760
904.745	18722
904.863	18696
904.981	18559
905.098	18483
905.216	18486
905.334	18502
905.451	18490
905.569	18391
905.686	18483
905.803	18517
905.921	18178
906.038	18292
906.155	18300
906.272	18117
906.389	18178
906.506	17969
906.623	17980
906.74	17939
906.857	17878
906.974	17836
907.091	17996
907.208	18041
907.324	17973
907.441	17855
907.557	17767
907.674	17627
907.79	17710
907.907	17642
908.023	17665
908.139	17687
908.256	17642
908.372	17604
908.488	17627
908.604	17353
908.72	17360
908.836	17474
908.952	17444
909.068	17387
909.184	17528
909.3	17372
909.415	17353
909.531	17478
909.647	17029
909.762	17159
909.878	17079
909.993	17151
910.108	17094
910.224	17113
910.339	17033
910.454	16923
910.57	16858
910.685	16831
910.8	17098
910.915	16972
911.03	16919
911.145	16683
911.259	16634
911.374	16790
911.489	16615
911.604	16603
911.718	16436
911.833	16436
911.947	16265
912.062	16295
912.176	16470
912.291	16512
912.405	16527
912.519	16558
912.633	16645
912.748	16481
912.862	16417
912.976	16150
913.09	16150
913.204	16185
913.318	16291
913.431	16291
913.545	16390
913.659	16409
913.772	16177
913.886	16010
914	16090
914.113	16097
914.226	16150
914.34	16147
914.453	15918
914.566	16124
914.68	15918
914.793	15857
914.906	15728
915.019	15675
915.132	15553
915.245	15595
915.358	15675
915.47	15519
915.583	15599
915.696	15622
915.809	15736
915.921	15808
916.034	15545
916.146	15469
916.259	15500
916.371	15572
916.483	15572
916.595	15469
916.708	15462
916.82	15420
916.932	15355
917.044	15260
917.156	15313
917.268	15256
917.38	15317
917.491	15317
917.603	15363
917.715	15401
917.826	15287
917.938	15256
918.049	15081
918.161	15112
918.272	15294
918.384	15340
918.495	15207
918.606	15116
918.717	14868
918.828	15024
918.939	15024
919.05	14971
919.161	14986
919.272	14773
919.383	14906
919.494	15036
919.604	15173
919.715	14925
919.826	14792
919.936	14853
920.047	15047
920.157	15081
920.267	15165
920.378	14994
920.488	14845
920.598	15127
920.708	15230
920.818	15081
920.928	15123
921.038	15154
921.148	15142
921.258	14929
921.368	14792
921.477	14739
921.587	14724
921.697	14537
921.806	14792
921.916	14514
922.025	14374
922.134	14381
922.244	14267
922.353	14450
922.462	14259
922.571	14149
922.68	14005
922.789	13890
922.898	13917
923.007	13887
923.116	14081
923.224	13894
923.333	13940
923.442	13909
923.55	13860
923.659	13750
923.767	13856
923.876	13772
923.984	13917
924.092	13822
924.201	13708
924.309	13734
924.417	13734
924.525	13864
924.633	13643
924.741	14434
924.849	13422
924.956	13483
925.064	13472
925.172	13388
925.279	13335
925.387	13377
925.494	13369
925.602	13487
925.709	13411
925.816	13343
925.924	13255
926.031	13464
926.138	13331
926.245	13350
926.352	13228
926.459	13324
926.566	13381
926.673	13206
926.779	13133
926.886	13225
926.993	13004
927.099	12935
927.206	12810
927.312	12962
927.419	13080
927.525	12977
927.631	12871
927.737	12787
927.843	12726
927.95	12635
928.056	12662
928.162	12734
928.267	12783
928.373	13411
928.479	12768
928.585	12623
928.69	12642
928.796	12692
928.901	12684
929.007	12452
929.112	12593
929.218	12601
929.323	12612
929.428	12441
929.533	12620
929.638	12399
929.743	12429
929.848	12475
929.953	12475
930.058	12357
930.163	12175
930.267	12175
930.372	12334
930.477	12072
930.581	12285
930.685	12148
930.79	11973
930.894	12045
930.998	11961
931.103	12163
931.207	11843
931.311	11786
931.415	11577
931.519	11406
931.623	11379
