Data from test_V78500241_2269.txt Node
Date: Fri Mar 25 15:57:31 CST 2022
User: usil
Spectrometer: V785-0024
Trigger mode: 0
Integration Time (sec): 4.000000E-1
Scans to average: 1
Nonlinearity correction enabled: false
Boxcar width: 0
Storing dark spectrum: false
XAxis mode: Wavelengths
Number of Pixels in Spectrum: 1024
>>>>>Begin Spectral Data<<<<<
801.071	29273
801.214	29364
801.356	29102
801.499	28968
801.641	28866
801.783	28892
801.926	28987
802.068	28778
802.211	28748
802.353	28801
802.496	28653
802.638	28603
802.78	28687
802.923	28367
803.065	28554
803.208	28599
803.35	28683
803.492	28634
803.635	28831
803.777	28580
803.919	28854
804.061	29113
804.204	28809
804.346	28801
804.488	28828
804.63	28820
804.773	28717
804.915	28828
805.057	28915
805.199	28908
805.341	28896
805.483	29090
805.626	29033
805.768	28919
805.91	29014
806.052	29048
806.194	28820
806.336	29246
806.478	29189
806.62	29003
806.762	29284
806.904	29254
807.046	29581
807.188	29455
807.33	29463
807.472	29520
807.614	29429
807.756	29490
807.898	29375
808.04	29280
808.182	29356
808.324	29307
808.465	29433
808.607	29672
808.749	29672
808.891	29699
809.033	29931
809.174	29855
809.316	29710
809.458	29699
809.6	29695
809.741	29775
809.883	29999
810.025	29973
810.166	29946
810.308	30026
810.45	29843
810.591	29798
810.733	29779
810.875	29634
811.016	29691
811.158	29668
811.299	29824
811.441	29923
811.582	29946
811.724	29710
811.865	29813
812.007	29649
812.148	29726
812.29	29764
812.431	30011
812.573	30125
812.714	30182
812.855	30323
812.997	30357
813.138	30563
813.279	30395
813.421	30319
813.562	30448
813.703	30106
813.845	30015
813.986	29824
814.127	29558
814.268	29562
814.41	29520
814.551	29459
814.692	29547
814.833	29547
814.974	29543
815.115	29581
815.256	29337
815.397	29265
815.539	29421
815.68	29296
815.821	29166
815.962	29444
816.103	29193
816.244	29292
816.385	29022
816.526	29166
816.666	28919
816.807	28771
816.948	28721
817.089	28930
817.23	28805
817.371	28915
817.512	28999
817.653	28869
817.793	28831
817.934	28774
818.075	28816
818.216	28812
818.356	28767
818.497	28763
818.638	28550
818.778	28546
818.919	28519
819.06	28622
819.2	28710
819.341	28850
819.481	28946
819.622	28987
819.762	29223
819.903	29162
820.043	28987
820.184	28915
820.324	28953
820.465	29041
820.605	28957
820.746	28915
820.886	28736
821.026	29075
821.167	28923
821.307	28980
821.447	28778
821.588	28721
821.728	28588
821.868	28443
822.008	28375
822.149	28401
822.289	28268
822.429	28154
822.569	27922
822.709	28090
822.849	27854
822.99	27937
823.13	27797
823.27	27895
823.41	27587
823.55	27633
823.69	27739
823.83	27667
823.97	27682
824.11	27469
824.25	27427
824.389	27477
824.529	27553
824.669	27485
824.809	27530
824.949	27545
825.089	27724
825.228	27492
825.368	27348
825.508	27252
825.648	27458
825.787	27450
825.927	27405
826.067	27382
826.206	27272
826.346	27340
826.485	27424
826.625	27393
826.765	27496
826.904	27435
827.044	27260
827.183	27108
827.323	27062
827.462	27150
827.601	27058
827.741	26940
827.88	26998
828.02	27039
828.159	27081
828.298	27146
828.437	27142
828.577	26971
828.716	27150
828.855	26971
828.994	26674
829.134	26914
829.273	26811
829.412	26708
829.551	26872
829.69	26872
829.829	26899
829.968	26891
830.107	26842
830.246	26754
830.385	26743
830.524	26678
830.663	26503
830.802	26427
830.941	26499
831.08	26434
831.219	26419
831.357	26450
831.496	26724
831.635	26385
831.774	26431
831.913	26305
832.051	26210
832.19	26111
832.329	26164
832.467	26054
832.606	26043
832.744	26035
832.883	26183
833.022	26035
833.16	26084
833.299	26191
833.437	25951
833.576	26035
833.714	26111
833.852	26149
833.991	26161
834.129	26161
834.267	26252
834.406	26180
834.544	26115
834.682	26142
834.821	26005
834.959	26343
835.097	26122
835.235	26248
835.373	26046
835.511	26027
835.65	25807
835.788	26050
835.926	25753
836.064	25746
836.202	25822
836.34	25909
836.478	25955
836.615	25791
836.753	25944
836.891	25826
837.029	25966
837.167	25883
837.305	25814
837.443	25837
837.58	25742
837.718	25788
837.856	25681
837.993	25708
838.131	25712
838.269	25540
838.406	25742
838.544	25479
838.681	25567
838.819	25422
838.956	25225
839.094	25331
839.231	25209
839.369	25316
839.506	25582
839.643	25491
839.781	25251
839.918	25152
840.055	25274
840.193	25175
840.33	25122
840.467	25198
840.604	25179
840.742	25308
840.879	25019
841.016	25004
841.153	25046
841.29	25244
841.427	25160
841.564	25099
841.701	24989
841.838	25027
841.975	25042
842.112	25000
842.249	24837
842.385	24920
842.522	25050
842.659	24833
842.796	24844
842.933	24863
843.069	24814
843.206	24798
843.343	24875
843.479	24776
843.616	24745
843.752	24490
843.889	24825
844.025	24783
844.162	24650
844.298	24779
844.435	24601
844.571	24578
844.708	24623
844.844	24719
844.98	24745
845.117	24833
845.253	24570
845.389	24570
845.525	24528
845.661	24464
845.798	24311
845.934	24391
846.07	24437
846.206	24399
846.342	24582
846.478	24376
846.614	24117
846.75	24038
846.886	24072
847.022	24327
847.158	24015
847.294	24045
847.429	24018
847.565	24022
847.701	24273
847.837	23748
847.972	23722
848.108	23984
848.244	23794
848.379	23722
848.515	23691
848.65	23691
848.786	23672
848.921	23703
849.057	23661
849.192	23760
849.328	23642
849.463	23714
849.598	23566
849.734	23585
849.869	23615
850.004	23440
850.14	23486
850.275	23398
850.41	23360
850.545	23471
850.68	23337
850.815	23486
850.95	23459
851.085	23535
851.22	23478
851.355	23524
851.49	23459
851.625	23398
851.76	23425
851.895	23345
852.03	23288
852.165	23452
852.299	23448
852.434	23528
852.569	23493
852.703	23391
852.838	23452
852.973	23570
853.107	23589
853.242	23299
853.376	23208
853.511	23155
853.645	23178
853.78	23299
853.914	23181
854.048	23079
854.183	23155
854.317	23341
854.451	23516
854.585	23208
854.72	23277
854.854	23353
854.988	23181
855.122	23273
855.256	23079
855.39	23200
855.524	23318
855.658	23364
855.792	23277
855.926	23223
856.06	23193
856.194	23170
856.327	23208
856.461	23216
856.595	23151
856.729	23216
856.862	23296
856.996	23322
857.13	23200
857.263	23334
857.397	23193
857.53	23258
857.664	23326
857.797	23204
857.931	23414
858.064	23383
858.197	23383
858.331	23322
858.464	23178
858.597	23090
858.731	23189
858.864	23132
858.997	23181
859.13	23250
859.263	23288
859.396	23231
859.529	23311
859.662	23269
859.795	23235
859.928	23311
860.061	23341
860.194	23440
860.327	23364
860.46	23170
860.592	23318
860.725	23356
860.858	23425
860.99	23208
861.123	23132
861.256	23136
861.388	23151
861.521	23965
861.653	23094
861.786	23136
861.918	23117
862.05	23109
862.183	23132
862.315	23200
862.447	23223
862.58	23071
862.712	22919
862.844	22793
862.976	22984
863.108	22987
863.24	23322
863.372	22900
863.504	22946
863.636	22987
863.768	22900
863.9	22877
864.032	22805
864.164	22850
864.296	22934
864.428	23003
864.559	22968
864.691	22934
864.823	23018
864.954	22824
865.086	22976
865.217	22824
865.349	22710
865.48	22717
865.612	22831
865.743	23029
865.875	22733
866.006	22847
866.137	22839
866.269	22805
866.4	22717
866.531	22702
866.662	22630
866.793	22645
866.924	22801
867.055	22755
867.186	22752
867.317	22702
867.448	22573
867.579	22763
867.71	22740
867.841	22550
867.972	22740
868.103	22634
868.233	22816
868.364	22713
868.495	22809
868.625	23052
868.756	23052
868.886	23003
869.017	22938
869.147	22995
869.278	23025
869.408	23094
869.539	22984
869.669	23048
869.799	22942
869.929	22995
870.06	23010
870.19	23254
870.32	23140
870.45	23292
870.58	23280
870.71	23455
870.84	23474
870.97	23311
871.1	23387
871.23	23512
871.36	23589
871.489	23345
871.619	23501
871.749	23524
871.879	23543
872.008	23596
872.138	23585
872.267	23623
872.397	23406
872.526	23353
872.656	23501
872.785	23410
872.915	23558
873.044	23684
873.173	23543
873.303	23649
873.432	23684
873.561	23707
873.69	23505
873.819	23547
873.948	23703
874.077	23592
874.206	23528
874.335	23558
874.464	23665
874.593	23828
874.722	23653
874.851	23901
874.979	23794
875.108	23855
875.237	23646
875.365	23760
875.494	23866
875.623	23912
875.751	23775
875.88	23680
876.008	23783
876.136	23916
876.265	24194
876.393	24300
876.521	24186
876.65	24110
876.778	24239
876.906	24110
877.034	24083
877.162	24076
877.29	24216
877.418	24209
877.546	24121
877.674	24182
877.802	24190
877.93	24163
878.058	24034
878.185	24038
878.313	24064
878.441	24102
878.568	23897
878.696	24098
878.824	24095
878.951	24174
879.079	24258
879.206	24342
879.333	24273
879.461	24098
879.588	24266
879.715	24148
879.842	24315
879.97	24224
880.097	23969
880.224	23965
880.351	24003
880.478	23977
880.605	23809
880.732	23805
880.859	24030
880.986	23912
881.112	23988
881.239	23794
881.366	23687
881.493	23490
881.619	23497
881.746	23600
881.872	23573
881.999	23474
882.125	23356
882.252	23463
882.378	23349
882.505	23600
882.631	23299
882.757	23204
882.883	23292
883.01	23155
883.136	23109
883.262	22987
883.388	22984
883.514	23090
883.64	23193
883.766	23086
883.892	22843
884.018	22930
884.143	23071
884.269	23178
884.395	22786
884.52	22675
884.646	22797
884.772	22767
884.897	22653
885.023	22767
885.148	22885
885.274	22793
885.399	22869
885.524	22820
885.65	22793
885.775	22755
885.9	22824
886.025	22847
886.15	22824
886.275	22683
886.4	22679
886.525	22721
886.65	22660
886.775	22653
886.9	22805
887.025	23010
887.149	22759
887.274	22573
887.399	22470
887.523	22603
887.648	22478
887.773	22344
887.897	22656
888.021	22577
888.146	22421
888.27	22584
888.395	22577
888.519	22516
888.643	22557
888.767	22569
888.891	22504
889.015	22219
889.139	22405
889.263	22246
889.387	22409
889.511	22573
889.635	22440
889.759	22276
889.883	22367
890.006	22246
890.13	22413
890.254	22261
890.377	22257
890.501	22109
890.624	21979
890.748	22032
890.871	21964
890.995	21907
891.118	21793
891.241	21937
891.364	21800
891.488	21998
891.611	21816
891.734	21835
891.857	21846
891.98	21827
892.103	21793
892.226	21819
892.349	21838
892.471	21633
892.594	21838
892.717	21686
892.839	21625
892.962	21739
893.085	21785
893.207	21816
893.33	21545
893.452	21622
893.575	21808
893.697	21679
893.819	21709
893.941	21975
894.064	21895
894.186	21705
894.308	21606
894.43	21804
894.552	21903
894.674	21705
894.796	21583
894.918	21603
895.04	21675
895.161	21690
895.283	21728
895.405	21637
895.526	21545
895.648	21667
895.769	21667
895.891	21675
896.012	21743
896.134	21713
896.255	21747
896.376	21511
896.498	21690
896.619	21644
896.74	21572
896.861	21899
896.982	21937
897.103	22055
897.224	21850
897.345	21922
897.466	21797
897.587	21918
897.708	22116
897.828	21915
897.949	21835
898.07	21743
898.19	21679
898.311	21941
898.431	21736
898.552	21812
898.672	22013
898.792	21854
898.913	21713
899.033	21637
899.153	21778
899.273	21443
899.393	21568
899.513	21568
899.633	21583
899.753	21622
899.873	21519
899.993	21583
900.113	21515
900.232	21618
900.352	21477
900.472	21321
900.591	21287
900.711	21435
900.83	21317
900.95	21526
901.069	21393
901.189	21321
901.308	20960
901.427	20956
901.546	20956
901.665	20887
901.784	20929
901.904	20773
902.023	20674
902.141	20507
902.26	20457
902.379	20499
902.498	20495
902.617	20347
902.735	20450
902.854	20256
902.973	20317
903.091	20126
903.21	20043
903.328	20084
903.446	19963
903.565	19814
903.683	19864
903.801	19852
903.919	19765
904.038	19826
904.156	19689
904.274	19635
904.392	19537
904.51	19548
904.627	19594
904.745	19620
904.863	19632
904.981	19232
905.098	19293
905.216	19270
905.334	19217
905.451	19240
905.569	19259
905.686	19312
905.803	19194
905.921	19023
906.038	19095
906.155	19114
906.272	18814
906.389	18962
906.506	18840
906.623	18852
906.74	18730
906.857	18673
906.974	18627
907.091	18711
907.208	18840
907.324	18760
907.441	18612
907.557	18582
907.674	18498
907.79	18517
907.907	18555
908.023	18506
908.139	18502
908.256	18407
908.372	18243
908.488	18380
908.604	18300
908.72	18174
908.836	18197
908.952	18136
909.068	18213
909.184	18254
909.3	18281
909.415	18216
909.531	18136
909.647	17920
909.762	17882
909.878	17836
909.993	17832
910.108	17828
910.224	17847
910.339	17821
910.454	17771
910.57	17665
910.685	17554
910.8	17870
910.915	17878
911.03	17596
911.145	17535
911.259	17482
911.374	17410
911.489	17360
911.604	17250
911.718	17170
911.833	17235
911.947	17147
912.062	17041
912.176	17277
912.291	17140
912.405	17147
912.519	17467
912.633	17318
912.748	17227
912.862	17121
912.976	16968
913.09	16885
913.204	16816
913.318	17083
913.431	17056
913.545	16999
913.659	17159
913.772	16858
913.886	16828
914	16790
914.113	16881
914.226	16889
914.34	16858
914.453	16645
914.566	16847
914.68	16698
914.793	16653
914.906	16402
915.019	16375
915.132	16371
915.245	16272
915.358	16428
915.47	16371
915.583	16284
915.696	16314
915.809	16451
915.921	16470
916.034	16257
916.146	16177
916.259	16169
916.371	16325
916.483	16405
916.595	16185
916.708	16139
916.82	16101
916.932	16147
917.044	16017
917.156	16055
917.268	15998
917.38	16006
917.491	15987
917.603	15998
917.715	16162
917.826	15937
917.938	15850
918.049	15865
918.161	15869
918.272	16048
918.384	15987
918.495	15865
918.606	15686
918.717	15671
918.828	15667
918.939	15701
919.05	15534
919.161	15705
919.272	15447
919.383	15526
919.494	15739
919.604	15774
919.715	15656
919.826	15454
919.936	15614
920.047	15690
920.157	15561
920.267	15789
920.378	15690
920.488	15625
920.598	15694
920.708	15934
920.818	15660
920.928	15774
921.038	15915
921.148	15816
921.258	15564
921.368	15401
921.477	15382
921.587	15325
921.697	15252
921.806	15321
921.916	15108
922.025	15024
922.134	15024
922.244	14933
922.353	14979
922.462	14800
922.571	14792
922.68	14545
922.789	14583
922.898	14590
923.007	14682
923.116	14526
923.224	14518
923.333	14663
923.442	14427
923.55	14427
923.659	14374
923.767	14419
923.876	14366
923.984	14431
924.092	14225
924.201	14305
924.309	14282
924.417	14282
924.525	14164
924.633	14252
924.741	15055
924.849	14092
924.956	14282
925.064	14054
925.172	13963
925.279	13963
925.387	13963
925.494	13913
925.602	14077
925.709	14027
925.816	13826
925.924	13917
926.031	14008
926.138	13818
926.245	13925
926.352	13864
926.459	13860
926.566	14024
926.673	13814
926.779	13613
926.886	13616
926.993	13415
927.099	13457
927.206	13464
927.312	13369
927.419	13525
927.525	13411
927.631	13487
927.737	13381
927.843	13308
927.95	13160
928.056	13308
928.162	13297
928.267	13331
928.373	13997
928.479	13358
928.585	13076
928.69	13198
928.796	13217
928.901	13228
929.007	12958
929.112	13065
929.218	13080
929.323	12958
929.428	13012
929.533	13050
929.638	12802
929.743	12901
929.848	12977
929.953	12878
930.058	12821
930.163	12563
930.267	12563
930.372	12848
930.477	12585
930.581	12806
930.685	12635
930.79	12517
930.894	12494
930.998	12612
931.103	12574
931.207	12232
931.311	12159
931.415	12041
931.519	11901
931.623	11851
