Data from test_V78500241_1464.txt Node
Date: Fri Mar 25 15:51:56 CST 2022
User: usil
Spectrometer: V785-0024
Trigger mode: 0
Integration Time (sec): 4.000000E-1
Scans to average: 1
Nonlinearity correction enabled: false
Boxcar width: 0
Storing dark spectrum: false
XAxis mode: Wavelengths
Number of Pixels in Spectrum: 1024
>>>>>Begin Spectral Data<<<<<
801.071	27610
801.214	27591
801.356	27351
801.499	27378
801.641	27291
801.783	27325
801.926	27203
802.068	27180
802.211	27135
802.353	26994
802.496	27024
802.638	26982
802.78	26849
802.923	26777
803.065	26708
803.208	26800
803.35	26743
803.492	26982
803.635	26868
803.777	26940
803.919	26975
804.061	27287
804.204	27100
804.346	26918
804.488	26830
804.63	26994
804.773	26849
804.915	27096
805.057	27116
805.199	26952
805.341	27074
805.483	27245
805.626	27173
805.768	27112
805.91	27150
806.052	27226
806.194	27192
806.336	27310
806.478	27306
806.62	27157
806.762	27268
806.904	27389
807.046	27587
807.188	27511
807.33	27530
807.472	27751
807.614	27473
807.756	27530
807.898	27462
808.04	27336
808.182	27553
808.324	27485
808.465	27431
808.607	27648
808.749	27736
808.891	27873
809.033	28010
809.174	27816
809.316	27759
809.458	27876
809.6	27709
809.741	27854
809.883	28010
810.025	28143
810.166	28070
810.308	28188
810.45	28097
810.591	28051
810.733	27865
810.875	27778
811.016	27603
811.158	27618
811.299	27892
811.441	27816
811.582	27975
811.724	27895
811.865	27774
812.007	27698
812.148	27713
812.29	27770
812.431	27850
812.573	28063
812.714	28086
812.855	28261
812.997	28405
813.138	28493
813.279	28348
813.421	28306
813.562	28341
813.703	28135
813.845	28086
813.986	27717
814.127	27671
814.268	27454
814.41	27595
814.551	27572
814.692	27648
814.833	27443
814.974	27454
815.115	27348
815.256	27401
815.397	27386
815.539	27306
815.68	27306
815.821	27363
815.962	27321
816.103	27230
816.244	27127
816.385	27100
816.526	27051
816.666	26765
816.807	26686
816.948	26830
817.089	26864
817.23	26823
817.371	26887
817.512	26705
817.653	26701
817.793	26720
817.934	26762
818.075	26773
818.216	26785
818.356	26750
818.497	26579
818.638	26537
818.778	26412
818.919	26495
819.06	26518
819.2	26602
819.341	26686
819.481	26762
819.622	26842
819.762	27055
819.903	27112
820.043	26940
820.184	26708
820.324	26994
820.465	26864
820.605	26899
820.746	26823
820.886	26697
821.026	26864
821.167	26735
821.307	26769
821.447	26785
821.588	26583
821.728	26530
821.868	26385
822.008	26305
822.149	26298
822.289	26164
822.429	25974
822.569	25936
822.709	25898
822.849	25689
822.99	25712
823.13	25655
823.27	25594
823.41	25525
823.55	25514
823.69	25632
823.83	25563
823.97	25468
824.11	25422
824.25	25301
824.389	25400
824.529	25525
824.669	25453
824.809	25419
824.949	25297
825.089	25506
825.228	25407
825.368	25304
825.508	25232
825.648	25168
825.787	25175
825.927	25236
826.067	25301
826.206	25266
826.346	25400
826.485	25354
826.625	25251
826.765	25209
826.904	25244
827.044	25004
827.183	25065
827.323	24783
827.462	25042
827.601	24837
827.741	24890
827.88	25050
828.02	24867
828.159	24833
828.298	24954
828.437	24890
828.577	24840
828.716	25004
828.855	24768
828.994	24612
829.134	24627
829.273	24608
829.412	24703
829.551	24574
829.69	24563
829.829	24544
829.968	24566
830.107	24658
830.246	24597
830.385	24593
830.524	24456
830.663	24441
830.802	24445
830.941	24232
831.08	24270
831.219	24330
831.357	24205
831.496	24399
831.635	24213
831.774	24087
831.913	24174
832.051	24079
832.19	23988
832.329	23996
832.467	23874
832.606	23939
832.744	23847
832.883	23942
833.022	23786
833.16	23904
833.299	23908
833.437	23851
833.576	24072
833.714	24022
833.852	24026
833.991	23912
834.129	23958
834.267	24022
834.406	23939
834.544	23931
834.682	23927
834.821	23942
834.959	24125
835.097	23878
835.235	23984
835.373	23889
835.511	23870
835.65	23817
835.788	23817
835.926	23661
836.064	23707
836.202	23604
836.34	23729
836.478	23809
836.615	23741
836.753	23741
836.891	23672
837.029	23866
837.167	23710
837.305	23684
837.443	23642
837.58	23615
837.718	23630
837.856	23604
837.993	23562
838.131	23547
838.269	23490
838.406	23566
838.544	23554
838.681	23307
838.819	23227
838.956	23056
839.094	23086
839.231	23128
839.369	23159
839.506	23376
839.643	23376
839.781	23060
839.918	23010
840.055	23124
840.193	23037
840.33	23064
840.467	22987
840.604	23239
840.742	23292
840.879	22900
841.016	22885
841.153	22847
841.29	23155
841.427	22938
841.564	23060
841.701	23090
841.838	23052
841.975	22885
842.112	22938
842.249	22797
842.385	22892
842.522	23041
842.659	22706
842.796	22774
842.933	22801
843.069	22736
843.206	22725
843.343	22774
843.479	22908
843.616	22717
843.752	22607
843.889	22565
844.025	22748
844.162	22394
844.298	22580
844.435	22485
844.571	22550
844.708	22554
844.844	22645
844.98	22683
845.117	22672
845.253	22455
845.389	22409
845.525	22474
845.661	22341
845.798	22325
845.934	22356
846.07	22272
846.206	22253
846.342	22405
846.478	22306
846.614	22040
846.75	21930
846.886	21960
847.022	22063
847.158	22029
847.294	21964
847.429	21979
847.565	22010
847.701	22158
847.837	21690
847.972	21675
848.108	21690
848.244	21793
848.379	21663
848.515	21614
848.65	21534
848.786	21633
848.921	21545
849.057	21660
849.192	21629
849.328	21595
849.463	21599
849.598	21523
849.734	21462
849.869	21439
850.004	21393
850.14	21412
850.275	21412
850.41	21348
850.545	21237
850.68	21348
850.815	21382
850.95	21439
851.085	21542
851.22	21473
851.355	21302
851.49	21348
851.625	21336
851.76	21310
851.895	21317
852.03	21211
852.165	21435
852.299	21428
852.434	21443
852.569	21401
852.703	21321
852.838	21424
852.973	21519
853.107	21473
853.242	21363
853.376	21207
853.511	21138
853.645	21226
853.78	21317
853.914	21230
854.048	21085
854.183	21142
854.317	21222
854.451	21485
854.585	21207
854.72	21169
854.854	21256
854.988	21142
855.122	21222
855.256	21135
855.39	21146
855.524	21287
855.658	21237
855.792	21176
855.926	21165
856.06	21176
856.194	21294
856.327	21268
856.461	21169
856.595	21123
856.729	21142
856.862	21370
856.996	21233
857.13	21211
857.263	21237
857.397	21351
857.53	21173
857.664	21211
857.797	21116
857.931	21367
858.064	21275
858.197	21336
858.331	21188
858.464	21237
858.597	21043
858.731	21116
858.864	21146
858.997	21252
859.13	21230
859.263	21138
859.396	21302
859.529	21173
859.662	20990
859.795	21062
859.928	21150
860.061	21272
860.194	21313
860.327	21169
860.46	21138
860.592	21272
860.725	21275
860.858	21332
860.99	21214
861.123	21085
861.256	21161
861.388	21252
861.521	21956
861.653	21104
861.786	20887
861.918	21020
862.05	21032
862.183	21142
862.315	21123
862.447	21043
862.58	21081
862.712	20899
862.844	20918
862.976	21058
863.108	20960
863.24	21393
863.372	20819
863.504	20914
863.636	20918
863.768	20849
863.9	21024
864.032	20724
864.164	20823
864.296	20902
864.428	20948
864.559	21020
864.691	20902
864.823	20853
864.954	20880
865.086	20918
865.217	20796
865.349	20750
865.48	20800
865.612	20682
865.743	20883
865.875	20864
866.006	20853
866.137	20769
866.269	20697
866.4	20731
866.531	20811
866.662	20731
866.793	20667
866.924	20632
867.055	20769
867.186	20735
867.317	20693
867.448	20579
867.579	20613
867.71	20678
867.841	20583
867.972	20640
868.103	20625
868.233	20754
868.364	20880
868.495	20853
868.625	20948
868.756	21062
868.886	20952
869.017	20963
869.147	21192
869.278	21074
869.408	21055
869.539	21024
869.669	21039
869.799	21036
869.929	21081
870.06	21154
870.19	21302
870.32	21317
870.45	21397
870.58	21408
870.71	21458
870.84	21507
870.97	21408
871.1	21370
871.23	21473
871.36	21549
871.489	21435
871.619	21488
871.749	21542
871.879	21648
872.008	21797
872.138	21534
872.267	21595
872.397	21485
872.526	21424
872.656	21428
872.785	21336
872.915	21625
873.044	21698
873.173	21648
873.303	21629
873.432	21739
873.561	21682
873.69	21656
873.819	21614
873.948	21679
874.077	21580
874.206	21523
874.335	21610
874.464	21755
874.593	21774
874.722	21762
874.851	21854
874.979	21857
875.108	21861
875.237	21812
875.365	21694
875.494	21751
875.623	21865
875.751	21717
875.88	21827
876.008	21937
876.136	22051
876.265	22280
876.393	22390
876.521	22287
876.65	22367
876.778	22181
876.906	22169
877.034	22158
877.162	22200
877.29	22188
877.418	22188
877.546	22185
877.674	22242
877.802	22234
877.93	22116
878.058	22135
878.185	22086
878.313	22124
878.441	22154
878.568	22097
878.696	22128
878.824	22246
878.951	22207
879.079	22314
879.206	22478
879.333	22382
879.461	22188
879.588	22356
879.715	22284
879.842	22417
879.97	22238
880.097	22021
880.224	22086
880.351	22013
880.478	22010
880.605	22078
880.732	21994
880.859	22131
880.986	22128
881.112	22082
881.239	21827
881.366	21781
881.493	21701
881.619	21534
881.746	21625
881.872	21549
881.999	21644
882.125	21545
882.252	21720
882.378	21526
882.505	21671
882.631	21515
882.757	21313
882.883	21272
883.01	21351
883.136	21207
883.262	21260
883.388	21150
883.514	21283
883.64	21260
883.766	21180
883.892	21009
884.018	21214
884.143	21218
884.269	21298
884.395	21093
884.52	20944
884.646	20960
884.772	20887
884.897	20686
885.023	20998
885.148	21112
885.274	21161
885.399	21093
885.524	20876
885.65	21001
885.775	20952
885.9	20914
886.025	20982
886.15	20849
886.275	20982
886.4	20944
886.525	20834
886.65	20895
886.775	20785
886.9	20975
887.025	21085
887.149	20876
887.274	20682
887.399	20613
887.523	20632
887.648	20705
887.773	20606
887.897	20750
888.021	20667
888.146	20640
888.27	20708
888.395	20769
888.519	20739
888.643	20720
888.767	20697
888.891	20587
889.015	20454
889.139	20545
889.263	20514
889.387	20579
889.511	20804
889.635	20575
889.759	20476
889.883	20537
890.006	20461
890.13	20503
890.254	20400
890.377	20434
890.501	20202
890.624	20259
890.748	20244
890.871	20130
890.995	19944
891.118	19944
891.241	20195
891.364	20103
891.488	20206
891.611	20069
891.734	20031
891.857	20100
891.98	20077
892.103	20065
892.226	20168
892.349	20065
892.471	19906
892.594	19928
892.717	20092
892.839	19951
892.962	19974
893.085	20073
893.207	20115
893.33	19913
893.452	19852
893.575	19989
893.697	19887
893.819	20115
893.941	20020
894.064	20046
894.186	19849
894.308	19883
894.43	20126
894.552	20069
894.674	20020
894.796	19811
894.918	19936
895.04	19890
895.161	20020
895.283	19978
895.405	19928
895.526	19963
895.648	20020
895.769	19894
895.891	20046
896.012	20062
896.134	20054
896.255	19940
896.376	20027
896.498	19967
896.619	20096
896.74	19932
896.861	20062
896.982	20400
897.103	20324
897.224	20271
897.345	20214
897.466	20073
897.587	20202
897.708	20275
897.828	20328
897.949	20199
898.07	20031
898.19	20187
898.311	20301
898.431	20142
898.552	20138
898.672	20301
898.792	20275
898.913	20278
899.033	20153
899.153	20043
899.273	19879
899.393	19894
899.513	20005
899.633	19928
899.753	20001
899.873	19894
899.993	20043
900.113	19993
900.232	20024
900.352	19864
900.472	19696
900.591	19803
900.711	19746
900.83	19655
900.95	19871
901.069	19795
901.189	19613
901.308	19415
901.427	19266
901.546	19369
901.665	19377
901.784	19343
901.904	19129
902.023	19091
902.141	18966
902.26	18859
902.379	18901
902.498	18840
902.617	18757
902.735	18939
902.854	18886
902.973	18825
903.091	18620
903.21	18582
903.328	18532
903.446	18376
903.565	18334
903.683	18311
903.801	18308
903.919	18251
904.038	18380
904.156	18155
904.274	18258
904.392	18072
904.51	18076
904.627	18091
904.745	18079
904.863	18072
904.981	17870
905.098	17771
905.216	17714
905.334	17703
905.451	17771
905.569	17703
905.686	17741
905.803	17619
905.921	17585
906.038	17714
906.155	17490
906.272	17539
906.389	17452
906.506	17265
906.623	17391
906.74	17231
906.857	17143
906.974	17189
907.091	17296
907.208	17474
907.324	17261
907.441	17200
907.557	17128
907.674	17090
907.79	16976
907.907	16968
908.023	17033
908.139	17029
908.256	16968
908.372	16816
908.488	16885
908.604	16767
908.72	16763
908.836	16809
908.952	16683
909.068	16862
909.184	16748
909.3	16778
909.415	16713
909.531	16672
909.647	16462
909.762	16443
909.878	16382
909.993	16382
910.108	16424
910.224	16508
910.339	16371
910.454	16329
910.57	16181
910.685	16204
910.8	16489
910.915	16379
911.03	16261
911.145	16025
911.259	16135
911.374	16059
911.489	15880
911.604	15857
911.718	15797
911.833	15816
911.947	15622
912.062	15606
912.176	15720
912.291	15774
912.405	15751
912.519	15949
912.633	15991
912.748	15831
912.862	15816
912.976	15637
913.09	15561
913.204	15572
913.318	15641
913.431	15641
913.545	15682
913.659	15675
913.772	15557
913.886	15397
914	15336
914.113	15526
914.226	15564
914.34	15485
914.453	15329
914.566	15500
914.68	15260
914.793	15268
914.906	15085
915.019	14998
915.132	14838
915.245	14967
915.358	15089
915.47	14929
915.583	14963
915.696	15093
915.809	15100
915.921	15157
916.034	14921
916.146	14929
916.259	14906
916.371	14918
916.483	14899
916.595	14838
916.708	14826
916.82	14807
916.932	14826
917.044	14853
917.156	14777
917.268	14758
917.38	14659
917.491	14602
917.603	14651
917.715	14705
917.826	14758
917.938	14617
918.049	14389
918.161	14571
918.272	14640
918.384	14746
918.495	14575
918.606	14446
918.717	14355
918.828	14389
918.939	14499
919.05	14332
919.161	14290
919.272	14153
919.383	14237
919.494	14469
919.604	14663
919.715	14370
919.826	14427
919.936	14362
920.047	14484
920.157	14377
920.267	14518
920.378	14355
920.488	14328
920.598	14480
920.708	14735
920.818	14579
920.928	14526
921.038	14648
921.148	14613
921.258	14362
921.368	14229
921.477	14111
921.587	14092
921.697	13936
921.806	14123
921.916	13947
922.025	13818
922.134	13864
922.244	13841
922.353	13689
922.462	13727
922.571	13674
922.68	13499
922.789	13331
922.898	13388
923.007	13324
923.116	13392
923.224	13392
923.333	13350
923.442	13293
923.55	13247
923.659	13247
923.767	13384
923.876	13228
923.984	13297
924.092	13061
924.201	13255
924.309	13179
924.417	13141
924.525	13008
924.633	13000
924.741	13818
924.849	12825
924.956	13057
925.064	12890
925.172	12837
925.279	12795
925.387	12859
925.494	12825
925.602	12947
925.709	12833
925.816	12764
925.924	12833
926.031	12837
926.138	12745
926.245	12768
926.352	12764
926.459	12829
926.566	12871
926.673	12692
926.779	12669
926.886	12566
926.993	12509
927.099	12327
927.206	12361
927.312	12372
927.419	12433
927.525	12342
927.631	12528
927.737	12277
927.843	12315
927.95	12106
928.056	12357
928.162	12209
928.267	12292
928.373	12894
928.479	12308
928.585	12030
928.69	12239
928.796	12194
928.901	12155
929.007	11965
929.112	12057
929.218	12007
929.323	12003
929.428	11920
929.533	12140
929.638	11935
929.743	11901
929.848	12003
929.953	11855
930.058	11855
930.163	11714
930.267	11699
930.372	11863
930.477	11589
930.581	11824
930.685	11703
930.79	11543
930.894	11532
930.998	11501
931.103	11668
931.207	11265
931.311	11136
931.415	11086
931.519	10976
931.623	10896
