Data from test_V78500241_1762.txt Node
Date: Fri Mar 25 15:54:00 CST 2022
User: usil
Spectrometer: V785-0024
Trigger mode: 0
Integration Time (sec): 4.000000E-1
Scans to average: 1
Nonlinearity correction enabled: false
Boxcar width: 0
Storing dark spectrum: false
XAxis mode: Wavelengths
Number of Pixels in Spectrum: 1024
>>>>>Begin Spectral Data<<<<<
801.071	28786
801.214	28774
801.356	28584
801.499	28394
801.641	28367
801.783	28405
801.926	28470
802.068	28417
802.211	28386
802.353	28265
802.496	28169
802.638	28074
802.78	28158
802.923	28036
803.065	28010
803.208	28055
803.35	28131
803.492	28242
803.635	28314
803.777	28257
803.919	28348
804.061	28641
804.204	28360
804.346	28303
804.488	28253
804.63	28280
804.773	28112
804.915	28432
805.057	28424
805.199	28405
805.341	28504
805.483	28527
805.626	28470
805.768	28348
805.91	28573
806.052	28596
806.194	28398
806.336	28694
806.478	28588
806.62	28531
806.762	28645
806.904	28862
807.046	28938
807.188	28961
807.33	28923
807.472	28915
807.614	28881
807.756	28938
807.898	28793
808.04	28816
808.182	28820
808.324	28873
808.465	29006
808.607	29037
808.749	29231
808.891	29421
809.033	29375
809.174	29452
809.316	29162
809.458	29258
809.6	29189
809.741	29273
809.883	29246
810.025	29425
810.166	29440
810.308	29558
810.45	29375
810.591	29315
810.733	29269
810.875	29155
811.016	29200
811.158	29128
811.299	29250
811.441	29353
811.582	29364
811.724	29143
811.865	29398
812.007	29143
812.148	29383
812.29	29239
812.431	29345
812.573	29566
812.714	29813
812.855	29786
812.997	29893
813.138	29992
813.279	29939
813.421	29695
813.562	29699
813.703	29547
813.845	29433
813.986	29216
814.127	29117
814.268	29029
814.41	28961
814.551	28820
814.692	29037
814.833	28995
814.974	28771
815.115	28888
815.256	28801
815.397	28888
815.539	28866
815.68	28957
815.821	28805
815.962	28763
816.103	28603
816.244	28622
816.385	28577
816.526	28462
816.666	28375
816.807	28192
816.948	28230
817.089	28401
817.23	28261
817.371	28261
817.512	28291
817.653	28276
817.793	28238
817.934	28181
818.075	28325
818.216	28367
818.356	28257
818.497	28131
818.638	27987
818.778	27960
818.919	28059
819.06	27956
819.2	28135
819.341	28166
819.481	28287
819.622	28497
819.762	28538
819.903	28577
820.043	28535
820.184	28462
820.324	28382
820.465	28584
820.605	28531
820.746	28401
820.886	28169
821.026	28428
821.167	28341
821.307	28443
821.447	28257
821.588	28211
821.728	28093
821.868	27808
822.008	27831
822.149	27679
822.289	27873
822.429	27450
822.569	27443
822.709	27329
822.849	27233
822.99	27294
823.13	27096
823.27	27100
823.41	27074
823.55	26910
823.69	27112
823.83	27150
823.97	27081
824.11	26899
824.25	26880
824.389	26857
824.529	27074
824.669	26880
824.809	26971
824.949	26933
825.089	26971
825.228	26891
825.368	26503
825.508	26727
825.648	26727
825.787	26853
825.927	26880
826.067	26663
826.206	26746
826.346	26815
826.485	26880
826.625	26731
826.765	26769
826.904	26785
827.044	26511
827.183	26507
827.323	26446
827.462	26537
827.601	26480
827.741	26545
827.88	26564
828.02	26275
828.159	26488
828.298	26530
828.437	26533
828.577	26404
828.716	26526
828.855	26320
828.994	26126
829.134	26180
829.273	26358
829.412	26073
829.551	26122
829.69	26202
829.829	26138
829.968	26286
830.107	26282
830.246	26206
830.385	26119
830.524	26271
830.663	26039
830.802	25944
830.941	25765
831.08	25841
831.219	25864
831.357	25822
831.496	26031
831.635	25871
831.774	25807
831.913	25670
832.051	25582
832.19	25533
832.329	25533
832.467	25544
832.606	25430
832.744	25479
832.883	25571
833.022	25396
833.16	25396
833.299	25514
833.437	25544
833.576	25594
833.714	25578
833.852	25567
833.991	25594
834.129	25586
834.267	25548
834.406	25506
834.544	25643
834.682	25502
834.821	25384
834.959	25791
835.097	25544
835.235	25445
835.373	25518
835.511	25381
835.65	25483
835.788	25430
835.926	25259
836.064	25137
836.202	25088
836.34	25335
836.478	25457
836.615	25343
836.753	25422
836.891	25502
837.029	25362
837.167	25259
837.305	25263
837.443	25156
837.58	25217
837.718	25236
837.856	25122
837.993	25133
838.131	25289
838.269	25019
838.406	25031
838.544	24886
838.681	24852
838.819	24829
838.956	24658
839.094	24650
839.231	24719
839.369	24840
839.506	24977
839.643	24798
839.781	24646
839.918	24505
840.055	24544
840.193	24772
840.33	24418
840.467	24536
840.604	24536
840.742	24795
840.879	24502
841.016	24414
841.153	24441
841.29	24604
841.427	24566
841.564	24513
841.701	24452
841.838	24460
841.975	24399
842.112	24376
842.249	24391
842.385	24311
842.522	24547
842.659	24300
842.796	24285
842.933	24201
843.069	24353
843.206	24174
843.343	24270
843.479	24235
843.616	24254
843.752	24064
843.889	24041
844.025	24205
844.162	24121
844.298	24148
844.435	24064
844.571	24038
844.708	24083
844.844	24182
844.98	24194
845.117	24079
845.253	23958
845.389	23942
845.525	23843
845.661	23912
845.798	23680
845.934	23828
846.07	23786
846.206	23821
846.342	23821
846.478	23779
846.614	23531
846.75	23562
846.886	23478
847.022	23642
847.158	23505
847.294	23535
847.429	23608
847.565	23497
847.701	23779
847.837	23315
847.972	23246
848.108	23288
848.244	23318
848.379	23212
848.515	23094
848.65	23033
848.786	23155
848.921	23151
849.057	23166
849.192	23208
849.328	23113
849.463	23132
849.598	23079
849.734	22965
849.869	22904
850.004	22831
850.14	22889
850.275	22881
850.41	22858
850.545	22778
850.68	22767
850.815	22927
850.95	22877
851.085	23022
851.22	23022
851.355	22831
851.49	22892
851.625	22767
851.76	22793
851.895	22869
852.03	22733
852.165	22839
852.299	22755
852.434	23014
852.569	22877
852.703	22744
852.838	22930
852.973	22904
853.107	23018
853.242	22881
853.376	22698
853.511	22489
853.645	22596
853.78	22824
853.914	22713
854.048	22683
854.183	22698
854.317	22565
854.451	22881
854.585	22611
854.72	22691
854.854	22733
854.988	22713
855.122	22656
855.256	22592
855.39	22660
855.524	22713
855.658	22755
855.792	22645
855.926	22664
856.06	22725
856.194	22645
856.327	22660
856.461	22660
856.595	22573
856.729	22569
856.862	22873
856.996	22634
857.13	22679
857.263	22892
857.397	22683
857.53	22626
857.664	22698
857.797	22820
857.931	22778
858.064	22748
858.197	22767
858.331	22565
858.464	22634
858.597	22398
858.731	22641
858.864	22577
858.997	22717
859.13	22584
859.263	22748
859.396	22622
859.529	22683
859.662	22771
859.795	22554
859.928	22592
860.061	22698
860.194	22771
860.327	22683
860.46	22687
860.592	22889
860.725	22729
860.858	22748
860.99	22641
861.123	22565
861.256	22618
861.388	22611
861.521	23425
861.653	22409
861.786	22459
861.918	22535
862.05	22557
862.183	22557
862.315	22588
862.447	22702
862.58	22527
862.712	22344
862.844	22390
862.976	22440
863.108	22333
863.24	22736
863.372	22363
863.504	22329
863.636	22379
863.768	22436
863.9	22333
864.032	22242
864.164	22371
864.296	22291
864.428	22493
864.559	22485
864.691	22428
864.823	22402
864.954	22253
865.086	22230
865.217	22219
865.349	22291
865.48	22219
865.612	22314
865.743	22341
865.875	22188
866.006	22314
866.137	22363
866.269	22268
866.4	22223
866.531	22185
866.662	22063
866.793	22226
866.924	22188
867.055	22211
867.186	22223
867.317	22135
867.448	22112
867.579	22078
867.71	21983
867.841	22177
867.972	22116
868.103	22097
868.233	22147
868.364	22166
868.495	22196
868.625	22421
868.756	22478
868.886	22360
869.017	22428
869.147	22527
869.278	22497
869.408	22489
869.539	22436
869.669	22538
869.799	22322
869.929	22584
870.06	22428
870.19	22725
870.32	22660
870.45	22656
870.58	22706
870.71	22831
870.84	22915
870.97	22923
871.1	22771
871.23	22908
871.36	22949
871.489	22972
871.619	23075
871.749	23018
871.879	23003
872.008	23117
872.138	22915
872.267	22839
872.397	22991
872.526	22831
872.656	22889
872.785	22889
872.915	23033
873.044	23071
873.173	23071
873.303	23086
873.432	23166
873.561	23159
873.69	22999
873.819	22968
873.948	22984
874.077	23060
874.206	23048
874.335	23136
874.464	23071
874.593	23208
874.722	23094
874.851	23307
874.979	23162
875.108	23143
875.237	23227
875.365	23155
875.494	23216
875.623	23318
875.751	23170
875.88	23360
876.008	23383
876.136	23520
876.265	23600
876.393	23729
876.521	23615
876.65	23695
876.778	23649
876.906	23703
877.034	23520
877.162	23619
877.29	23558
877.418	23619
877.546	23680
877.674	23611
877.802	23615
877.93	23516
878.058	23638
878.185	23322
878.313	23512
878.441	23539
878.568	23436
878.696	23490
878.824	23699
878.951	23783
879.079	23760
879.206	23897
879.333	23729
879.461	23619
879.588	23634
879.715	23760
879.842	23817
879.97	23680
880.097	23315
880.224	23360
880.351	23501
880.478	23463
880.605	23326
880.732	23311
880.859	23608
880.986	23334
881.112	23364
881.239	23212
881.366	23022
881.493	22930
881.619	23010
881.746	23044
881.872	22980
881.999	22801
882.125	22904
882.252	22957
882.378	22991
882.505	23155
882.631	22812
882.757	22573
882.883	22706
883.01	22626
883.136	22538
883.262	22428
883.388	22325
883.514	22630
883.64	22569
883.766	22519
883.892	22333
884.018	22466
884.143	22550
884.269	22630
884.395	22485
884.52	22154
884.646	22253
884.772	22314
884.897	22116
885.023	22169
885.148	22268
885.274	22341
885.399	22356
885.524	22188
885.65	22139
885.775	22105
885.9	22265
886.025	22394
886.15	22440
886.275	22173
886.4	22181
886.525	22154
886.65	22078
886.775	22166
886.9	22360
887.025	22344
887.149	22131
887.274	22070
887.399	22082
887.523	21994
887.648	21895
887.773	22013
887.897	22059
888.021	21953
888.146	21861
888.27	22067
888.395	22147
888.519	22063
888.643	22162
888.767	22021
888.891	21846
889.015	21835
889.139	21823
889.263	21884
889.387	21987
889.511	21960
889.635	21865
889.759	21759
889.883	21793
890.006	21838
890.13	21842
890.254	21629
890.377	21762
890.501	21553
890.624	21507
890.748	21622
890.871	21389
890.995	21466
891.118	21199
891.241	21329
891.364	21363
891.488	21405
891.611	21420
891.734	21344
891.857	21447
891.98	21302
892.103	21393
892.226	21416
892.349	21252
892.471	21077
892.594	21306
892.717	21321
892.839	21237
892.962	21192
893.085	21325
893.207	21211
893.33	21066
893.452	21131
893.575	21249
893.697	21165
893.819	21477
893.941	21435
894.064	21272
894.186	21173
894.308	21096
894.43	21279
894.552	21249
894.674	21252
894.796	21199
894.918	21249
895.04	21264
895.161	21173
895.283	21275
895.405	21169
895.526	21188
895.648	21180
895.769	21157
895.891	21199
896.012	21283
896.134	21245
896.255	21306
896.376	21184
896.498	21161
896.619	21131
896.74	21275
896.861	21355
896.982	21450
897.103	21466
897.224	21363
897.345	21340
897.466	21279
897.587	21344
897.708	21690
897.828	21287
897.949	21351
898.07	21302
898.19	21306
898.311	21447
898.431	21386
898.552	21332
898.672	21488
898.792	21462
898.913	21538
899.033	21298
899.153	21226
899.273	21119
899.393	21062
899.513	21211
899.633	21142
899.753	21241
899.873	21119
899.993	21127
900.113	21043
900.232	21222
900.352	21051
900.472	20975
900.591	20902
900.711	20891
900.83	20769
900.95	20933
901.069	21020
901.189	20777
901.308	20556
901.427	20374
901.546	20454
901.665	20332
901.784	20461
901.904	20320
902.023	20145
902.141	20088
902.26	20039
902.379	19997
902.498	19940
902.617	19925
902.735	20058
902.854	19925
902.973	19765
903.091	19609
903.21	19677
903.328	19548
903.446	19548
903.565	19350
903.683	19434
903.801	19358
903.919	19468
904.038	19430
904.156	19259
904.274	19259
904.392	19133
904.51	19122
904.627	19148
904.745	19194
904.863	19160
904.981	18867
905.098	18951
905.216	18787
905.334	18958
905.451	18806
905.569	18779
905.686	18837
905.803	18802
905.921	18654
906.038	18654
906.155	18620
906.272	18620
906.389	18620
906.506	18388
906.623	18380
906.74	18319
906.857	18174
906.974	18308
907.091	18334
907.208	18456
907.324	18357
907.441	18338
907.557	18155
907.674	18045
907.79	17992
907.907	18030
908.023	18125
908.139	18007
908.256	18072
908.372	17992
908.488	17939
908.604	17824
908.72	17718
908.836	17878
908.952	17722
909.068	17767
909.184	17828
909.3	17805
909.415	17870
909.531	17714
909.647	17516
909.762	17478
909.878	17436
909.993	17467
910.108	17520
910.224	17330
910.339	17421
910.454	17337
910.57	17136
910.685	17174
910.8	17509
910.915	17376
911.03	17216
911.145	17162
911.259	17159
911.374	17014
911.489	17018
911.604	17025
911.718	16793
911.833	16843
911.947	16736
912.062	16637
912.176	16744
912.291	16805
912.405	16778
912.519	16972
912.633	17003
912.748	16733
912.862	16862
912.976	16607
913.09	16440
913.204	16622
913.318	16584
913.431	16767
913.545	16691
913.659	16679
913.772	16554
913.886	16478
914	16306
914.113	16428
914.226	16440
914.34	16531
914.453	16230
914.566	16371
914.68	16299
914.793	16185
914.906	16067
915.019	15934
915.132	15937
915.245	16097
915.358	16021
915.47	16074
915.583	15915
915.696	15941
915.809	16013
915.921	16135
916.034	15827
916.146	15876
916.259	15766
916.371	15865
916.483	15964
916.595	15850
916.708	15774
916.82	15705
916.932	15762
917.044	15739
917.156	15709
917.268	15568
917.38	15576
917.491	15606
917.603	15580
917.715	15675
917.826	15705
917.938	15599
918.049	15393
918.161	15488
918.272	15587
918.384	15656
918.495	15545
918.606	15374
918.717	15310
918.828	15370
918.939	15348
919.05	15256
919.161	15355
919.272	15108
919.383	15154
919.494	15386
919.604	15469
919.715	15287
919.826	15195
919.936	15272
920.047	15412
920.157	15283
920.267	15435
920.378	15199
920.488	15180
920.598	15496
920.708	15492
920.818	15310
920.928	15378
921.038	15431
921.148	15526
921.258	15218
921.368	15093
921.477	14975
921.587	15051
921.697	14880
921.806	15047
921.916	14811
922.025	14708
922.134	14777
922.244	14617
922.353	14579
922.462	14549
922.571	14450
922.68	14294
922.789	14225
922.898	14244
923.007	14221
923.116	14214
923.224	14202
923.333	14244
923.442	14157
923.55	14149
923.659	14130
923.767	14145
923.876	14008
923.984	14119
924.092	13936
924.201	14058
924.309	13955
924.417	13928
924.525	13818
924.633	13917
924.741	14689
924.849	13700
924.956	13902
925.064	13677
925.172	13521
925.279	13556
925.387	13601
925.494	13601
925.602	13765
925.709	13655
925.816	13548
925.924	13552
926.031	13620
926.138	13563
926.245	13651
926.352	13518
926.459	13620
926.566	13552
926.673	13487
926.779	13400
926.886	13396
926.993	13263
927.099	13168
927.206	13225
927.312	13133
927.419	13149
927.525	13164
927.631	13213
927.737	13019
927.843	13050
927.95	12856
928.056	12909
928.162	13008
928.267	13046
928.373	13662
928.479	13019
928.585	12802
928.69	12924
928.796	12928
928.901	12859
929.007	12779
929.112	12905
929.218	12779
929.323	12692
929.428	12715
929.533	12814
929.638	12578
929.743	12665
929.848	12745
929.953	12623
930.058	12513
930.163	12350
930.267	12342
930.372	12452
930.477	12289
930.581	12528
930.685	12433
930.79	12228
930.894	12334
930.998	12129
931.103	12277
931.207	12003
931.311	11874
931.415	11821
931.519	11665
931.623	11653
