Data from test_V78500241_90.txt Node
Date: Fri Mar 25 15:42:25 CST 2022
User: usil
Spectrometer: V785-0024
Trigger mode: 0
Integration Time (sec): 4.000000E-1
Scans to average: 1
Nonlinearity correction enabled: false
Boxcar width: 0
Storing dark spectrum: false
XAxis mode: Wavelengths
Number of Pixels in Spectrum: 1024
>>>>>Begin Spectral Data<<<<<
801.071	29817
801.214	29798
801.356	29558
801.499	29615
801.641	29558
801.783	29467
801.926	29425
802.068	29486
802.211	29322
802.353	29212
802.496	29033
802.638	29090
802.78	29136
802.923	28984
803.065	28934
803.208	29102
803.35	29273
803.492	29147
803.635	29121
803.777	29174
803.919	29254
804.061	29410
804.204	29402
804.346	29083
804.488	29159
804.63	29143
804.773	28995
804.915	29090
805.057	29269
805.199	29067
805.341	29231
805.483	29337
805.626	29375
805.768	29143
805.91	29242
806.052	29265
806.194	29250
806.336	29444
806.478	29261
806.62	29277
806.762	29387
806.904	29573
807.046	29718
807.188	29646
807.33	29676
807.472	29836
807.614	29649
807.756	29558
807.898	29410
808.04	29421
808.182	29528
808.324	29455
808.465	29524
808.607	29695
808.749	29813
808.891	29866
809.033	29935
809.174	29824
809.316	29805
809.458	29824
809.6	29703
809.741	29908
809.883	29882
810.025	30117
810.166	30011
810.308	30095
810.45	29893
810.591	29977
810.733	29817
810.875	29680
811.016	29779
811.158	29703
811.299	29961
811.441	30003
811.582	29931
811.724	29828
811.865	29729
812.007	29676
812.148	29687
812.29	29809
812.431	29916
812.573	29931
812.714	30178
812.855	30247
812.997	30232
813.138	30441
813.279	30239
813.421	30300
813.562	30194
813.703	30041
813.845	29824
813.986	29562
814.127	29493
814.268	29353
814.41	29292
814.551	29220
814.692	29395
814.833	29185
814.974	29242
815.115	29254
815.256	29181
815.397	29105
815.539	29056
815.68	29185
815.821	29048
815.962	29060
816.103	29025
816.244	28858
816.385	28892
816.526	28759
816.666	28565
816.807	28596
816.948	28554
817.089	28557
817.23	28462
817.371	28436
817.512	28401
817.653	28481
817.793	28428
817.934	28538
818.075	28443
818.216	28432
818.356	28371
818.497	28333
818.638	27975
818.778	28177
818.919	28257
819.06	28173
819.2	28249
819.341	28409
819.481	28261
819.622	28607
819.762	28683
819.903	28584
820.043	28485
820.184	28329
820.324	28459
820.465	28546
820.605	28485
820.746	28443
820.886	28367
821.026	28459
821.167	28363
821.307	28382
821.447	28337
821.588	28379
821.728	28204
821.868	27861
822.008	27755
822.149	27736
822.289	27842
822.429	27568
822.569	27466
822.709	27405
822.849	27317
822.99	27233
823.13	27116
823.27	27062
823.41	27036
823.55	27112
823.69	26979
823.83	27096
823.97	26967
824.11	26811
824.25	26705
824.389	26899
824.529	26891
824.669	26689
824.809	26891
824.949	26918
825.089	26891
825.228	26796
825.368	26663
825.508	26503
825.648	26503
825.787	26640
825.927	26716
826.067	26644
826.206	26659
826.346	26636
826.485	26727
826.625	26488
826.765	26739
826.904	26541
827.044	26366
827.183	26355
827.323	26172
827.462	26343
827.601	26275
827.741	26210
827.88	26259
828.02	26225
828.159	26100
828.298	26294
828.437	26347
828.577	26180
828.716	26412
828.855	26164
828.994	26065
829.134	26008
829.273	26012
829.412	25970
829.551	25970
829.69	26001
829.829	25799
829.968	26054
830.107	25906
830.246	25864
830.385	25757
830.524	25890
830.663	25738
830.802	25430
830.941	25396
831.08	25472
831.219	25620
831.357	25563
831.496	25761
831.635	25422
831.774	25304
831.913	25346
832.051	25217
832.19	25183
832.329	25274
832.467	25076
832.606	25012
832.744	25129
832.883	25103
833.022	25038
833.16	25027
833.299	25053
833.437	25000
833.576	25084
833.714	25114
833.852	25088
833.991	25031
834.129	25088
834.267	25069
834.406	25065
834.544	25175
834.682	25122
834.821	24992
834.959	25110
835.097	25076
835.235	25080
835.373	25114
835.511	24958
835.65	24924
835.788	24905
835.926	24783
836.064	24650
836.202	24681
836.34	24890
836.478	24985
836.615	24863
836.753	24905
836.891	24890
837.029	24935
837.167	24745
837.305	24772
837.443	24779
837.58	24623
837.718	24665
837.856	24760
837.993	24707
838.131	24593
838.269	24623
838.406	24532
838.544	24521
838.681	24376
838.819	24353
838.956	24068
839.094	24155
839.231	24129
839.369	24292
839.506	24445
839.643	24216
839.781	23939
839.918	23977
840.055	24091
840.193	24045
840.33	24133
840.467	23965
840.604	24178
840.742	24361
840.879	23847
841.016	23882
841.153	23885
841.29	23973
841.427	24057
841.564	24034
841.701	24018
841.838	23817
841.975	23855
842.112	23798
842.249	23779
842.385	23764
842.522	23988
842.659	23790
842.796	23646
842.933	23600
843.069	23657
843.206	23646
843.343	23577
843.479	23615
843.616	23627
843.752	23429
843.889	23372
844.025	23566
844.162	23330
844.298	23516
844.435	23452
844.571	23307
844.708	23372
844.844	23436
844.98	23478
845.117	23471
845.253	23299
845.389	23200
845.525	23246
845.661	23189
845.798	23033
845.934	23117
846.07	23056
846.206	23098
846.342	23200
846.478	23025
846.614	22885
846.75	22729
846.886	22797
847.022	22911
847.158	22740
847.294	22828
847.429	22774
847.565	22721
847.701	23022
847.837	22569
847.972	22421
848.108	22588
848.244	22424
848.379	22428
848.515	22314
848.65	22386
848.786	22379
848.921	22432
849.057	22341
849.192	22478
849.328	22310
849.463	22348
849.598	22131
849.734	22162
849.869	22078
850.004	22051
850.14	22166
850.275	22093
850.41	21979
850.545	22074
850.68	21907
850.815	22078
850.95	22044
851.085	22234
851.22	22158
851.355	21991
851.49	21983
851.625	22017
851.76	21934
851.895	21934
852.03	21926
852.165	22032
852.299	22124
852.434	22116
852.569	22010
852.703	21972
852.838	21983
852.973	22105
853.107	22162
853.242	22070
853.376	21880
853.511	21625
853.645	21857
853.78	21857
853.914	21915
854.048	21789
854.183	21743
854.317	21922
854.451	21979
854.585	21964
854.72	21804
854.854	21888
854.988	21739
855.122	21747
855.256	21701
855.39	21812
855.524	21941
855.658	21918
855.792	21884
855.926	21846
856.06	21930
856.194	21907
856.327	21736
856.461	21751
856.595	21720
856.729	21755
856.862	21831
856.996	21827
857.13	21854
857.263	21953
857.397	21884
857.53	21766
857.664	21953
857.797	21835
857.931	21884
858.064	21766
858.197	21827
858.331	21751
858.464	21747
858.597	21694
858.731	21717
858.864	21755
858.997	21831
859.13	21675
859.263	21747
859.396	21755
859.529	21705
859.662	21644
859.795	21667
859.928	21812
860.061	21770
860.194	21861
860.327	21778
860.46	21686
860.592	21751
860.725	21778
860.858	21808
860.99	21705
861.123	21599
861.256	21667
861.388	21690
861.521	22204
861.653	21576
861.786	21435
861.918	21610
862.05	21682
862.183	21679
862.315	21800
862.447	21846
862.58	21739
862.712	21523
862.844	21450
862.976	21557
863.108	21424
863.24	21812
863.372	21389
863.504	21462
863.636	21477
863.768	21507
863.9	21367
864.032	21428
864.164	21386
864.296	21291
864.428	21450
864.559	21469
864.691	21420
864.823	21382
864.954	21397
865.086	21332
865.217	21237
865.349	21184
865.48	21367
865.612	21329
865.743	21485
865.875	21321
866.006	21260
866.137	21329
866.269	21351
866.4	21272
866.531	21214
866.662	21275
866.793	21264
866.924	21222
867.055	21283
867.186	21321
867.317	21131
867.448	21142
867.579	21066
867.71	21047
867.841	21188
867.972	21150
868.103	21317
868.233	21081
868.364	21230
868.495	21317
868.625	21405
868.756	21561
868.886	21378
869.017	21439
869.147	21557
869.278	21545
869.408	21469
869.539	21355
869.669	21530
869.799	21443
869.929	21549
870.06	21500
870.19	21774
870.32	21629
870.45	21751
870.58	21770
870.71	21968
870.84	21915
870.97	21964
871.1	21724
871.23	21994
871.36	22002
871.489	22021
871.619	21964
871.749	22006
871.879	22055
872.008	22230
872.138	22090
872.267	21987
872.397	21983
872.526	21926
872.656	21869
872.785	21960
872.915	21975
873.044	22074
873.173	22150
873.303	22078
873.432	22090
873.561	22230
873.69	22044
873.819	22070
873.948	22173
874.077	22036
874.206	22021
874.335	22112
874.464	22226
874.593	22428
874.722	22192
874.851	22200
874.979	22318
875.108	22287
875.237	22386
875.365	22341
875.494	22329
875.623	22405
875.751	22246
875.88	22356
876.008	22325
876.136	22500
876.265	22725
876.393	22953
876.521	22877
876.65	22717
876.778	22744
876.906	22596
877.034	22527
877.162	22706
877.29	22478
877.418	22733
877.546	22641
877.674	22675
877.802	22649
877.93	22596
878.058	22611
878.185	22519
878.313	22653
878.441	22683
878.568	22478
878.696	22527
878.824	22694
878.951	22675
879.079	22843
879.206	22892
879.333	22816
879.461	22618
879.588	22782
879.715	22744
879.842	22797
879.97	22702
880.097	22470
880.224	22337
880.351	22421
880.478	22462
880.605	22337
880.732	22500
880.859	22672
880.986	22421
881.112	22470
881.239	22337
881.366	22226
881.493	22051
881.619	22143
881.746	22055
881.872	21899
881.999	21960
882.125	21930
882.252	22154
882.378	21930
882.505	22215
882.631	21888
882.757	21690
882.883	21884
883.01	21770
883.136	21724
883.262	21595
883.388	21644
883.514	21705
883.64	21751
883.766	21675
883.892	21511
884.018	21557
884.143	21644
884.269	21762
884.395	21462
884.52	21374
884.646	21431
884.772	21370
884.897	21348
885.023	21416
885.148	21511
885.274	21606
885.399	21557
885.524	21431
885.65	21401
885.775	21325
885.9	21378
886.025	21519
886.15	21401
886.275	21332
886.4	21207
886.525	21298
886.65	21348
886.775	21321
886.9	21481
887.025	21530
887.149	21245
887.274	21222
887.399	21058
887.523	21055
887.648	21055
887.773	21009
887.897	21237
888.021	21138
888.146	21108
888.27	21260
888.395	21256
888.519	21199
888.643	21089
888.767	21093
888.891	20963
889.015	20872
889.139	20960
889.263	20815
889.387	21039
889.511	21119
889.635	20990
889.759	20887
889.883	20792
890.006	20906
890.13	20918
890.254	20906
890.377	20914
890.501	20655
890.624	20526
890.748	20606
890.871	20533
890.995	20514
891.118	20419
891.241	20522
891.364	20427
891.488	20621
891.611	20427
891.734	20495
891.857	20571
891.98	20438
892.103	20415
892.226	20495
892.349	20431
892.471	20168
892.594	20267
892.717	20423
892.839	20336
892.962	20396
893.085	20393
893.207	20480
893.33	20210
893.452	20229
893.575	20339
893.697	20282
893.819	20476
893.941	20545
894.064	20408
894.186	20278
894.308	20233
894.43	20358
894.552	20556
894.674	20522
894.796	20259
894.918	20446
895.04	20305
895.161	20419
895.283	20351
895.405	20278
895.526	20370
895.648	20278
895.769	20290
895.891	20480
896.012	20507
896.134	20442
896.255	20434
896.376	20282
896.498	20434
896.619	20476
896.74	20484
896.861	20389
896.982	20807
897.103	20876
897.224	20705
897.345	20609
897.466	20632
897.587	20579
897.708	20720
897.828	20530
897.949	20514
898.07	20507
898.19	20480
898.311	20594
898.431	20461
898.552	20564
898.672	20651
898.792	20659
898.913	20438
899.033	20431
899.153	20263
899.273	20149
899.393	20267
899.513	20286
899.633	20122
899.753	20115
899.873	20115
899.993	20248
900.113	20180
900.232	20142
900.352	20263
900.472	20119
900.591	19963
900.711	20130
900.83	20126
900.95	20050
901.069	20065
901.189	19978
901.308	19734
901.427	19559
901.546	19635
901.665	19689
901.784	19571
901.904	19628
902.023	19441
902.141	19133
902.26	19107
902.379	19061
902.498	19168
902.617	18996
902.735	19126
902.854	18989
902.973	19110
903.091	18749
903.21	18829
903.328	18627
903.446	18696
903.565	18646
903.683	18578
903.801	18494
903.919	18589
904.038	18525
904.156	18369
904.274	18414
904.392	18270
904.51	18433
904.627	18270
904.745	18357
904.863	18441
904.981	18133
905.098	18114
905.216	18060
905.334	18015
905.451	18003
905.569	17901
905.686	17961
905.803	17942
905.921	17764
906.038	17828
906.155	17870
906.272	17573
906.389	17680
906.506	17543
906.623	17627
906.74	17520
906.857	17356
906.974	17478
907.091	17543
907.208	17729
907.324	17543
907.441	17493
907.557	17254
907.674	17147
907.79	17117
907.907	17083
908.023	17334
908.139	17128
908.256	17025
908.372	17048
908.488	17185
908.604	16961
908.72	16908
908.836	16820
908.952	16824
909.068	16915
909.184	17037
909.3	16946
909.415	16949
909.531	16892
909.647	16573
909.762	16535
909.878	16508
909.993	16698
910.108	16459
910.224	16428
910.339	16443
910.454	16500
910.57	16333
910.685	16234
910.8	16637
910.915	16516
911.03	16306
911.145	16166
911.259	16090
911.374	16154
911.489	16067
911.604	15960
911.718	15854
911.833	15888
911.947	15854
912.062	15823
912.176	15926
912.291	15934
912.405	15926
912.519	16032
912.633	16173
912.748	15945
912.862	15831
912.976	15667
913.09	15599
913.204	15660
913.318	15660
913.431	15759
913.545	15732
913.659	15785
913.772	15610
913.886	15500
914	15500
914.113	15656
914.226	15553
914.34	15519
914.453	15450
914.566	15557
914.68	15348
914.793	15397
914.906	15188
915.019	15058
915.132	15123
915.245	15108
915.358	15097
915.47	15024
915.583	15241
915.696	15146
915.809	15230
915.921	15188
916.034	15051
916.146	15009
916.259	14906
916.371	15051
916.483	15036
916.595	14910
916.708	14902
916.82	14948
916.932	14845
917.044	14899
917.156	14838
917.268	14674
917.38	14815
917.491	14746
917.603	14773
917.715	14796
917.826	14777
917.938	14640
918.049	14556
918.161	14648
918.272	14826
918.384	14853
918.495	14556
918.606	14511
918.717	14526
918.828	14518
918.939	14514
919.05	14377
919.161	14465
919.272	14294
919.383	14267
919.494	14438
919.604	14712
919.715	14438
919.826	14210
919.936	14317
920.047	14495
920.157	14355
920.267	14625
920.378	14381
920.488	14366
920.598	14556
920.708	14712
920.818	14568
920.928	14503
921.038	14693
921.148	14636
921.258	14362
921.368	14263
921.477	14202
921.587	14164
921.697	14054
921.806	14096
921.916	13974
922.025	13906
922.134	13769
922.244	13708
922.353	13772
922.462	13575
922.571	13540
922.68	13480
922.789	13411
922.898	13506
923.007	13373
923.116	13419
923.224	13327
923.333	13438
923.442	13297
923.55	13194
923.659	13259
923.767	13350
923.876	13190
923.984	13266
924.092	13149
924.201	13247
924.309	13122
924.417	13042
924.525	13038
924.633	13046
924.741	13887
924.849	12829
924.956	13065
925.064	12932
925.172	12776
925.279	12814
925.387	12932
925.494	12829
925.602	12878
925.709	12829
925.816	12719
925.924	12905
926.031	12859
926.138	12829
926.245	12897
926.352	12715
926.459	12791
926.566	12909
926.673	12604
926.779	12620
926.886	12616
926.993	12350
927.099	12422
927.206	12346
927.312	12281
927.419	12407
927.525	12357
927.631	12380
927.737	12205
927.843	12228
927.95	12136
928.056	12220
928.162	12232
928.267	12308
928.373	12943
928.479	12296
928.585	12053
928.69	12148
928.796	12228
928.901	12095
929.007	11889
929.112	12053
929.218	11973
929.323	11984
929.428	11889
929.533	12125
929.638	11832
929.743	11821
929.848	11908
929.953	11874
930.058	11828
930.163	11611
930.267	11627
930.372	11741
930.477	11577
930.581	11805
930.685	11676
930.79	11433
930.894	11467
930.998	11395
931.103	11600
931.207	11185
931.311	11109
931.415	11018
931.519	10896
931.623	10854
