Data from test_V78500241_1557.txt Node
Date: Fri Mar 25 15:52:35 CST 2022
User: usil
Spectrometer: V785-0024
Trigger mode: 0
Integration Time (sec): 4.000000E-1
Scans to average: 1
Nonlinearity correction enabled: false
Boxcar width: 0
Storing dark spectrum: false
XAxis mode: Wavelengths
Number of Pixels in Spectrum: 1024
>>>>>Begin Spectral Data<<<<<
801.071	28025
801.214	28063
801.356	27709
801.499	27728
801.641	27614
801.783	27583
801.926	27675
802.068	27580
802.211	27412
802.353	27382
802.496	27291
802.638	27207
802.78	27222
802.923	27096
803.065	27058
803.208	27230
803.35	27192
803.492	27287
803.635	27386
803.777	27211
803.919	27386
804.061	27717
804.204	27553
804.346	27291
804.488	27348
804.63	27519
804.773	27291
804.915	27549
805.057	27511
805.199	27447
805.341	27466
805.483	27736
805.626	27511
805.768	27492
805.91	27511
806.052	27591
806.194	27496
806.336	27724
806.478	27743
806.62	27644
806.762	27797
806.904	27892
807.046	28002
807.188	28086
807.33	28013
807.472	27998
807.614	28044
807.756	28006
807.898	27888
808.04	27838
808.182	27800
808.324	27903
808.465	28120
808.607	28013
808.749	28169
808.891	28265
809.033	28443
809.174	28310
809.316	28158
809.458	28246
809.6	28196
809.741	28337
809.883	28356
810.025	28500
810.166	28675
810.308	28512
810.45	28672
810.591	28401
810.733	28181
810.875	28291
811.016	28150
811.158	28147
811.299	28242
811.441	28512
811.582	28382
811.724	28253
811.865	28025
812.007	28188
812.148	28185
812.29	28200
812.431	28375
812.573	28462
812.714	28622
812.855	28721
812.997	28843
813.138	28927
813.279	28816
813.421	28767
813.562	28736
813.703	28516
813.845	28398
813.986	28223
814.127	27972
814.268	27964
814.41	27884
814.551	27823
814.692	28063
814.833	27949
814.974	27854
815.115	27888
815.256	27850
815.397	27679
815.539	27831
815.68	27660
815.821	27462
815.962	27755
816.103	27675
816.244	27469
816.385	27553
816.526	27595
816.666	27291
816.807	27226
816.948	27374
817.089	27336
817.23	27226
817.371	27245
817.512	27207
817.653	27279
817.793	27180
817.934	27070
818.075	27192
818.216	27135
818.356	27161
818.497	27165
818.638	26929
818.778	26929
818.919	26853
819.06	26971
819.2	27066
819.341	27154
819.481	27260
819.622	27435
819.762	27542
819.903	27458
820.043	27454
820.184	27473
820.324	27317
820.465	27405
820.605	27348
820.746	27245
820.886	27264
821.026	27180
821.167	27306
821.307	27321
821.447	27287
821.588	27074
821.728	27104
821.868	26906
822.008	26735
822.149	26629
822.289	26632
822.429	26457
822.569	26355
822.709	26389
822.849	26286
822.99	26237
823.13	26138
823.27	26062
823.41	25997
823.55	25890
823.69	26046
823.83	26073
823.97	25845
824.11	25830
824.25	25742
824.389	25887
824.529	25963
824.669	25890
824.809	26001
824.949	25818
825.089	25925
825.228	25860
825.368	25776
825.508	25689
825.648	25681
825.787	25780
825.927	25757
826.067	25712
826.206	25655
826.346	25704
826.485	25757
826.625	25761
826.765	25887
826.904	25635
827.044	25540
827.183	25575
827.323	25278
827.462	25537
827.601	25426
827.741	25388
827.88	25544
828.02	25388
828.159	25293
828.298	25377
828.437	25552
828.577	25415
828.716	25533
828.855	25400
828.994	25069
829.134	25114
829.273	25190
829.412	25148
829.551	25031
829.69	25194
829.829	25228
829.968	25346
830.107	25236
830.246	25183
830.385	25057
830.524	25152
830.663	24981
830.802	24890
830.941	24772
831.08	24726
831.219	24768
831.357	24966
831.496	24989
831.635	24673
831.774	24654
831.913	24536
832.051	24525
832.19	24525
832.329	24601
832.467	24525
832.606	24395
832.744	24391
832.883	24338
833.022	24323
833.16	24521
833.299	24441
833.437	24315
833.576	24597
833.714	24585
833.852	24486
833.991	24467
834.129	24631
834.267	24517
834.406	24528
834.544	24437
834.682	24505
834.821	24422
834.959	24574
835.097	24479
835.235	24528
835.373	24452
835.511	24521
835.65	24315
835.788	24384
835.926	24323
836.064	24148
836.202	24087
836.34	24448
836.478	24410
836.615	24304
836.753	24357
836.891	24433
837.029	24224
837.167	24311
837.305	24216
837.443	24266
837.58	24171
837.718	24277
837.856	24133
837.993	24140
838.131	24087
838.269	24053
838.406	24102
838.544	23961
838.681	23885
838.819	23783
838.956	23611
839.094	23604
839.231	23687
839.369	23847
839.506	23863
839.643	23878
839.781	23581
839.918	23566
840.055	23566
840.193	23630
840.33	23493
840.467	23585
840.604	23684
840.742	23767
840.879	23478
841.016	23455
841.153	23379
841.29	23676
841.427	23547
841.564	23558
841.701	23562
841.838	23505
841.975	23520
842.112	23429
842.249	23356
842.385	23311
842.522	23459
842.659	23284
842.796	23360
842.933	23330
843.069	23189
843.206	23155
843.343	23296
843.479	23391
843.616	23277
843.752	23006
843.889	23121
844.025	23273
844.162	23022
844.298	23083
844.435	23155
844.571	22972
844.708	23014
844.844	23155
844.98	23159
845.117	23193
845.253	22976
845.389	23010
845.525	22911
845.661	22930
845.798	22721
845.934	22744
846.07	22755
846.206	22828
846.342	22839
846.478	22729
846.614	22516
846.75	22459
846.886	22577
847.022	22569
847.158	22554
847.294	22535
847.429	22626
847.565	22535
847.701	22805
847.837	22188
847.972	22257
848.108	22310
848.244	22341
848.379	22188
848.515	22147
848.65	22131
848.786	22105
848.921	22109
849.057	22135
849.192	22169
849.328	22090
849.463	22021
849.598	22162
849.734	21960
849.869	21983
850.004	21888
850.14	21934
850.275	21922
850.41	21865
850.545	21736
850.68	21789
850.815	21854
850.95	21873
851.085	22032
851.22	21892
851.355	21884
851.49	21945
851.625	21930
851.76	21778
851.895	21835
852.03	21713
852.165	21869
852.299	21922
852.434	21915
852.569	21873
852.703	21812
852.838	21922
852.973	21998
853.107	22078
853.242	21781
853.376	21732
853.511	21614
853.645	21542
853.78	21842
853.914	21648
854.048	21690
854.183	21781
854.317	21728
854.451	21831
854.585	21720
854.72	21774
854.854	21869
854.988	21633
855.122	21736
855.256	21561
855.39	21720
855.524	21713
855.658	21713
855.792	21671
855.926	21736
856.06	21751
856.194	21698
856.327	21667
856.461	21682
856.595	21671
856.729	21583
856.862	21766
856.996	21743
857.13	21682
857.263	21800
857.397	21739
857.53	21728
857.664	21739
857.797	21724
857.931	21857
858.064	21793
858.197	21831
858.331	21804
858.464	21629
858.597	21641
858.731	21595
858.864	21690
858.997	21701
859.13	21717
859.263	21755
859.396	21823
859.529	21751
859.662	21698
859.795	21736
859.928	21679
860.061	21823
860.194	21911
860.327	21800
860.46	21713
860.592	21808
860.725	21842
860.858	21949
860.99	21717
861.123	21679
861.256	21717
861.388	21789
861.521	22204
861.653	21542
861.786	21386
861.918	21637
862.05	21507
862.183	21583
862.315	21614
862.447	21671
862.58	21671
862.712	21462
862.844	21401
862.976	21496
863.108	21367
863.24	21915
863.372	21370
863.504	21519
863.636	21317
863.768	21454
863.9	21355
864.032	21249
864.164	21367
864.296	21412
864.428	21488
864.559	21542
864.691	21428
864.823	21447
864.954	21386
865.086	21401
865.217	21329
865.349	21195
865.48	21336
865.612	21260
865.743	21424
865.875	21363
866.006	21321
866.137	21233
866.269	21340
866.4	21245
866.531	21176
866.662	21264
866.793	21241
866.924	21214
867.055	21294
867.186	21199
867.317	21173
867.448	21142
867.579	21169
867.71	21116
867.841	21119
867.972	21260
868.103	21154
868.233	21287
868.364	21283
868.495	21397
868.625	21473
868.756	21454
868.886	21439
869.017	21523
869.147	21663
869.278	21519
869.408	21614
869.539	21469
869.669	21583
869.799	21553
869.929	21698
870.06	21698
870.19	21827
870.32	21800
870.45	21930
870.58	21831
870.71	21934
870.84	22013
870.97	21770
871.1	21797
871.23	21899
871.36	22010
871.489	21987
871.619	22105
871.749	22109
871.879	22158
872.008	22211
872.138	22097
872.267	22086
872.397	21991
872.526	21865
872.656	21930
872.785	21926
872.915	22166
873.044	22147
873.173	22040
873.303	22211
873.432	22097
873.561	22131
873.69	22086
873.819	22204
873.948	22246
874.077	22158
874.206	22219
874.335	22067
874.464	22188
874.593	22421
874.722	22150
874.851	22223
874.979	22322
875.108	22318
875.237	22329
875.365	22223
875.494	22352
875.623	22310
875.751	22386
875.88	22341
876.008	22432
876.136	22455
876.265	22729
876.393	22881
876.521	22820
876.65	22797
876.778	22736
876.906	22702
877.034	22641
877.162	22664
877.29	22592
877.418	22603
877.546	22634
877.674	22603
877.802	22675
877.93	22592
878.058	22634
878.185	22538
878.313	22668
878.441	22679
878.568	22432
878.696	22615
878.824	22702
878.951	22733
879.079	22923
879.206	23037
879.333	22820
879.461	22592
879.588	22763
879.715	22862
879.842	22949
879.97	22752
880.097	22500
880.224	22443
880.351	22550
880.478	22542
880.605	22367
880.732	22398
880.859	22637
880.986	22531
881.112	22489
881.239	22287
881.366	22242
881.493	22169
881.619	22067
881.746	22006
881.872	22074
881.999	22036
882.125	22032
882.252	22177
882.378	21972
882.505	22070
882.631	21861
882.757	21766
882.883	21789
883.01	21705
883.136	21789
883.262	21622
883.388	21496
883.514	21690
883.64	21762
883.766	21652
883.892	21507
884.018	21466
884.143	21789
884.269	21564
884.395	21473
884.52	21245
884.646	21466
884.772	21272
884.897	21283
885.023	21313
885.148	21477
885.274	21580
885.399	21443
885.524	21367
885.65	21428
885.775	21408
885.9	21336
886.025	21591
886.15	21462
886.275	21428
886.4	21321
886.525	21393
886.65	21374
886.775	21279
886.9	21416
887.025	21477
887.149	21306
887.274	21123
887.399	21157
887.523	21119
887.648	21093
887.773	21096
887.897	21131
888.021	21199
888.146	21096
888.27	21226
888.395	21169
888.519	21131
888.643	21150
888.767	21165
888.891	21066
889.015	21032
889.139	21017
889.263	20929
889.387	21123
889.511	21157
889.635	21089
889.759	20967
889.883	20941
890.006	20914
890.13	21157
890.254	20975
890.377	20804
890.501	20689
890.624	20682
890.748	20720
890.871	20613
890.995	20488
891.118	20450
891.241	20587
891.364	20526
891.488	20568
891.611	20434
891.734	20495
891.857	20697
891.98	20518
892.103	20526
892.226	20522
892.349	20400
892.471	20385
892.594	20370
892.717	20355
892.839	20518
892.962	20552
893.085	20446
893.207	20427
893.33	20233
893.452	20366
893.575	20473
893.697	20495
893.819	20465
893.941	20651
894.064	20488
894.186	20355
894.308	20275
894.43	20575
894.552	20571
894.674	20533
894.796	20229
894.918	20301
895.04	20381
895.161	20419
895.283	20484
895.405	20278
895.526	20415
895.648	20362
895.769	20328
895.891	20412
896.012	20450
896.134	20438
896.255	20465
896.376	20355
896.498	20404
896.619	20446
896.74	20427
896.861	20503
896.982	20667
897.103	20937
897.224	20636
897.345	20629
897.466	20579
897.587	20651
897.708	20667
897.828	20712
897.949	20579
898.07	20442
898.19	20526
898.311	20811
898.431	20568
898.552	20564
898.672	20670
898.792	20678
898.913	20564
899.033	20374
899.153	20473
899.273	20381
899.393	20347
899.513	20385
899.633	20374
899.753	20385
899.873	20286
899.993	20434
900.113	20286
900.232	20328
900.352	20275
900.472	20267
900.591	20043
900.711	20191
900.83	20084
900.95	20168
901.069	20275
901.189	20039
901.308	19826
901.427	19704
901.546	19670
901.665	19742
901.784	19742
901.904	19578
902.023	19499
902.141	19301
902.26	19301
902.379	19293
902.498	19251
902.617	19179
902.735	19168
902.854	19133
902.973	19263
903.091	18894
903.21	18779
903.328	18977
903.446	18897
903.565	18665
903.683	18620
903.801	18684
903.919	18650
904.038	18707
904.156	18391
904.274	18456
904.392	18464
904.51	18437
904.627	18486
904.745	18445
904.863	18517
904.981	18388
905.098	18148
905.216	18174
905.334	18129
905.451	18152
905.569	18076
905.686	18247
905.803	18167
905.921	17931
906.038	18034
906.155	17946
906.272	17855
906.389	17946
906.506	17707
906.623	17802
906.74	17649
906.857	17604
906.974	17665
907.091	17691
907.208	17767
907.324	17634
907.441	17634
907.557	17414
907.674	17414
907.79	17337
907.907	17364
908.023	17467
908.139	17425
908.256	17349
908.372	17254
908.488	17292
908.604	17315
908.72	17132
908.836	17079
908.952	17132
909.068	17151
909.184	17284
909.3	17052
909.415	17159
909.531	17098
909.647	16847
909.762	16866
909.878	16809
909.993	16930
910.108	16668
910.224	16873
910.339	16850
910.454	16637
910.57	16603
910.685	16626
910.8	16763
910.915	16774
911.03	16641
911.145	16508
911.259	16352
911.374	16455
911.489	16375
911.604	16219
911.718	16147
911.833	16238
911.947	16112
912.062	16036
912.176	16109
912.291	16185
912.405	16135
912.519	16223
912.633	16295
912.748	16154
912.862	16154
912.976	15895
913.09	15865
913.204	15930
913.318	15934
913.431	16044
913.545	16078
913.659	16029
913.772	15964
913.886	15876
914	15789
914.113	15888
914.226	15876
914.34	15793
914.453	15663
914.566	15808
914.68	15618
914.793	15553
914.906	15515
915.019	15431
915.132	15359
915.245	15359
915.358	15420
915.47	15393
915.583	15363
915.696	15378
915.809	15523
915.921	15519
916.034	15283
916.146	15195
916.259	15287
916.371	15325
916.483	15351
916.595	15142
916.708	15310
916.82	15192
916.932	15081
917.044	15218
917.156	15135
917.268	14944
917.38	15100
917.491	14994
917.603	15001
917.715	15043
917.826	15138
917.938	15055
918.049	14819
918.161	14994
918.272	14979
918.384	15138
918.495	14994
918.606	14800
918.717	14785
918.828	14819
918.939	14815
919.05	14785
919.161	14720
919.272	14579
919.383	14545
919.494	14804
919.604	15024
919.715	14781
919.826	14689
919.936	14701
920.047	14857
920.157	14655
920.267	14929
920.378	14686
920.488	14598
920.598	15077
920.708	15077
920.818	14819
920.928	14864
921.038	15039
921.148	14982
921.258	14716
921.368	14625
921.477	14461
921.587	14457
921.697	14324
921.806	14480
921.916	14278
922.025	14183
922.134	14107
922.244	14024
922.353	14088
922.462	13967
922.571	13947
922.68	13674
922.789	13727
922.898	13833
923.007	13681
923.116	13776
923.224	13776
923.333	13708
923.442	13559
923.55	13491
923.659	13578
923.767	13662
923.876	13567
923.984	13658
924.092	13415
924.201	13480
924.309	13514
924.417	13460
924.525	13369
924.633	13426
924.741	14256
924.849	13168
924.956	13369
925.064	13209
925.172	13141
925.279	13053
925.387	13179
925.494	13194
925.602	13259
925.709	13171
925.816	13080
925.924	13069
926.031	13160
926.138	13065
926.245	13202
926.352	13031
926.459	13034
926.566	13285
926.673	12947
926.779	12947
926.886	12863
926.993	12749
927.099	12738
927.206	12597
927.312	12623
927.419	12787
927.525	12681
927.631	12677
927.737	12528
927.843	12662
927.95	12445
928.056	12544
928.162	12528
928.267	12574
928.373	13225
928.479	12566
928.585	12330
928.69	12498
928.796	12479
928.901	12384
929.007	12262
929.112	12357
929.218	12361
929.323	12186
929.428	12247
929.533	12384
929.638	12167
929.743	12194
929.848	12243
929.953	12247
930.058	12091
930.163	11961
930.267	11965
930.372	12068
930.477	11813
930.581	12171
930.685	11954
930.79	11779
930.894	11908
930.998	11802
931.103	11950
931.207	11611
931.311	11581
931.415	11448
931.519	11208
931.623	11246
