Data from test_V78500241_412.txt Node
Date: Fri Mar 25 15:44:39 CST 2022
User: usil
Spectrometer: V785-0024
Trigger mode: 0
Integration Time (sec): 4.000000E-1
Scans to average: 1
Nonlinearity correction enabled: false
Boxcar width: 0
Storing dark spectrum: false
XAxis mode: Wavelengths
Number of Pixels in Spectrum: 1024
>>>>>Begin Spectral Data<<<<<
801.071	28242
801.214	28226
801.356	27914
801.499	27975
801.641	27793
801.783	27934
801.926	27949
802.068	27812
802.211	27755
802.353	27812
802.496	27367
802.638	27443
802.78	27412
802.923	27344
803.065	27329
803.208	27298
803.35	27530
803.492	27530
803.635	27660
803.777	27378
803.919	27671
804.061	27762
804.204	27705
804.346	27622
804.488	27515
804.63	27526
804.773	27424
804.915	27603
805.057	27736
805.199	27686
805.341	27641
805.483	27774
805.626	27732
805.768	27469
805.91	27663
806.052	27682
806.194	27553
806.336	27816
806.478	27633
806.62	27694
806.762	27899
806.904	27987
807.046	28234
807.188	28051
807.33	28109
807.472	28112
807.614	28116
807.756	28010
807.898	27983
808.04	27949
808.182	27918
808.324	27873
808.465	27994
808.607	28059
808.749	28295
808.891	28394
809.033	28409
809.174	28341
809.316	28360
809.458	28299
809.6	28249
809.741	28375
809.883	28481
810.025	28447
810.166	28466
810.308	28546
810.45	28557
810.591	28550
810.733	28371
810.875	28333
811.016	28253
811.158	28314
811.299	28322
811.441	28394
811.582	28489
811.724	28276
811.865	28207
812.007	28325
812.148	28291
812.29	28310
812.431	28485
812.573	28615
812.714	28725
812.855	28771
812.997	28930
813.138	28927
813.279	28824
813.421	28812
813.562	28801
813.703	28607
813.845	28428
813.986	28268
814.127	28025
814.268	27949
814.41	27816
814.551	27633
814.692	27842
814.833	28010
814.974	27922
815.115	27861
815.256	27857
815.397	27774
815.539	27747
815.68	27652
815.821	27416
815.962	27705
816.103	27698
816.244	27599
816.385	27568
816.526	27458
816.666	27260
816.807	27104
816.948	27237
817.089	27260
817.23	27291
817.371	27214
817.512	27055
817.653	27032
817.793	27085
817.934	26998
818.075	27085
818.216	27146
818.356	27116
818.497	26990
818.638	26830
818.778	26914
818.919	26815
819.06	26868
819.2	26956
819.341	27093
819.481	26937
819.622	27252
819.762	27538
819.903	27367
820.043	27241
820.184	27233
820.324	27123
820.465	27256
820.605	27203
820.746	27180
820.886	27017
821.026	27119
821.167	27108
821.307	27055
821.447	27104
821.588	27013
821.728	26800
821.868	26648
822.008	26518
822.149	26518
822.289	26461
822.429	26183
822.569	26161
822.709	26134
822.849	26001
822.99	26020
823.13	25928
823.27	25917
823.41	25769
823.55	25788
823.69	25795
823.83	25757
823.97	25769
824.11	25635
824.25	25674
824.389	25506
824.529	25708
824.669	25677
824.809	25662
824.949	25788
825.089	25734
825.228	25635
825.368	25422
825.508	25384
825.648	25483
825.787	25514
825.927	25491
826.067	25403
826.206	25426
826.346	25548
826.485	25537
826.625	25502
826.765	25483
826.904	25411
827.044	25217
827.183	25190
827.323	25156
827.462	25148
827.601	25183
827.741	25152
827.88	25179
828.02	25031
828.159	25225
828.298	25152
828.437	25202
828.577	25076
828.716	25266
828.855	25080
828.994	24833
829.134	24722
829.273	24795
829.412	24661
829.551	24749
829.69	24852
829.829	24802
829.968	24882
830.107	24890
830.246	24757
830.385	24844
830.524	24681
830.663	24608
830.802	24521
830.941	24471
831.08	24350
831.219	24448
831.357	24456
831.496	24509
831.635	24304
831.774	24182
831.913	24220
832.051	24254
832.19	24106
832.329	24163
832.467	24068
832.606	24049
832.744	24007
832.883	24171
833.022	24144
833.16	24030
833.299	24026
833.437	24060
833.576	24102
833.714	23942
833.852	24129
833.991	24053
834.129	24095
834.267	24232
834.406	24091
834.544	24251
834.682	23977
834.821	23977
834.959	24311
835.097	23901
835.235	24159
835.373	23992
835.511	24018
835.65	23973
835.788	23980
835.926	23813
836.064	23798
836.202	23627
836.34	23920
836.478	23980
836.615	23828
836.753	23939
836.891	23958
837.029	23920
837.167	23920
837.305	23863
837.443	23741
837.58	23764
837.718	23824
837.856	23752
837.993	23718
838.131	23805
838.269	23592
838.406	23638
838.544	23611
838.681	23486
838.819	23341
838.956	23117
839.094	23159
839.231	23311
839.369	23303
839.506	23581
839.643	23463
839.781	23193
839.918	23132
840.055	23162
840.193	23029
840.33	23075
840.467	23239
840.604	23128
840.742	23364
840.879	22968
841.016	23140
841.153	22908
841.29	23208
841.427	23041
841.564	23124
841.701	22881
841.838	23018
841.975	23075
842.112	22953
842.249	22885
842.385	22805
842.522	23006
842.659	22820
842.796	22793
842.933	22797
843.069	22782
843.206	22656
843.343	22900
843.479	22801
843.616	22767
843.752	22584
843.889	22542
844.025	22710
844.162	22432
844.298	22645
844.435	22527
844.571	22504
844.708	22573
844.844	22641
844.98	22675
845.117	22607
845.253	22405
845.389	22436
845.525	22485
845.661	22337
845.798	22204
845.934	22451
846.07	22287
846.206	22337
846.342	22375
846.478	22135
846.614	22097
846.75	21937
846.886	21972
847.022	22086
847.158	22006
847.294	22120
847.429	22059
847.565	21964
847.701	22268
847.837	21705
847.972	21660
848.108	21854
848.244	21892
848.379	21675
848.515	21610
848.65	21568
848.786	21618
848.921	21481
849.057	21724
849.192	21705
849.328	21644
849.463	21545
849.598	21637
849.734	21469
849.869	21477
850.004	21397
850.14	21477
850.275	21348
850.41	21279
850.545	21287
850.68	21283
850.815	21500
850.95	21279
851.085	21488
851.22	21447
851.355	21374
851.49	21226
851.625	21313
851.76	21272
851.895	21195
852.03	21188
852.165	21252
852.299	21348
852.434	21393
852.569	21317
852.703	21313
852.838	21283
852.973	21473
853.107	21466
853.242	21340
853.376	21013
853.511	21116
853.645	21142
853.78	21310
853.914	21138
854.048	21009
854.183	21001
854.317	21089
854.451	21310
854.585	21119
854.72	21051
854.854	21077
854.988	21009
855.122	21245
855.256	21051
855.39	21230
855.524	21135
855.658	21074
855.792	21154
855.926	21077
856.06	21184
856.194	21161
856.327	21176
856.461	21039
856.595	21077
856.729	21055
856.862	21268
856.996	21138
857.13	21146
857.263	21233
857.397	21161
857.53	21070
857.664	21207
857.797	21173
857.931	21241
858.064	21108
858.197	21195
858.331	21013
858.464	21032
858.597	21024
858.731	21036
858.864	20975
858.997	21066
859.13	21146
859.263	21161
859.396	21188
859.529	20971
859.662	20998
859.795	21096
859.928	21188
860.061	21260
860.194	21283
860.327	21230
860.46	21150
860.592	21146
860.725	21135
860.858	21226
860.99	21195
861.123	20891
861.256	21036
861.388	21047
861.521	21633
861.653	20853
861.786	20876
861.918	21036
862.05	20982
862.183	21005
862.315	21058
862.447	21135
862.58	20975
862.712	20925
862.844	20842
862.976	20929
863.108	20963
863.24	21268
863.372	20758
863.504	20777
863.636	20826
863.768	20853
863.9	20750
864.032	20708
864.164	20765
864.296	20849
864.428	20834
864.559	20765
864.691	20895
864.823	20830
864.954	20811
865.086	20781
865.217	20765
865.349	20579
865.48	20834
865.612	20750
865.743	20807
865.875	20644
866.006	20682
866.137	20735
866.269	20724
866.4	20693
866.531	20575
866.662	20552
866.793	20606
866.924	20545
867.055	20674
867.186	20670
867.317	20556
867.448	20613
867.579	20720
867.71	20629
867.841	20404
867.972	20579
868.103	20648
868.233	20644
868.364	20689
868.495	20636
868.625	20887
868.756	20918
868.886	20819
869.017	20952
869.147	20941
869.278	20963
869.408	20971
869.539	20815
869.669	20834
869.799	20864
869.929	20990
870.06	20914
870.19	21241
870.32	21020
870.45	21176
870.58	21363
870.71	21348
870.84	21344
870.97	21180
871.1	21123
871.23	21485
871.36	21572
871.489	21344
871.619	21367
871.749	21439
871.879	21447
872.008	21564
872.138	21625
872.267	21420
872.397	21294
872.526	21237
872.656	21336
872.785	21317
872.915	21382
873.044	21466
873.173	21435
873.303	21519
873.432	21469
873.561	21549
873.69	21545
873.819	21397
873.948	21507
874.077	21580
874.206	21488
874.335	21454
874.464	21606
874.593	21785
874.722	21618
874.851	21831
874.979	21724
875.108	21838
875.237	21698
875.365	21523
875.494	21610
875.623	21732
875.751	21656
875.88	21743
876.008	21736
876.136	21899
876.265	22177
876.393	22234
876.521	22044
876.65	22192
876.778	22048
876.906	22063
877.034	21994
877.162	22070
877.29	21998
877.418	22074
877.546	22044
877.674	22040
877.802	22147
877.93	22124
878.058	22101
878.185	21934
878.313	22105
878.441	22169
878.568	21888
878.696	22086
878.824	22048
878.951	22223
879.079	22303
879.206	22386
879.333	22204
879.461	22120
879.588	22207
879.715	22181
879.842	22253
879.97	22166
880.097	21934
880.224	21975
880.351	21949
880.478	21964
880.605	21789
880.732	21793
880.859	22082
880.986	21888
881.112	21911
881.239	21804
881.366	21610
881.493	21591
881.619	21507
881.746	21443
881.872	21443
881.999	21549
882.125	21397
882.252	21458
882.378	21447
882.505	21591
882.631	21249
882.757	21165
882.883	21294
883.01	21351
883.136	21176
883.262	21089
883.388	21119
883.514	21176
883.64	21230
883.766	21093
883.892	20899
884.018	20956
884.143	21154
884.269	21283
884.395	20956
884.52	20849
884.646	20785
884.772	20758
884.897	20701
885.023	20823
885.148	20960
885.274	21001
885.399	20872
885.524	20834
885.65	20804
885.775	20872
885.9	20861
886.025	20899
886.15	20982
886.275	20773
886.4	20804
886.525	20819
886.65	20659
886.775	20807
886.9	20887
887.025	20986
887.149	20830
887.274	20537
887.399	20560
887.523	20461
887.648	20575
887.773	20495
887.897	20648
888.021	20632
888.146	20606
888.27	20674
888.395	20636
888.519	20385
888.643	20659
888.767	20473
888.891	20415
889.015	20377
889.139	20339
889.263	20355
889.387	20484
889.511	20541
889.635	20507
889.759	20336
889.883	20324
890.006	20362
890.13	20492
890.254	20347
890.377	20305
890.501	20229
890.624	20107
890.748	20191
890.871	20046
890.995	19875
891.118	19951
891.241	19917
891.364	19967
891.488	20027
891.611	19947
891.734	19959
891.857	20027
891.98	19902
892.103	20016
892.226	19963
892.349	19902
892.471	19753
892.594	19833
892.717	19822
892.839	19841
892.962	19799
893.085	19898
893.207	19879
893.33	19719
893.452	19788
893.575	19826
893.697	19830
893.819	20027
893.941	20046
894.064	19967
894.186	19772
894.308	19769
894.43	19822
894.552	19932
894.674	19940
894.796	19780
894.918	19856
895.04	19761
895.161	19921
895.283	19902
895.405	19776
895.526	19906
895.648	19811
895.769	19871
895.891	19951
896.012	19974
896.134	20024
896.255	19868
896.376	19860
896.498	19932
896.619	19868
896.74	19894
896.861	19925
896.982	20172
897.103	20473
897.224	20115
897.345	20115
897.466	20073
897.587	20043
897.708	20248
897.828	20168
897.949	19974
898.07	19826
898.19	20035
898.311	20237
898.431	20043
898.552	20058
898.672	20187
898.792	20195
898.913	20065
899.033	19936
899.153	19989
899.273	19822
899.393	19776
899.513	19875
899.633	19841
899.753	19822
899.873	19883
899.993	19856
900.113	19647
900.232	19746
900.352	19639
900.472	19696
900.591	19529
900.711	19632
900.83	19506
900.95	19742
901.069	19772
901.189	19495
901.308	19312
901.427	19251
901.546	19285
901.665	19255
901.784	19251
901.904	19012
902.023	18973
902.141	18661
902.26	18623
902.379	18833
902.498	18719
902.617	18650
902.735	18814
902.854	18677
902.973	18582
903.091	18403
903.21	18391
903.328	18308
903.446	18334
903.565	18155
903.683	18186
903.801	18053
903.919	18163
904.038	18167
904.156	18030
904.274	18114
904.392	18034
904.51	17916
904.627	18007
904.745	17946
904.863	17885
904.981	17836
905.098	17611
905.216	17589
905.334	17661
905.451	17543
905.569	17608
905.686	17627
905.803	17630
905.921	17440
906.038	17417
906.155	17429
906.272	17326
906.389	17269
906.506	17204
906.623	17098
906.74	17185
906.857	17052
906.974	16980
907.091	17220
907.208	17402
907.324	17193
907.441	17075
907.557	16949
907.674	16927
907.79	16767
907.907	16869
908.023	16858
908.139	16824
908.256	16675
908.372	16717
908.488	16774
908.604	16656
908.72	16523
908.836	16622
908.952	16478
909.068	16637
909.184	16672
909.3	16531
909.415	16679
909.531	16527
909.647	16379
909.762	16287
909.878	16185
909.993	16287
910.108	16242
910.224	16261
910.339	16192
910.454	16150
910.57	16090
910.685	16010
910.8	16272
910.915	16303
911.03	16147
911.145	16006
911.259	15899
911.374	15797
911.489	15884
911.604	15728
911.718	15477
911.833	15523
911.947	15424
912.062	15519
912.176	15629
912.291	15603
912.405	15660
912.519	15812
912.633	15762
912.748	15591
912.862	15553
912.976	15416
913.09	15302
913.204	15397
913.318	15462
913.431	15549
913.545	15500
913.659	15507
913.772	15302
913.886	15249
914	15275
914.113	15351
914.226	15291
914.34	15363
914.453	15135
914.566	15287
914.68	15192
914.793	15165
914.906	14819
915.019	14933
915.132	14849
915.245	14811
915.358	14826
915.47	14861
915.583	14861
915.696	14864
915.809	14971
915.921	14906
916.034	14819
916.146	14693
916.259	14765
916.371	14731
916.483	14899
916.595	14674
916.708	14678
916.82	14644
916.932	14663
917.044	14606
917.156	14705
917.268	14526
917.38	14537
917.491	14495
917.603	14465
917.715	14476
917.826	14648
917.938	14328
918.049	14339
918.161	14457
918.272	14598
918.384	14621
918.495	14488
918.606	14355
918.717	14286
918.828	14328
918.939	14317
919.05	14161
919.161	14313
919.272	14065
919.383	14138
919.494	14206
919.604	14465
919.715	14256
919.826	14126
919.936	14138
920.047	14347
920.157	14248
920.267	14473
920.378	14256
920.488	14145
920.598	14461
920.708	14434
920.818	14343
920.928	14339
921.038	14488
921.148	14389
921.258	14191
921.368	14119
921.477	13989
921.587	14012
921.697	13795
921.806	14054
921.916	13845
922.025	13685
922.134	13639
922.244	13571
922.353	13662
922.462	13521
922.571	13441
922.68	13350
922.789	13282
922.898	13297
923.007	13206
923.116	13247
923.224	13225
923.333	13217
923.442	13152
923.55	12989
923.659	13084
923.767	13202
923.876	13023
923.984	13114
924.092	12951
924.201	13088
924.309	13031
924.417	13072
924.525	12947
924.633	12901
924.741	13746
924.849	12726
924.956	12844
925.064	12772
925.172	12582
925.279	12688
925.387	12711
925.494	12734
925.602	12791
925.709	12715
925.816	12574
925.924	12726
926.031	12719
926.138	12741
926.245	12726
926.352	12601
926.459	12597
926.566	12623
926.673	12555
926.779	12506
926.886	12456
926.993	12342
927.099	12266
927.206	12251
927.312	12186
927.419	12175
927.525	12239
927.631	12319
927.737	12220
927.843	12038
927.95	11954
928.056	12129
928.162	12121
928.267	12129
928.373	12730
928.479	12155
928.585	11935
928.69	12026
928.796	12060
928.901	11980
929.007	11809
929.112	11980
929.218	11897
929.323	11882
929.428	11821
929.533	11942
929.638	11821
929.743	11764
929.848	11729
929.953	11722
930.058	11703
930.163	11528
930.267	11505
930.372	11676
930.477	11436
930.581	11756
930.685	11493
930.79	11387
930.894	11486
930.998	11368
931.103	11402
931.207	11162
931.311	11003
931.415	11010
931.519	10835
931.623	10706
