Data from test_V78500241_3214.txt Node
Date: Fri Mar 25 16:04:03 CST 2022
User: usil
Spectrometer: V785-0024
Trigger mode: 0
Integration Time (sec): 4.000000E-1
Scans to average: 1
Nonlinearity correction enabled: false
Boxcar width: 0
Storing dark spectrum: false
XAxis mode: Wavelengths
Number of Pixels in Spectrum: 1024
>>>>>Begin Spectral Data<<<<<
801.071	28862
801.214	28729
801.356	28535
801.499	28531
801.641	28394
801.783	28573
801.926	28611
802.068	28531
802.211	28257
802.353	28360
802.496	28291
802.638	28249
802.78	28147
802.923	28097
803.065	27911
803.208	28048
803.35	28185
803.492	28322
803.635	28356
803.777	28196
803.919	28459
804.061	28717
804.204	28398
804.346	28329
804.488	28291
804.63	28409
804.773	28249
804.915	28535
805.057	28584
805.199	28493
805.341	28386
805.483	28557
805.626	28542
805.768	28504
805.91	28489
806.052	28519
806.194	28428
806.336	28706
806.478	28523
806.62	28622
806.762	28618
806.904	28908
807.046	29086
807.188	29113
807.33	28930
807.472	29067
807.614	28938
807.756	28961
807.898	28972
808.04	28767
808.182	28854
808.324	28854
808.465	28965
808.607	29071
808.749	29356
808.891	29364
809.033	29315
809.174	29349
809.316	29105
809.458	29284
809.6	29140
809.741	29444
809.883	29265
810.025	29581
810.166	29573
810.308	29592
810.45	29505
810.591	29417
810.733	29121
810.875	29242
811.016	29136
811.158	29235
811.299	29452
811.441	29414
811.582	29440
811.724	29296
811.865	29322
812.007	29387
812.148	29265
812.29	29406
812.431	29311
812.573	29585
812.714	29851
812.855	29885
812.997	29939
813.138	30087
813.279	29923
813.421	29733
813.562	29623
813.703	29440
813.845	29478
813.986	29311
814.127	29136
814.268	29094
814.41	28965
814.551	28934
814.692	29018
814.833	28949
814.974	29014
815.115	29022
815.256	28972
815.397	28968
815.539	28927
815.68	28896
815.821	28687
815.962	28828
816.103	28820
816.244	28573
816.385	28592
816.526	28565
816.666	28409
816.807	28188
816.948	28348
817.089	28226
817.23	28352
817.371	28367
817.512	28341
817.653	28173
817.793	28257
817.934	28367
818.075	28363
818.216	28223
818.356	28143
818.497	28276
818.638	28105
818.778	28002
818.919	28002
819.06	28010
819.2	28265
819.341	28318
819.481	28417
819.622	28398
819.762	28611
819.903	28508
820.043	28428
820.184	28523
820.324	28668
820.465	28447
820.605	28451
820.746	28569
820.886	28356
821.026	28379
821.167	28314
821.307	28428
821.447	28234
821.588	28287
821.728	28063
821.868	27975
822.008	27781
822.149	27705
822.289	27641
822.429	27496
822.569	27447
822.709	27507
822.849	27294
822.99	27374
823.13	27359
823.27	27302
823.41	27085
823.55	26921
823.69	27127
823.83	27146
823.97	27017
824.11	27043
824.25	27017
824.389	26853
824.529	26986
824.669	26963
824.809	26971
824.949	27005
825.089	27146
825.228	27036
825.368	26849
825.508	26834
825.648	26864
825.787	26902
825.927	26975
826.067	26845
826.206	26944
826.346	26853
826.485	26830
826.625	26788
826.765	26895
826.904	26925
827.044	26655
827.183	26499
827.323	26514
827.462	26484
827.601	26689
827.741	26499
827.88	26473
828.02	26438
828.159	26526
828.298	26575
828.437	26636
828.577	26427
828.716	26575
828.855	26526
828.994	26244
829.134	26366
829.273	26339
829.412	26202
829.551	26134
829.69	26210
829.829	26172
829.968	26385
830.107	26309
830.246	26271
830.385	26225
830.524	26172
830.663	26164
830.802	25925
830.941	25852
831.08	25845
831.219	26058
831.357	25944
831.496	26248
831.635	25852
831.774	25791
831.913	25647
832.051	25776
832.19	25750
832.329	25795
832.467	25483
832.606	25540
832.744	25495
832.883	25590
833.022	25616
833.16	25411
833.299	25518
833.437	25590
833.576	25757
833.714	25594
833.852	25704
833.991	25556
834.129	25693
834.267	25662
834.406	25613
834.544	25738
834.682	25639
834.821	25548
834.959	25727
835.097	25632
835.235	25620
835.373	25491
835.511	25457
835.65	25460
835.788	25495
835.926	25282
836.064	25107
836.202	25202
836.34	25529
836.478	25556
836.615	25430
836.753	25514
836.891	25510
837.029	25377
837.167	25327
837.305	25285
837.443	25377
837.58	25301
837.718	25244
837.856	25221
837.993	25164
838.131	25240
838.269	25194
838.406	25148
838.544	25133
838.681	24848
838.819	24905
838.956	24673
839.094	24688
839.231	24639
839.369	24947
839.506	25061
839.643	24992
839.781	24798
839.918	24658
840.055	24642
840.193	24658
840.33	24566
840.467	24528
840.604	24700
840.742	24894
840.879	24483
841.016	24559
841.153	24464
841.29	24772
841.427	24601
841.564	24601
841.701	24578
841.838	24521
841.975	24589
842.112	24380
842.249	24456
842.385	24361
842.522	24563
842.659	24517
842.796	24357
842.933	24350
843.069	24350
843.206	24365
843.343	24445
843.479	24490
843.616	24369
843.752	24136
843.889	24125
844.025	24209
844.162	24098
844.298	24182
844.435	24098
844.571	24102
844.708	24068
844.844	24262
844.98	24262
845.117	24254
845.253	24182
845.389	23870
845.525	24049
845.661	24026
845.798	23874
845.934	23847
846.07	23996
846.206	23946
846.342	23889
846.478	23866
846.614	23687
846.75	23596
846.886	23562
847.022	23649
847.158	23672
847.294	23509
847.429	23764
847.565	23573
847.701	23767
847.837	23353
847.972	23292
848.108	23311
848.244	23425
848.379	23220
848.515	23193
848.65	23303
848.786	23227
848.921	23181
849.057	23330
849.192	23227
849.328	23246
849.463	23147
849.598	23181
849.734	22984
849.869	22972
850.004	22919
850.14	23025
850.275	23029
850.41	22778
850.545	22869
850.68	22790
850.815	23052
850.95	23033
851.085	23006
851.22	23094
851.355	22927
851.49	23041
851.625	22869
851.76	22980
851.895	22904
852.03	22930
852.165	22869
852.299	23037
852.434	23143
852.569	22949
852.703	22877
852.838	22984
852.973	23075
853.107	22980
853.242	22824
853.376	22774
853.511	22675
853.645	22740
853.78	22858
853.914	22763
854.048	22797
854.183	22641
854.317	22763
854.451	22862
854.585	22786
854.72	22694
854.854	22797
854.988	22736
855.122	22809
855.256	22660
855.39	22748
855.524	22725
855.658	22892
855.792	22729
855.926	22767
856.06	22672
856.194	22809
856.327	22828
856.461	22691
856.595	22672
856.729	22752
856.862	22702
856.996	22919
857.13	22843
857.263	22809
857.397	22877
857.53	22691
857.664	22816
857.797	22793
857.931	22824
858.064	22835
858.197	22763
858.331	22839
858.464	22736
858.597	22683
858.731	22710
858.864	22675
858.997	22774
859.13	22767
859.263	22828
859.396	22828
859.529	22649
859.662	22687
859.795	22645
859.928	22748
860.061	22801
860.194	22934
860.327	22847
860.46	22835
860.592	22930
860.725	22881
860.858	22984
860.99	22816
861.123	22683
861.256	22645
861.388	22771
861.521	23455
861.653	22596
861.786	22672
861.918	22607
862.05	22656
862.183	22668
862.315	22717
862.447	22752
862.58	22637
862.712	22421
862.844	22337
862.976	22546
863.108	22550
863.24	22835
863.372	22417
863.504	22497
863.636	22417
863.768	22523
863.9	22489
864.032	22333
864.164	22318
864.296	22481
864.428	22542
864.559	22497
864.691	22440
864.823	22466
864.954	22402
865.086	22413
865.217	22432
865.349	22325
865.48	22417
865.612	22409
865.743	22443
865.875	22413
866.006	22284
866.137	22322
866.269	22398
866.4	22257
866.531	22234
866.662	22204
866.793	22246
866.924	22268
867.055	22223
867.186	22223
867.317	22234
867.448	22325
867.579	22352
867.71	22139
867.841	22207
867.972	22284
868.103	22192
868.233	22284
868.364	22261
868.495	22333
868.625	22554
868.756	22550
868.886	22500
869.017	22409
869.147	22481
869.278	22748
869.408	22565
869.539	22557
869.669	22523
869.799	22630
869.929	22672
870.06	22550
870.19	22938
870.32	22660
870.45	22847
870.58	22915
870.71	22927
870.84	22919
870.97	22923
871.1	22968
871.23	23010
871.36	22965
871.489	23041
871.619	23056
871.749	23136
871.879	23159
872.008	23269
872.138	23159
872.267	23041
872.397	23075
872.526	22831
872.656	22927
872.785	22892
872.915	23208
873.044	23220
873.173	23162
873.303	23132
873.432	23258
873.561	23246
873.69	23140
873.819	23155
873.948	23261
874.077	23090
874.206	23151
874.335	23105
874.464	23181
874.593	23429
874.722	23341
874.851	23440
874.979	23315
875.108	23296
875.237	23341
875.365	23265
875.494	23288
875.623	23433
875.751	23349
875.88	23471
876.008	23421
876.136	23581
876.265	23710
876.393	23802
876.521	23805
876.65	23786
876.778	23794
876.906	23573
877.034	23661
877.162	23676
877.29	23596
877.418	23707
877.546	23699
877.674	23665
877.802	23691
877.93	23665
878.058	23646
878.185	23448
878.313	23630
878.441	23756
878.568	23585
878.696	23630
878.824	23745
878.951	23676
879.079	23813
879.206	24011
879.333	23980
879.461	23805
879.588	23714
879.715	23843
879.842	23904
879.97	23821
880.097	23539
880.224	23372
880.351	23516
880.478	23474
880.605	23516
880.732	23421
880.859	23764
880.986	23524
881.112	23516
881.239	23395
881.366	23334
881.493	23208
881.619	23197
881.746	23075
881.872	22991
881.999	23003
882.125	22953
882.252	22991
882.378	23083
882.505	23223
882.631	22984
882.757	22793
882.883	22869
883.01	22691
883.136	22710
883.262	22485
883.388	22611
883.514	22774
883.64	22687
883.766	22550
883.892	22542
884.018	22424
884.143	22649
884.269	22672
884.395	22512
884.52	22299
884.646	22348
884.772	22265
884.897	22246
885.023	22451
885.148	22375
885.274	22535
885.399	22352
885.524	22360
885.65	22413
885.775	22379
885.9	22352
886.025	22249
886.15	22367
886.275	22215
886.4	22181
886.525	22356
886.65	22295
886.775	22230
886.9	22405
887.025	22546
887.149	22329
887.274	22029
887.399	22131
887.523	22124
887.648	22067
887.773	21949
887.897	22093
888.021	22200
888.146	22169
888.27	22166
888.395	22181
888.519	22135
888.643	22234
888.767	21960
888.891	21949
889.015	21850
889.139	21918
889.263	21785
889.387	21937
889.511	22059
889.635	21953
889.759	21876
889.883	21800
890.006	21937
890.13	21873
890.254	21831
890.377	21835
890.501	21606
890.624	21561
890.748	21530
890.871	21530
890.995	21420
891.118	21454
891.241	21439
891.364	21367
891.488	21572
891.611	21473
891.734	21313
891.857	21507
891.98	21386
892.103	21519
892.226	21435
892.349	21416
892.471	21256
892.594	21355
892.717	21443
892.839	21184
892.962	21344
893.085	21348
893.207	21313
893.33	21264
893.452	21245
893.575	21405
893.697	21279
893.819	21431
893.941	21568
894.064	21450
894.186	21135
894.308	21230
894.43	21428
894.552	21439
894.674	21431
894.796	21207
894.918	21439
895.04	21275
895.161	21291
895.283	21321
895.405	21176
895.526	21260
895.648	21275
895.769	21294
895.891	21252
896.012	21325
896.134	21245
896.255	21306
896.376	21226
896.498	21268
896.619	21287
896.74	21294
896.861	21260
896.982	21561
897.103	21618
897.224	21496
897.345	21492
897.466	21576
897.587	21485
897.708	21595
897.828	21504
897.949	21344
898.07	21340
898.19	21504
898.311	21641
898.431	21348
898.552	21454
898.672	21614
898.792	21557
898.913	21488
899.033	21348
899.153	21310
899.273	21268
899.393	21382
899.513	21298
899.633	21249
899.753	21233
899.873	21146
899.993	21127
900.113	21055
900.232	21081
900.352	21131
900.472	20975
900.591	20895
900.711	21005
900.83	20834
900.95	20994
901.069	20986
901.189	20819
901.308	20697
901.427	20526
901.546	20507
901.665	20670
901.784	20705
901.904	20286
902.023	20271
902.141	20092
902.26	20119
902.379	20126
902.498	20081
902.617	19955
902.735	19967
902.854	20024
902.973	19909
903.091	19780
903.21	19719
903.328	19696
903.446	19666
903.565	19422
903.683	19499
903.801	19403
903.919	19354
904.038	19472
904.156	19152
904.274	19320
904.392	19263
904.51	19259
904.627	19152
904.745	19187
904.863	19324
904.981	18993
905.098	18954
905.216	18886
905.334	18848
905.451	19000
905.569	18806
905.686	18951
905.803	18958
905.921	18684
906.038	18856
906.155	18677
906.272	18582
906.389	18639
906.506	18517
906.623	18521
906.74	18422
906.857	18426
906.974	18380
907.091	18483
907.208	18464
907.324	18437
907.441	18403
907.557	18194
907.674	18095
907.79	18053
907.907	18019
908.023	18216
908.139	18125
908.256	18022
908.372	17980
908.488	18076
908.604	17824
908.72	17752
908.836	17790
908.952	17824
909.068	17828
909.184	17984
909.3	17870
909.415	17870
909.531	17878
909.647	17699
909.762	17608
909.878	17501
909.993	17436
910.108	17520
910.224	17440
910.339	17551
910.454	17292
910.57	17341
910.685	17242
910.8	17623
910.915	17429
911.03	17341
911.145	17166
911.259	17204
911.374	17105
911.489	17113
911.604	16953
911.718	16976
911.833	16740
911.947	16706
912.062	16793
912.176	16873
912.291	16896
912.405	16911
912.519	17029
912.633	16976
912.748	16835
912.862	16847
912.976	16577
913.09	16618
913.204	16630
913.318	16733
913.431	16691
913.545	16797
913.659	16805
913.772	16634
913.886	16527
914	16466
914.113	16500
914.226	16577
914.34	16519
914.453	16356
914.566	16489
914.68	16337
914.793	16318
914.906	16196
915.019	16029
915.132	15987
915.245	15968
915.358	16093
915.47	16025
915.583	15991
915.696	16040
915.809	16112
915.921	16181
916.034	15892
916.146	16006
916.259	15945
916.371	15949
916.483	16002
916.595	15949
916.708	15907
916.82	15816
916.932	15751
917.044	15709
917.156	15705
917.268	15637
917.38	15679
917.491	15603
917.603	15736
917.715	15732
917.826	15652
917.938	15641
918.049	15420
918.161	15713
918.272	15705
918.384	15736
918.495	15526
918.606	15412
918.717	15359
918.828	15393
918.939	15340
919.05	15321
919.161	15416
919.272	15154
919.383	15287
919.494	15397
919.604	15538
919.715	15317
919.826	15245
919.936	15401
920.047	15367
920.157	15332
920.267	15523
920.378	15325
920.488	15431
920.598	15458
920.708	15572
920.818	15488
920.928	15481
921.038	15644
921.148	15454
921.258	15256
921.368	15165
921.477	15131
921.587	15028
921.697	14906
921.806	14956
921.916	14910
922.025	14765
922.134	14636
922.244	14598
922.353	14674
922.462	14587
922.571	14431
922.68	14309
922.789	14412
922.898	14328
923.007	14256
923.116	14362
923.224	14244
923.333	14313
923.442	14206
923.55	14084
923.659	14130
923.767	14240
923.876	14119
923.984	14195
924.092	14130
924.201	14168
924.309	14096
924.417	14058
924.525	14020
924.633	13963
924.741	14769
924.849	13636
924.956	13982
925.064	13723
925.172	13693
925.279	13624
925.387	13636
925.494	13742
925.602	13772
925.709	13704
925.816	13544
925.924	13609
926.031	13746
926.138	13559
926.245	13761
926.352	13464
926.459	13696
926.566	13639
926.673	13548
926.779	13392
926.886	13487
926.993	13274
927.099	13343
927.206	13202
927.312	13217
927.419	13221
927.525	13213
927.631	13266
927.737	13194
927.843	13133
927.95	12954
928.056	13031
928.162	13076
928.267	13065
928.373	13540
928.479	13152
928.585	12837
928.69	12962
928.796	12981
928.901	12833
929.007	12779
929.112	12867
929.218	12882
929.323	12947
929.428	12719
929.533	12909
929.638	12707
929.743	12700
929.848	12779
929.953	12631
930.058	12551
930.163	12391
930.267	12486
930.372	12574
930.477	12380
930.581	12604
930.685	12475
930.79	12262
930.894	12308
930.998	12228
931.103	12372
931.207	12087
931.311	11992
931.415	11885
931.519	11745
931.623	11581
