Data from test_V78500241_3533.txt Node
Date: Fri Mar 25 16:06:16 CST 2022
User: usil
Spectrometer: V785-0024
Trigger mode: 0
Integration Time (sec): 4.000000E-1
Scans to average: 1
Nonlinearity correction enabled: false
Boxcar width: 0
Storing dark spectrum: false
XAxis mode: Wavelengths
Number of Pixels in Spectrum: 1024
>>>>>Begin Spectral Data<<<<<
801.071	28839
801.214	28771
801.356	28542
801.499	28588
801.641	28443
801.783	28512
801.926	28413
802.068	28428
802.211	28379
802.353	28287
802.496	28097
802.638	28070
802.78	28070
802.923	27953
803.065	27770
803.208	27956
803.35	28010
803.492	28242
803.635	28409
803.777	28177
803.919	28299
804.061	28573
804.204	28470
804.346	28299
804.488	28147
804.63	28344
804.773	28272
804.915	28287
805.057	28516
805.199	28352
805.341	28459
805.483	28557
805.626	28474
805.768	28379
805.91	28478
806.052	28550
806.194	28390
806.336	28618
806.478	28512
806.62	28561
806.762	28653
806.904	28725
807.046	29086
807.188	28987
807.33	28873
807.472	28900
807.614	28797
807.756	28862
807.898	28915
808.04	28805
808.182	28771
808.324	28892
808.465	28946
808.607	29041
808.749	29147
808.891	29189
809.033	29265
809.174	29345
809.316	29212
809.458	29292
809.6	29064
809.741	29288
809.883	29429
810.025	29421
810.166	29543
810.308	29452
810.45	29402
810.591	29547
810.733	29330
810.875	29254
811.016	29105
811.158	29254
811.299	29417
811.441	29322
811.582	29444
811.724	29402
811.865	29124
812.007	29185
812.148	29280
812.29	29261
812.431	29440
812.573	29478
812.714	29520
812.855	29672
812.997	29828
813.138	29859
813.279	29920
813.421	29817
813.562	29680
813.703	29531
813.845	29440
813.986	29185
814.127	29052
814.268	28862
814.41	28923
814.551	28812
814.692	28987
814.833	28843
814.974	28938
815.115	28999
815.256	28736
815.397	28976
815.539	28831
815.68	28767
815.821	28706
815.962	28729
816.103	28729
816.244	28603
816.385	28527
816.526	28531
816.666	28261
816.807	28272
816.948	28363
817.089	28303
817.23	28188
817.371	28181
817.512	28223
817.653	28272
817.793	28215
817.934	28169
818.075	28135
818.216	28386
818.356	28207
818.497	28246
818.638	27949
818.778	28032
818.919	28158
819.06	28192
819.2	28166
819.341	28188
819.481	28211
819.622	28291
819.762	28759
819.903	28493
820.043	28497
820.184	28421
820.324	28451
820.465	28401
820.605	28375
820.746	28344
820.886	28265
821.026	28325
821.167	28272
821.307	28310
821.447	28367
821.588	28363
821.728	28143
821.868	27918
822.008	27800
822.149	27663
822.289	27778
822.429	27447
822.569	27496
822.709	27530
822.849	27199
822.99	27359
823.13	27302
823.27	27047
823.41	26906
823.55	26914
823.69	27146
823.83	27085
823.97	26948
824.11	26849
824.25	26944
824.389	26887
824.529	26960
824.669	26887
824.809	26815
824.949	26906
825.089	26883
825.228	26952
825.368	26754
825.508	26655
825.648	26842
825.787	26880
825.927	26883
826.067	26781
826.206	26640
826.346	26883
826.485	26925
826.625	26842
826.765	26914
826.904	26834
827.044	26476
827.183	26579
827.323	26480
827.462	26473
827.601	26495
827.741	26587
827.88	26556
828.02	26396
828.159	26465
828.298	26473
828.437	26484
828.577	26393
828.716	26724
828.855	26358
828.994	26317
829.134	26126
829.273	26199
829.412	26233
829.551	26218
829.69	26153
829.829	26168
829.968	26199
830.107	26252
830.246	26119
830.385	26130
830.524	26020
830.663	26050
830.802	25978
830.941	25696
831.08	25795
831.219	25913
831.357	26054
831.496	26062
831.635	25849
831.774	25704
831.913	25696
832.051	25632
832.19	25540
832.329	25499
832.467	25472
832.606	25434
832.744	25400
832.883	25476
833.022	25457
833.16	25445
833.299	25472
833.437	25491
833.576	25499
833.714	25533
833.852	25472
833.991	25571
834.129	25590
834.267	25635
834.406	25537
834.544	25616
834.682	25464
834.821	25495
834.959	25575
835.097	25479
835.235	25647
835.373	25346
835.511	25674
835.65	25400
835.788	25312
835.926	25145
836.064	25141
836.202	25168
836.34	25373
836.478	25346
836.615	25320
836.753	25327
836.891	25502
837.029	25285
837.167	25225
837.305	25308
837.443	25232
837.58	25148
837.718	25384
837.856	25316
837.993	25183
838.131	25183
838.269	24970
838.406	25038
838.544	24954
838.681	24848
838.819	24760
838.956	24578
839.094	24757
839.231	24696
839.369	24810
839.506	25015
839.643	24928
839.781	24597
839.918	24494
840.055	24673
840.193	24551
840.33	24448
840.467	24517
840.604	24604
840.742	24715
840.879	24399
841.016	24464
841.153	24380
841.29	24597
841.427	24464
841.564	24665
841.701	24563
841.838	24544
841.975	24369
842.112	24403
842.249	24277
842.385	24376
842.522	24418
842.659	24342
842.796	24304
842.933	24209
843.069	24220
843.206	24361
843.343	24254
843.479	24292
843.616	24338
843.752	24209
843.889	24098
844.025	24239
844.162	24114
844.298	24159
844.435	24125
844.571	24015
844.708	23984
844.844	24205
844.98	24224
845.117	24213
845.253	23904
845.389	23931
845.525	24015
845.661	23904
845.798	23904
845.934	23889
846.07	23798
846.206	23733
846.342	23859
846.478	23927
846.614	23619
846.75	23337
846.886	23577
847.022	23676
847.158	23528
847.294	23585
847.429	23493
847.565	23486
847.701	23817
847.837	23170
847.972	23204
848.108	23345
848.244	23421
848.379	23094
848.515	23041
848.65	23060
848.786	23117
848.921	23136
849.057	23216
849.192	23197
849.328	23250
849.463	23140
849.598	23071
849.734	23014
849.869	22953
850.004	22904
850.14	22801
850.275	22736
850.41	22790
850.545	22790
850.68	22866
850.815	22801
850.95	22892
851.085	23181
851.22	23025
851.355	22858
851.49	22847
851.625	22900
851.76	22915
851.895	22873
852.03	22717
852.165	22824
852.299	22919
852.434	22991
852.569	22919
852.703	22850
852.838	22923
852.973	22934
853.107	23067
853.242	22668
853.376	22740
853.511	22466
853.645	22656
853.78	22847
853.914	22763
854.048	22668
854.183	22721
854.317	22736
854.451	23003
854.585	22957
854.72	22706
854.854	22702
854.988	22561
855.122	22835
855.256	22535
855.39	22725
855.524	22816
855.658	22725
855.792	22626
855.926	22706
856.06	22752
856.194	22759
856.327	22733
856.461	22660
856.595	22664
856.729	22622
856.862	22694
856.996	22786
857.13	22786
857.263	22786
857.397	22759
857.53	22679
857.664	22713
857.797	22774
857.931	22862
858.064	22649
858.197	22778
858.331	22778
858.464	22740
858.597	22603
858.731	22611
858.864	22603
858.997	22607
859.13	22744
859.263	22759
859.396	22801
859.529	22592
859.662	22687
859.795	22706
859.928	22569
860.061	22774
860.194	22797
860.327	22755
860.46	22774
860.592	22862
860.725	22839
860.858	22801
860.99	22759
861.123	22611
861.256	22641
861.388	22752
861.521	23322
861.653	22645
861.786	22535
861.918	22531
862.05	22679
862.183	22561
862.315	22672
862.447	22592
862.58	22607
862.712	22246
862.844	22402
862.976	22504
863.108	22428
863.24	22854
863.372	22382
863.504	22424
863.636	22447
863.768	22500
863.9	22371
864.032	22440
864.164	22367
864.296	22352
864.428	22478
864.559	22409
864.691	22531
864.823	22417
864.954	22352
865.086	22314
865.217	22363
865.349	22272
865.48	22325
865.612	22268
865.743	22546
865.875	22287
866.006	22272
866.137	22352
866.269	22310
866.4	22215
866.531	22196
866.662	22200
866.793	22150
866.924	22207
867.055	22192
867.186	22188
867.317	22211
867.448	22074
867.579	22124
867.71	22082
867.841	22036
867.972	22181
868.103	22124
868.233	22280
868.364	22249
868.495	22272
868.625	22398
868.756	22542
868.886	22375
869.017	22360
869.147	22592
869.278	22527
869.408	22459
869.539	22497
869.669	22466
869.799	22348
869.929	22542
870.06	22413
870.19	22801
870.32	22557
870.45	22790
870.58	22858
870.71	22999
870.84	22835
870.97	22820
871.1	22843
871.23	22965
871.36	22957
871.489	23003
871.619	23151
871.749	23132
871.879	22961
872.008	23159
872.138	23056
872.267	22995
872.397	22915
872.526	22820
872.656	22786
872.785	22980
872.915	23162
873.044	23060
873.173	23197
873.303	23060
873.432	23197
873.561	23223
873.69	23128
873.819	23086
873.948	23193
874.077	23109
874.206	23060
874.335	23003
874.464	23220
874.593	23322
874.722	23231
874.851	23364
874.979	23296
875.108	23162
875.237	23235
875.365	23090
875.494	23193
875.623	23299
875.751	23239
875.88	23391
876.008	23429
876.136	23486
876.265	23680
876.393	23901
876.521	23718
876.65	23672
876.778	23764
876.906	23619
877.034	23646
877.162	23589
877.29	23619
877.418	23573
877.546	23714
877.674	23649
877.802	23581
877.93	23581
878.058	23657
878.185	23421
878.313	23478
878.441	23531
878.568	23474
878.696	23657
878.824	23558
878.951	23684
879.079	23756
879.206	23935
879.333	23699
879.461	23710
879.588	23809
879.715	23771
879.842	23802
879.97	23684
880.097	23509
880.224	23448
880.351	23501
880.478	23444
880.605	23467
880.732	23551
880.859	23718
880.986	23417
881.112	23429
881.239	23303
881.366	23113
881.493	23044
881.619	23010
881.746	23037
881.872	23041
881.999	22927
882.125	22858
882.252	22942
882.378	22923
882.505	22942
882.631	22843
882.757	22694
882.883	22835
883.01	22710
883.136	22748
883.262	22596
883.388	22424
883.514	22675
883.64	22702
883.766	22557
883.892	22379
884.018	22497
884.143	22584
884.269	22634
884.395	22382
884.52	22211
884.646	22344
884.772	22147
884.897	22322
885.023	22295
885.148	22367
885.274	22432
885.399	22367
885.524	22379
885.65	22265
885.775	22424
885.9	22325
886.025	22322
886.15	22375
886.275	22261
886.4	22219
886.525	22192
886.65	22329
886.775	22329
886.9	22333
887.025	22459
887.149	22196
887.274	22101
887.399	22048
887.523	22105
887.648	22040
887.773	22116
887.897	22082
888.021	22029
888.146	22086
888.27	22139
888.395	22048
888.519	22002
888.643	21953
888.767	22154
888.891	21922
889.015	21857
889.139	21880
889.263	21850
889.387	21930
889.511	22097
889.635	22017
889.759	21838
889.883	21911
890.006	21880
890.13	22025
890.254	21781
890.377	21850
890.501	21633
890.624	21553
890.748	21690
890.871	21492
890.995	21332
891.118	21355
891.241	21561
891.364	21545
891.488	21530
891.611	21389
891.734	21515
891.857	21473
891.98	21481
892.103	21545
892.226	21355
892.349	21351
892.471	21279
892.594	21367
892.717	21348
892.839	21348
892.962	21336
893.085	21348
893.207	21325
893.33	21150
893.452	21279
893.575	21405
893.697	21329
893.819	21485
893.941	21545
894.064	21405
894.186	21218
894.308	21184
894.43	21344
894.552	21298
894.674	21367
894.796	21241
894.918	21249
895.04	21184
895.161	21325
895.283	21127
895.405	21192
895.526	21176
895.648	21355
895.769	21332
895.891	21294
896.012	21348
896.134	21214
896.255	21302
896.376	21317
896.498	21336
896.619	21389
896.74	21180
896.861	21268
896.982	21576
897.103	21637
897.224	21545
897.345	21416
897.466	21275
897.587	21500
897.708	21538
897.828	21606
897.949	21397
898.07	21256
898.19	21428
898.311	21656
898.431	21519
898.552	21561
898.672	21473
898.792	21462
898.913	21428
899.033	21370
899.153	21230
899.273	21116
899.393	21252
899.513	21165
899.633	21233
899.753	21165
899.873	21146
899.993	21252
900.113	21047
900.232	21138
900.352	21047
900.472	21062
900.591	20918
900.711	21028
900.83	20960
900.95	21028
901.069	21028
901.189	20754
901.308	20613
901.427	20648
901.546	20560
901.665	20522
901.784	20511
901.904	20492
902.023	20244
902.141	20065
902.26	20100
902.379	20202
902.498	20035
902.617	19917
902.735	19986
902.854	20096
902.973	19913
903.091	19780
903.21	19658
903.328	19635
903.446	19559
903.565	19422
903.683	19506
903.801	19457
903.919	19483
904.038	19308
904.156	19263
904.274	19316
904.392	19206
904.51	19266
904.627	19228
904.745	19324
904.863	19168
904.981	19015
905.098	18901
905.216	18951
905.334	18856
905.451	18939
905.569	18878
905.686	19004
905.803	18890
905.921	18700
906.038	18802
906.155	18719
906.272	18593
906.389	18612
906.506	18521
906.623	18479
906.74	18555
906.857	18433
906.974	18350
907.091	18429
907.208	18460
907.324	18460
907.441	18357
907.557	18224
907.674	18060
907.79	17984
907.907	18117
908.023	18110
908.139	18186
908.256	18053
908.372	18114
908.488	17931
908.604	17939
908.72	17779
908.836	17821
908.952	17863
909.068	17893
909.184	17988
909.3	17802
909.415	17866
909.531	17805
909.647	17589
909.762	17455
909.878	17535
909.993	17532
910.108	17509
910.224	17459
910.339	17493
910.454	17410
910.57	17376
910.685	17368
910.8	17474
910.915	17459
911.03	17341
911.145	17147
911.259	17132
911.374	17124
911.489	16972
911.604	17083
911.718	16854
911.833	16835
911.947	16733
912.062	16816
912.176	16869
912.291	16782
912.405	16869
912.519	16942
912.633	17079
912.748	16877
912.862	16885
912.976	16675
913.09	16527
913.204	16588
913.318	16717
913.431	16710
913.545	16725
913.659	16698
913.772	16599
913.886	16470
914	16554
914.113	16493
914.226	16516
914.34	16538
914.453	16344
914.566	16432
914.68	16329
914.793	16192
914.906	16124
915.019	16051
915.132	15945
915.245	15987
915.358	15968
915.47	16032
915.583	16135
915.696	16090
915.809	16188
915.921	16154
916.034	16025
916.146	15991
916.259	15873
916.371	15945
916.483	16025
916.595	15941
916.708	15797
916.82	15831
916.932	15812
917.044	15774
917.156	15724
917.268	15682
917.38	15648
917.491	15561
917.603	15751
917.715	15747
917.826	15873
917.938	15618
918.049	15515
918.161	15584
918.272	15686
918.384	15641
918.495	15481
918.606	15393
918.717	15363
918.828	15473
918.939	15397
919.05	15317
919.161	15401
919.272	15176
919.383	15203
919.494	15428
919.604	15584
919.715	15336
919.826	15252
919.936	15340
920.047	15370
920.157	15351
920.267	15530
920.378	15264
920.488	15260
920.598	15614
920.708	15538
920.818	15412
920.928	15477
921.038	15644
921.148	15625
921.258	15351
921.368	15112
921.477	15093
921.587	15036
921.697	14941
921.806	15066
921.916	14960
922.025	14689
922.134	14727
922.244	14686
922.353	14705
922.462	14571
922.571	14480
922.68	14366
922.789	14301
922.898	14389
923.007	14339
923.116	14419
923.224	14263
923.333	14252
923.442	14225
923.55	14138
923.659	14142
923.767	14263
923.876	14050
923.984	14092
924.092	13955
924.201	13963
924.309	14084
924.417	14031
924.525	13875
924.633	13963
924.741	14864
924.849	13776
924.956	13894
925.064	13685
925.172	13655
925.279	13674
925.387	13639
925.494	13734
925.602	13803
925.709	13685
925.816	13651
925.924	13605
926.031	13746
926.138	13651
926.245	13586
926.352	13480
926.459	13582
926.566	13655
926.673	13544
926.779	13430
926.886	13434
926.993	13327
927.099	13228
927.206	13156
927.312	13202
927.419	13255
927.525	13145
927.631	13293
927.737	13137
927.843	13088
927.95	13008
928.056	13065
928.162	13042
928.267	13152
928.373	13727
928.479	13088
928.585	12848
928.69	12981
928.796	12973
928.901	12890
929.007	12795
929.112	12897
929.218	12798
929.323	12760
929.428	12772
929.533	12726
929.638	12677
929.743	12707
929.848	12703
929.953	12700
930.058	12601
930.163	12475
930.267	12388
930.372	12631
930.477	12399
930.581	12608
930.685	12456
930.79	12315
930.894	12410
930.998	12292
931.103	12350
931.207	12083
931.311	11958
931.415	11874
931.519	11611
931.623	11676
