Data from test_V78500241_2285.txt Node
Date: Fri Mar 25 15:57:37 CST 2022
User: usil
Spectrometer: V785-0024
Trigger mode: 0
Integration Time (sec): 4.000000E-1
Scans to average: 1
Nonlinearity correction enabled: false
Boxcar width: 0
Storing dark spectrum: false
XAxis mode: Wavelengths
Number of Pixels in Spectrum: 1024
>>>>>Begin Spectral Data<<<<<
801.071	28885
801.214	28812
801.356	28744
801.499	28626
801.641	28588
801.783	28516
801.926	28546
802.068	28535
802.211	28493
802.353	28485
802.496	28280
802.638	28230
802.78	28097
802.923	28139
803.065	28078
803.208	28154
803.35	28105
803.492	28382
803.635	28386
803.777	28238
803.919	28421
804.061	28694
804.204	28424
804.346	28249
804.488	28367
804.63	28519
804.773	28386
804.915	28436
805.057	28622
805.199	28443
805.341	28584
805.483	28485
805.626	28466
805.768	28504
805.91	28500
806.052	28603
806.194	28523
806.336	28759
806.478	28573
806.62	28778
806.762	28641
806.904	28908
807.046	29090
807.188	29143
807.33	29086
807.472	29064
807.614	28911
807.756	29090
807.898	29010
808.04	28881
808.182	29022
808.324	28801
808.465	28805
808.607	29075
808.749	29231
808.891	29356
809.033	29299
809.174	29277
809.316	29086
809.458	29204
809.6	29151
809.741	29353
809.883	29486
810.025	29486
810.166	29699
810.308	29630
810.45	29334
810.591	29455
810.733	29292
810.875	29242
811.016	29197
811.158	29383
811.299	29337
811.441	29440
811.582	29402
811.724	29387
811.865	29227
812.007	29383
812.148	29200
812.29	29261
812.431	29589
812.573	29592
812.714	29661
812.855	29832
812.997	29813
813.138	30060
813.279	29843
813.421	29691
813.562	29668
813.703	29653
813.845	29459
813.986	29273
814.127	29067
814.268	28987
814.41	28896
814.551	29025
814.692	29090
814.833	28854
814.974	28965
815.115	28957
815.256	28877
815.397	28930
815.539	28835
815.68	28847
815.821	28968
815.962	28702
816.103	28824
816.244	28675
816.385	28577
816.526	28519
816.666	28447
816.807	28322
816.948	28367
817.089	28341
817.23	28348
817.371	28344
817.512	28371
817.653	28291
817.793	28310
817.934	28265
818.075	28356
818.216	28246
818.356	28192
818.497	28299
818.638	28055
818.778	27960
818.919	28010
819.06	28211
819.2	28310
819.341	28325
819.481	28284
819.622	28656
819.762	28622
819.903	28557
820.043	28535
820.184	28474
820.324	28440
820.465	28577
820.605	28478
820.746	28474
820.886	28280
821.026	28341
821.167	28443
821.307	28462
821.447	28341
821.588	28196
821.728	28040
821.868	27949
822.008	27846
822.149	27880
822.289	27705
822.429	27644
822.569	27454
822.709	27599
822.849	27405
822.99	27420
823.13	27382
823.27	27249
823.41	27112
823.55	27058
823.69	27039
823.83	27157
823.97	26998
824.11	26971
824.25	26929
824.389	26902
824.529	27123
824.669	26963
824.809	27055
824.949	27043
825.089	27074
825.228	27009
825.368	26674
825.508	26849
825.648	26777
825.787	26785
825.927	26994
826.067	26750
826.206	26842
826.346	26883
826.485	26956
826.625	26823
826.765	26807
826.904	26823
827.044	26461
827.183	26663
827.323	26465
827.462	26693
827.601	26621
827.741	26625
827.88	26670
828.02	26393
828.159	26537
828.298	26659
828.437	26537
828.577	26488
828.716	26492
828.855	26465
828.994	26256
829.134	26248
829.273	26374
829.412	26256
829.551	26225
829.69	26180
829.829	26339
829.968	26244
830.107	26374
830.246	26294
830.385	26202
830.524	26062
830.663	26107
830.802	25890
830.941	25849
831.08	25780
831.219	25879
831.357	25887
831.496	26054
831.635	25814
831.774	25822
831.913	25613
832.051	25750
832.19	25719
832.329	25548
832.467	25575
832.606	25358
832.744	25419
832.883	25548
833.022	25388
833.16	25590
833.299	25556
833.437	25563
833.576	25715
833.714	25616
833.852	25582
833.991	25601
834.129	25788
834.267	25662
834.406	25674
834.544	25647
834.682	25597
834.821	25525
834.959	25784
835.097	25510
835.235	25597
835.373	25552
835.511	25586
835.65	25384
835.788	25373
835.926	25339
836.064	25282
836.202	25244
836.34	25354
836.478	25502
836.615	25354
836.753	25381
836.891	25400
837.029	25327
837.167	25369
837.305	25240
837.443	25225
837.58	25255
837.718	25236
837.856	25225
837.993	25095
838.131	25206
838.269	25019
838.406	25145
838.544	25038
838.681	24985
838.819	24962
838.956	24665
839.094	24707
839.231	24597
839.369	24715
839.506	25160
839.643	24916
839.781	24745
839.918	24559
840.055	24692
840.193	24574
840.33	24616
840.467	24646
840.604	24608
840.742	24890
840.879	24422
841.016	24544
841.153	24486
841.29	24608
841.427	24384
841.564	24642
841.701	24456
841.838	24452
841.975	24566
842.112	24448
842.249	24479
842.385	24315
842.522	24517
842.659	24467
842.796	24410
842.933	24327
843.069	24323
843.206	24220
843.343	24357
843.479	24258
843.616	24357
843.752	24064
843.889	24125
844.025	24235
844.162	24114
844.298	24308
844.435	24140
844.571	24015
844.708	24144
844.844	24281
844.98	24296
845.117	24091
845.253	23958
845.389	23980
845.525	24125
845.661	23805
845.798	23821
845.934	23790
846.07	23684
846.206	23885
846.342	23958
846.478	23760
846.614	23634
846.75	23471
846.886	23509
847.022	23478
847.158	23604
847.294	23547
847.429	23528
847.565	23566
847.701	23840
847.837	23311
847.972	23265
848.108	23307
848.244	23337
848.379	23220
848.515	23098
848.65	23181
848.786	23124
848.921	23124
849.057	23239
849.192	23273
849.328	23159
849.463	23193
849.598	23102
849.734	22961
849.869	23060
850.004	22957
850.14	22953
850.275	22938
850.41	22881
850.545	22740
850.68	22885
850.815	22843
850.95	22805
851.085	23121
851.22	23018
851.355	22885
851.49	22748
851.625	22793
851.76	22991
851.895	22828
852.03	22809
852.165	22904
852.299	22858
852.434	22881
852.569	22911
852.703	22949
852.838	22995
852.973	23094
853.107	23189
853.242	22805
853.376	22748
853.511	22622
853.645	22683
853.78	22892
853.914	22698
854.048	22664
854.183	22649
854.317	22698
854.451	22877
854.585	22733
854.72	22683
854.854	22687
854.988	22645
855.122	22664
855.256	22748
855.39	22664
855.524	22755
855.658	22774
855.792	22584
855.926	22679
856.06	22706
856.194	22801
856.327	22634
856.461	22771
856.595	22809
856.729	22607
856.862	22812
856.996	22839
857.13	22702
857.263	22774
857.397	22866
857.53	22683
857.664	22698
857.797	22816
857.931	22763
858.064	22774
858.197	22786
858.331	22637
858.464	22809
858.597	22630
858.731	22641
858.864	22691
858.997	22683
859.13	22850
859.263	22786
859.396	22755
859.529	22675
859.662	22683
859.795	22687
859.928	22717
860.061	22858
860.194	22877
860.327	22687
860.46	22755
860.592	22889
860.725	22862
860.858	22961
860.99	22721
861.123	22596
861.256	22656
861.388	22691
861.521	23482
861.653	22599
861.786	22599
861.918	22554
862.05	22672
862.183	22675
862.315	22694
862.447	22809
862.58	22599
862.712	22504
862.844	22382
862.976	22459
863.108	22626
863.24	22953
863.372	22443
863.504	22398
863.636	22322
863.768	22455
863.9	22344
864.032	22531
864.164	22413
864.296	22421
864.428	22538
864.559	22421
864.691	22459
864.823	22447
864.954	22265
865.086	22261
865.217	22276
865.349	22325
865.48	22234
865.612	22299
865.743	22344
865.875	22295
866.006	22280
866.137	22356
866.269	22344
866.4	22295
866.531	22207
866.662	22314
866.793	22097
866.924	22173
867.055	22185
867.186	22128
867.317	22169
867.448	22097
867.579	22169
867.71	22139
867.841	22078
867.972	22238
868.103	22219
868.233	22219
868.364	22249
868.495	22310
868.625	22436
868.756	22584
868.886	22516
869.017	22363
869.147	22554
869.278	22611
869.408	22413
869.539	22299
869.669	22573
869.799	22462
869.929	22512
870.06	22557
870.19	22675
870.32	22786
870.45	22694
870.58	22725
870.71	22896
870.84	22839
870.97	22744
871.1	22839
871.23	23014
871.36	23090
871.489	23006
871.619	23060
871.749	22946
871.879	23132
872.008	23170
872.138	23025
872.267	22987
872.397	22957
872.526	22790
872.656	22850
872.785	22908
872.915	23105
873.044	23204
873.173	23159
873.303	23098
873.432	23159
873.561	23273
873.69	23151
873.819	23170
873.948	23121
874.077	23121
874.206	23090
874.335	22919
874.464	23132
874.593	23311
874.722	23200
874.851	23318
874.979	23345
875.108	23277
875.237	23235
875.365	23261
875.494	23254
875.623	23318
875.751	23200
875.88	23235
876.008	23364
876.136	23467
876.265	23589
876.393	23802
876.521	23798
876.65	23589
876.778	23646
876.906	23703
877.034	23528
877.162	23592
877.29	23562
877.418	23592
877.546	23524
877.674	23668
877.802	23577
877.93	23615
878.058	23554
878.185	23467
878.313	23577
878.441	23726
878.568	23402
878.696	23562
878.824	23611
878.951	23551
879.079	23798
879.206	23863
879.333	23760
879.461	23642
879.588	23783
879.715	23798
879.842	23931
879.97	23703
880.097	23490
880.224	23315
880.351	23459
880.478	23383
880.605	23337
880.732	23349
880.859	23710
880.986	23429
881.112	23486
881.239	23318
881.366	23189
881.493	23044
881.619	23124
881.746	22961
881.872	22984
881.999	22934
882.125	22885
882.252	23029
882.378	22984
882.505	23094
882.631	22786
882.757	22778
882.883	22702
883.01	22702
883.136	22535
883.262	22421
883.388	22527
883.514	22588
883.64	22771
883.766	22618
883.892	22329
884.018	22436
884.143	22584
884.269	22706
884.395	22367
884.52	22230
884.646	22276
884.772	22257
884.897	22143
885.023	22265
885.148	22424
885.274	22409
885.399	22341
885.524	22318
885.65	22371
885.775	22295
885.9	22257
886.025	22424
886.15	22318
886.275	22303
886.4	22211
886.525	22272
886.65	22116
886.775	22226
886.9	22333
887.025	22508
887.149	22314
887.274	22112
887.399	22063
887.523	22055
887.648	21854
887.773	22010
887.897	22135
888.021	22116
888.146	22002
888.27	22063
888.395	22150
888.519	22070
888.643	22059
888.767	22124
888.891	22036
889.015	21846
889.139	21876
889.263	21812
889.387	21827
889.511	22177
889.635	21953
889.759	21854
889.883	21819
890.006	21827
890.13	22013
890.254	21713
890.377	21713
890.501	21675
890.624	21526
890.748	21671
890.871	21466
890.995	21325
891.118	21416
891.241	21408
891.364	21294
891.488	21523
891.611	21378
891.734	21488
891.857	21351
891.98	21431
892.103	21412
892.226	21405
892.349	21321
892.471	21131
892.594	21260
892.717	21294
892.839	21142
892.962	21108
893.085	21359
893.207	21230
893.33	21096
893.452	21142
893.575	21359
893.697	21195
893.819	21348
893.941	21397
894.064	21306
894.186	21127
894.308	21169
894.43	21302
894.552	21458
894.674	21359
894.796	21275
894.918	21226
895.04	21146
895.161	21340
895.283	21302
895.405	21218
895.526	21275
895.648	21260
895.769	21195
895.891	21272
896.012	21408
896.134	21370
896.255	21321
896.376	21154
896.498	21291
896.619	21233
896.74	21184
896.861	21264
896.982	21648
897.103	21671
897.224	21561
897.345	21428
897.466	21382
897.587	21469
897.708	21583
897.828	21389
897.949	21405
898.07	21340
898.19	21325
898.311	21488
898.431	21420
898.552	21443
898.672	21545
898.792	21450
898.913	21443
899.033	21530
899.153	21161
899.273	21173
899.393	21230
899.513	21355
899.633	21218
899.753	21176
899.873	21051
899.993	21161
900.113	21085
900.232	21135
900.352	21142
900.472	21062
900.591	20876
900.711	21081
900.83	20914
900.95	20971
901.069	21055
901.189	20819
901.308	20617
901.427	20568
901.546	20488
901.665	20450
901.784	20575
901.904	20355
902.023	20290
902.141	20069
902.26	20119
902.379	20065
902.498	20054
902.617	20008
902.735	19989
902.854	19879
902.973	19982
903.091	19594
903.21	19632
903.328	19529
903.446	19586
903.565	19533
903.683	19525
903.801	19358
903.919	19400
904.038	19430
904.156	19187
904.274	19221
904.392	19247
904.51	19232
904.627	19297
904.745	19316
904.863	19282
904.981	19118
905.098	19023
905.216	18928
905.334	18882
905.451	18928
905.569	18856
905.686	18852
905.803	18810
905.921	18623
906.038	18741
906.155	18684
906.272	18658
906.389	18532
906.506	18361
906.623	18483
906.74	18346
906.857	18330
906.974	18338
907.091	18376
907.208	18532
907.324	18407
907.441	18285
907.557	18258
907.674	18060
907.79	18068
907.907	18102
908.023	18072
908.139	18095
908.256	17942
908.372	17958
908.488	17996
908.604	17794
908.72	17870
908.836	17764
908.952	17832
909.068	17809
909.184	17889
909.3	17847
909.415	17908
909.531	17684
909.647	17604
909.762	17490
909.878	17436
909.993	17482
910.108	17478
910.224	17440
910.339	17436
910.454	17341
910.57	17280
910.685	17288
910.8	17543
910.915	17425
911.03	17303
911.145	17113
911.259	17132
911.374	17090
911.489	17067
911.604	17018
911.718	16820
911.833	16786
911.947	16755
912.062	16603
912.176	16942
912.291	16908
912.405	16812
912.519	16953
912.633	17060
912.748	16847
912.862	16889
912.976	16774
913.09	16561
913.204	16622
913.318	16630
913.431	16683
913.545	16805
913.659	16752
913.772	16550
913.886	16459
914	16535
914.113	16386
914.226	16451
914.34	16409
914.453	16344
914.566	16531
914.68	16299
914.793	16219
914.906	16090
915.019	15907
915.132	16017
915.245	15918
915.358	16010
915.47	15915
915.583	15945
915.696	15968
915.809	16074
915.921	16112
916.034	15934
916.146	15960
916.259	15972
916.371	15960
916.483	15953
916.595	15876
916.708	15720
916.82	15800
916.932	15804
917.044	15793
917.156	15751
917.268	15656
917.38	15675
917.491	15690
917.603	15469
917.715	15804
917.826	15698
917.938	15557
918.049	15530
918.161	15542
918.272	15584
918.384	15648
918.495	15530
918.606	15325
918.717	15214
918.828	15332
918.939	15355
919.05	15264
919.161	15408
919.272	15081
919.383	15195
919.494	15313
919.604	15564
919.715	15256
919.826	15226
919.936	15264
920.047	15408
920.157	15287
920.267	15492
920.378	15321
920.488	15256
920.598	15359
920.708	15587
920.818	15462
920.928	15370
921.038	15614
921.148	15466
921.258	15279
921.368	15146
921.477	15116
921.587	14990
921.697	14880
921.806	14994
921.916	14902
922.025	14636
922.134	14682
922.244	14556
922.353	14712
922.462	14518
922.571	14457
922.68	14385
922.789	14233
922.898	14301
923.007	14252
923.116	14362
923.224	14278
923.333	14199
923.442	14153
923.55	14103
923.659	14103
923.767	14157
923.876	14096
923.984	14130
924.092	14039
924.201	14077
924.309	13989
924.417	14050
924.525	13917
924.633	13883
924.741	14796
924.849	13658
924.956	13841
925.064	13715
925.172	13647
925.279	13658
925.387	13712
925.494	13658
925.602	13772
925.709	13689
925.816	13521
925.924	13518
926.031	13643
926.138	13537
926.245	13567
926.352	13533
926.459	13628
926.566	13601
926.673	13578
926.779	13373
926.886	13400
926.993	13240
927.099	13225
927.206	13065
927.312	13137
927.419	13236
927.525	13160
927.631	13225
927.737	13038
927.843	13027
927.95	12962
928.056	12962
928.162	13015
928.267	13080
928.373	13632
928.479	13088
928.585	12875
928.69	12928
928.796	12981
928.901	12905
929.007	12776
929.112	12840
929.218	12844
929.323	12669
929.428	12658
929.533	12833
929.638	12662
929.743	12738
929.848	12650
929.953	12627
930.058	12559
930.163	12304
930.267	12372
930.372	12540
930.477	12330
930.581	12559
930.685	12365
930.79	12251
930.894	12308
930.998	12224
931.103	12357
931.207	11999
931.311	11973
931.415	11821
931.519	11627
931.623	11558
