Data from test_V78500241_2744.txt Node
Date: Fri Mar 25 16:00:48 CST 2022
User: usil
Spectrometer: V785-0024
Trigger mode: 0
Integration Time (sec): 4.000000E-1
Scans to average: 1
Nonlinearity correction enabled: false
Boxcar width: 0
Storing dark spectrum: false
XAxis mode: Wavelengths
Number of Pixels in Spectrum: 1024
>>>>>Begin Spectral Data<<<<<
801.071	28299
801.214	28344
801.356	28166
801.499	28173
801.641	27918
801.783	27819
801.926	27983
802.068	27911
802.211	27751
802.353	27888
802.496	27557
802.638	27682
802.78	27561
802.923	27492
803.065	27530
803.208	27530
803.35	27641
803.492	27816
803.635	27876
803.777	27595
803.919	27884
804.061	28078
804.204	27819
804.346	27648
804.488	27698
804.63	27774
804.773	27816
804.915	27869
805.057	27914
805.199	27812
805.341	27846
805.483	27838
805.626	27918
805.768	28013
805.91	27987
806.052	27945
806.194	27907
806.336	28158
806.478	27842
806.62	27873
806.762	28147
806.904	28268
807.046	28367
807.188	28382
807.33	28371
807.472	28516
807.614	28478
807.756	28405
807.898	28181
808.04	28211
808.182	28306
808.324	28177
808.465	28249
808.607	28611
808.749	28569
808.891	28748
809.033	28816
809.174	28828
809.316	28653
809.458	28759
809.6	28557
809.741	28778
809.883	28839
810.025	28919
810.166	28919
810.308	28801
810.45	28854
810.591	28877
810.733	28710
810.875	28603
811.016	28527
811.158	28500
811.299	28748
811.441	28923
811.582	28774
811.724	28626
811.865	28554
812.007	28630
812.148	28660
812.29	28763
812.431	28698
812.573	28961
812.714	29102
812.855	29258
812.997	29178
813.138	29337
813.279	29383
813.421	29044
813.562	29029
813.703	29018
813.845	28900
813.986	28546
814.127	28371
814.268	28329
814.41	28398
814.551	28421
814.692	28375
814.833	28329
814.974	28112
815.115	28413
815.256	28257
815.397	28272
815.539	28120
815.68	28090
815.821	28044
815.962	28265
816.103	28166
816.244	28002
816.385	27953
816.526	27945
816.666	27675
816.807	27625
816.948	27652
817.089	27686
817.23	27622
817.371	27629
817.512	27534
817.653	27507
817.793	27496
817.934	27641
818.075	27686
818.216	27690
818.356	27652
818.497	27511
818.638	27439
818.778	27435
818.919	27424
819.06	27443
819.2	27553
819.341	27519
819.481	27595
819.622	27728
819.762	27979
819.903	27892
820.043	27835
820.184	27739
820.324	27675
820.465	27778
820.605	27789
820.746	27709
820.886	27618
821.026	27686
821.167	27656
821.307	27854
821.447	27549
821.588	27583
821.728	27443
821.868	27302
822.008	27207
822.149	27066
822.289	27138
822.429	26796
822.569	26663
822.709	26796
822.849	26640
822.99	26560
823.13	26571
823.27	26701
823.41	26423
823.55	26453
823.69	26469
823.83	26377
823.97	26415
824.11	26229
824.25	26240
824.389	26256
824.529	26332
824.669	26248
824.809	26347
824.949	26366
825.089	26263
825.228	26240
825.368	26119
825.508	25997
825.648	26164
825.787	26225
825.927	26126
826.067	26008
826.206	26081
826.346	26244
826.485	26218
826.625	26054
826.765	26183
826.904	26176
827.044	25997
827.183	25833
827.323	25807
827.462	26016
827.601	25860
827.741	25830
827.88	25887
828.02	25807
828.159	25780
828.298	25928
828.437	25879
828.577	25826
828.716	25928
828.855	25712
828.994	25552
829.134	25639
829.273	25552
829.412	25362
829.551	25514
829.69	25605
829.829	25533
829.968	25715
830.107	25613
830.246	25556
830.385	25510
830.524	25457
830.663	25259
830.802	25274
830.941	25236
831.08	25095
831.219	25274
831.357	25297
831.496	25377
831.635	25141
831.774	24973
831.913	25080
832.051	24939
832.19	24985
832.329	24985
832.467	24985
832.606	24852
832.744	24871
832.883	24779
833.022	24837
833.16	24753
833.299	24928
833.437	24795
833.576	24844
833.714	24848
833.852	24848
833.991	24916
834.129	24951
834.267	25046
834.406	24958
834.544	24905
834.682	24791
834.821	24829
834.959	24973
835.097	24787
835.235	25023
835.373	24905
835.511	24817
835.65	24821
835.788	24696
835.926	24772
836.064	24498
836.202	24521
836.34	24642
836.478	24810
836.615	24700
836.753	24658
836.891	24776
837.029	24779
837.167	24661
837.305	24585
837.443	24707
837.58	24574
837.718	24692
837.856	24635
837.993	24475
838.131	24460
838.269	24365
838.406	24509
838.544	24285
838.681	24304
838.819	23977
838.956	24091
839.094	23996
839.231	24018
839.369	24228
839.506	24410
839.643	24285
839.781	24083
839.918	23855
840.055	24038
840.193	23999
840.33	23901
840.467	23996
840.604	23908
840.742	24171
840.879	23741
841.016	23741
841.153	23809
841.29	23980
841.427	23885
841.564	24041
841.701	23950
841.838	23942
841.975	23672
842.112	23843
842.249	23737
842.385	23729
842.522	23836
842.659	23870
842.796	23585
842.933	23718
843.069	23566
843.206	23672
843.343	23802
843.479	23767
843.616	23707
843.752	23592
843.889	23474
844.025	23630
844.162	23531
844.298	23604
844.435	23486
844.571	23467
844.708	23474
844.844	23608
844.98	23600
845.117	23512
845.253	23448
845.389	23299
845.525	23448
845.661	23349
845.798	23136
845.934	23212
846.07	23315
846.206	23239
846.342	23349
846.478	23113
846.614	23014
846.75	22957
846.886	22927
847.022	22877
847.158	22999
847.294	22896
847.429	23109
847.565	22824
847.701	23193
847.837	22816
847.972	22618
848.108	22668
848.244	22748
848.379	22603
848.515	22451
848.65	22752
848.786	22565
848.921	22668
849.057	22641
849.192	22626
849.328	22618
849.463	22653
849.598	22481
849.734	22451
849.869	22398
850.004	22371
850.14	22303
850.275	22230
850.41	22287
850.545	22276
850.68	22333
850.815	22303
850.95	22158
851.085	22436
851.22	22443
851.355	22333
851.49	22318
851.625	22348
851.76	22177
851.895	22242
852.03	22169
852.165	22341
852.299	22344
852.434	22375
852.569	22344
852.703	22265
852.838	22310
852.973	22561
853.107	22272
853.242	22196
853.376	22230
853.511	21983
853.645	22105
853.78	22226
853.914	22128
854.048	21968
854.183	22177
854.317	22093
854.451	22246
854.585	22044
854.72	22192
854.854	22234
854.988	22017
855.122	22120
855.256	21941
855.39	22109
855.524	22226
855.658	22051
855.792	22223
855.926	22207
856.06	22109
856.194	22128
856.327	22048
856.461	22032
856.595	22063
856.729	22200
856.862	22177
856.996	22010
857.13	22128
857.263	22139
857.397	22234
857.53	22097
857.664	22223
857.797	22090
857.931	22188
858.064	22200
858.197	22219
858.331	22105
858.464	21983
858.597	22017
858.731	22105
858.864	22116
858.997	22116
859.13	22044
859.263	22204
859.396	22219
859.529	22109
859.662	22032
859.795	22021
859.928	22112
860.061	22386
860.194	22382
860.327	22162
860.46	22101
860.592	22284
860.725	22325
860.858	22284
860.99	22147
861.123	22063
861.256	22097
861.388	22055
861.521	22774
861.653	21960
861.786	21934
861.918	21983
862.05	21907
862.183	22200
862.315	22074
862.447	22116
862.58	21934
862.712	21880
862.844	21827
862.976	22036
863.108	21838
863.24	22333
863.372	21873
863.504	21743
863.636	21873
863.768	21880
863.9	21880
864.032	21739
864.164	21778
864.296	21880
864.428	21880
864.559	21903
864.691	21819
864.823	21717
864.954	21873
865.086	21800
865.217	21759
865.349	21652
865.48	21774
865.612	21762
865.743	21827
865.875	21736
866.006	21614
866.137	21660
866.269	21675
866.4	21660
866.531	21656
866.662	21656
866.793	21622
866.924	21618
867.055	21587
867.186	21789
867.317	21663
867.448	21561
867.579	21618
867.71	21671
867.841	21564
867.972	21606
868.103	21667
868.233	21580
868.364	21542
868.495	21675
868.625	21873
868.756	21994
868.886	21842
869.017	21880
869.147	22067
869.278	22036
869.408	21857
869.539	21926
869.669	21907
869.799	21911
869.929	21926
870.06	22086
870.19	22333
870.32	22200
870.45	22143
870.58	22276
870.71	22329
870.84	22375
870.97	22295
871.1	22303
871.23	22466
871.36	22500
871.489	22337
871.619	22390
871.749	22440
871.879	22615
872.008	22694
872.138	22424
872.267	22584
872.397	22375
872.526	22348
872.656	22386
872.785	22299
872.915	22596
873.044	22557
873.173	22481
873.303	22478
873.432	22584
873.561	22630
873.69	22531
873.819	22493
873.948	22577
874.077	22630
874.206	22489
874.335	22504
874.464	22626
874.593	22790
874.722	22713
874.851	22725
874.979	22767
875.108	22820
875.237	22630
875.365	22782
875.494	22683
875.623	22809
875.751	22668
875.88	22634
876.008	22908
876.136	22850
876.265	23060
876.393	23143
876.521	23246
876.65	23174
876.778	23162
876.906	23014
877.034	22965
877.162	23052
877.29	23071
877.418	23181
877.546	23121
877.674	23067
877.802	23044
877.93	23109
878.058	23090
878.185	22900
878.313	23048
878.441	23071
878.568	22911
878.696	22938
878.824	23155
878.951	23193
879.079	23200
879.206	23311
879.333	23223
879.461	23151
879.588	23162
879.715	23132
879.842	23440
879.97	23170
880.097	22900
880.224	22915
880.351	22999
880.478	22965
880.605	22896
880.732	22877
880.859	23113
880.986	22953
881.112	22911
881.239	22828
881.366	22615
881.493	22478
881.619	22344
881.746	22459
881.872	22409
881.999	22455
882.125	22390
882.252	22565
882.378	22360
882.505	22611
882.631	22371
882.757	22223
882.883	22257
883.01	22211
883.136	22070
883.262	22097
883.388	21964
883.514	22215
883.64	22112
883.766	21964
883.892	21911
884.018	21926
884.143	22093
884.269	22078
884.395	21876
884.52	21660
884.646	21785
884.772	21660
884.897	21690
885.023	21724
885.148	21892
885.274	21876
885.399	21789
885.524	21663
885.65	21682
885.775	21671
885.9	21785
886.025	21835
886.15	21808
886.275	21690
886.4	21629
886.525	21739
886.65	21682
886.775	21667
886.9	21766
887.025	21949
887.149	21656
887.274	21614
887.399	21492
887.523	21629
887.648	21382
887.773	21435
887.897	21603
888.021	21625
888.146	21454
888.27	21671
888.395	21675
888.519	21564
888.643	21606
888.767	21580
888.891	21363
889.015	21378
889.139	21431
889.263	21279
889.387	21443
889.511	21595
889.635	21367
889.759	21321
889.883	21199
890.006	21287
890.13	21397
890.254	21325
890.377	21256
890.501	21108
890.624	21085
890.748	21184
890.871	20963
890.995	20864
891.118	20864
891.241	20937
891.364	20956
891.488	21055
891.611	20994
891.734	20914
891.857	20937
891.98	20910
892.103	20895
892.226	20811
892.349	20777
892.471	20697
892.594	20758
892.717	20849
892.839	20701
892.962	20826
893.085	20944
893.207	20727
893.33	20613
893.452	20571
893.575	20834
893.697	20731
893.819	20902
893.941	20982
894.064	20906
894.186	20651
894.308	20754
894.43	20891
894.552	20941
894.674	20921
894.796	20735
894.918	20663
895.04	20746
895.161	20792
895.283	20826
895.405	20750
895.526	20678
895.648	20644
895.769	20750
895.891	20819
896.012	20769
896.134	20826
896.255	20788
896.376	20765
896.498	20769
896.619	20853
896.74	20773
896.861	20769
896.982	20963
897.103	21184
897.224	20982
897.345	21070
897.466	20754
897.587	20998
897.708	21077
897.828	21013
897.949	20853
898.07	20807
898.19	20887
898.311	20960
898.431	20918
898.552	21017
898.672	20994
898.792	21146
898.913	20910
899.033	20823
899.153	20785
899.273	20617
899.393	20727
899.513	20826
899.633	20708
899.753	20792
899.873	20731
899.993	20693
900.113	20636
900.232	20655
900.352	20598
900.472	20568
900.591	20438
900.711	20488
900.83	20336
900.95	20568
901.069	20476
901.189	20313
901.308	20180
901.427	20016
901.546	20046
901.665	20069
901.784	20005
901.904	20039
902.023	19841
902.141	19658
902.26	19658
902.379	19613
902.498	19483
902.617	19468
902.735	19556
902.854	19590
902.973	19426
903.091	19259
903.21	19168
903.328	19228
903.446	19194
903.565	19038
903.683	19114
903.801	18943
903.919	19091
904.038	18875
904.156	18852
904.274	18795
904.392	18692
904.51	18753
904.627	18825
904.745	18757
904.863	18768
904.981	18532
905.098	18486
905.216	18410
905.334	18372
905.451	18376
905.569	18361
905.686	18418
905.803	18452
905.921	18194
906.038	18262
906.155	18426
906.272	18140
906.389	18148
906.506	18076
906.623	18083
906.74	18026
906.857	17847
906.974	17931
907.091	18034
907.208	18091
907.324	18133
907.441	17908
907.557	17707
907.674	17695
907.79	17573
907.907	17687
908.023	17767
908.139	17638
908.256	17642
908.372	17558
908.488	17562
908.604	17372
908.72	17395
908.836	17364
908.952	17341
909.068	17398
909.184	17528
909.3	17360
909.415	17436
909.531	17417
909.647	17067
909.762	17178
909.878	17102
909.993	17128
910.108	17109
910.224	16957
910.339	16991
910.454	17029
910.57	16782
910.685	16862
910.8	17075
910.915	16915
911.03	16938
911.145	16637
911.259	16660
911.374	16687
911.489	16588
911.604	16561
911.718	16322
911.833	16512
911.947	16299
912.062	16211
912.176	16325
912.291	16382
912.405	16371
912.519	16573
912.633	16645
912.748	16455
912.862	16493
912.976	16287
913.09	16177
913.204	16181
913.318	16226
913.431	16398
913.545	16379
913.659	16367
913.772	16158
913.886	16071
914	16135
914.113	16162
914.226	16040
914.34	16128
914.453	15861
914.566	16086
914.68	15899
914.793	15895
914.906	15705
915.019	15679
915.132	15549
915.245	15580
915.358	15663
915.47	15542
915.583	15629
915.696	15690
915.809	15648
915.921	15743
916.034	15584
916.146	15557
916.259	15507
916.371	15549
916.483	15530
916.595	15481
916.708	15382
916.82	15416
916.932	15485
917.044	15321
917.156	15340
917.268	15298
917.38	15245
917.491	15260
917.603	15237
917.715	15298
917.826	15306
917.938	15138
918.049	15058
918.161	15272
918.272	15272
918.384	15264
918.495	15169
918.606	15001
918.717	14910
918.828	15020
918.939	15062
919.05	14937
919.161	14990
919.272	14804
919.383	14845
919.494	15089
919.604	15157
919.715	14990
919.826	14823
919.936	14982
920.047	14998
920.157	14933
920.267	15112
920.378	14975
920.488	14845
920.598	15093
920.708	15154
920.818	15123
920.928	15036
921.038	15203
921.148	15085
921.258	14948
921.368	14754
921.477	14769
921.587	14659
921.697	14556
921.806	14674
921.916	14492
922.025	14339
922.134	14351
922.244	14317
922.353	14317
922.462	14149
922.571	14218
922.68	13978
922.789	13959
922.898	13959
923.007	13944
923.116	13932
923.224	13989
923.333	13890
923.442	13750
923.55	13769
923.659	13750
923.767	13757
923.876	13723
923.984	13814
924.092	13632
924.201	13776
924.309	13715
924.417	13731
924.525	13723
924.633	13655
924.741	14598
924.849	13396
924.956	13502
925.064	13419
925.172	13293
925.279	13282
925.387	13324
925.494	13346
925.602	13426
925.709	13438
925.816	13251
925.924	13221
926.031	13377
926.138	13312
926.245	13327
926.352	13274
926.459	13247
926.566	13320
926.673	13270
926.779	13061
926.886	13099
926.993	12882
927.099	12947
927.206	12878
927.312	12878
927.419	12848
927.525	12875
927.631	12897
927.737	12802
927.843	12791
927.95	12646
928.056	12688
928.162	12711
928.267	12791
928.373	13308
928.479	12749
928.585	12582
928.69	12642
928.796	12711
928.901	12547
929.007	12551
929.112	12578
929.218	12570
929.323	12490
929.428	12464
929.533	12509
929.638	12338
929.743	12441
929.848	12437
929.953	12407
930.058	12216
930.163	12083
930.267	12159
930.372	12213
930.477	12091
930.581	12289
930.685	12133
930.79	11961
930.894	12053
930.998	11939
931.103	12064
931.207	11714
931.311	11680
931.415	11516
931.519	11398
931.623	11387
