Data from test_V78500241_977.txt Node
Date: Fri Mar 25 15:48:34 CST 2022
User: usil
Spectrometer: V785-0024
Trigger mode: 0
Integration Time (sec): 4.000000E-1
Scans to average: 1
Nonlinearity correction enabled: false
Boxcar width: 0
Storing dark spectrum: false
XAxis mode: Wavelengths
Number of Pixels in Spectrum: 1024
>>>>>Begin Spectral Data<<<<<
801.071	28561
801.214	28360
801.356	28356
801.499	28166
801.641	27873
801.783	28112
801.926	28242
802.068	28162
802.211	28086
802.353	27899
802.496	27724
802.638	27747
802.78	27789
802.923	27682
803.065	27652
803.208	27694
803.35	27789
803.492	27781
803.635	27892
803.777	27682
803.919	27926
804.061	28200
804.204	28131
804.346	27838
804.488	27869
804.63	27907
804.773	27778
804.915	27899
805.057	28059
805.199	28059
805.341	28135
805.483	28192
805.626	28223
805.768	28040
805.91	28120
806.052	28090
806.194	28044
806.336	28253
806.478	28234
806.62	28006
806.762	28158
806.904	28569
807.046	28653
807.188	28523
807.33	28592
807.472	28519
807.614	28436
807.756	28626
807.898	28455
808.04	28489
808.182	28421
808.324	28394
808.465	28561
808.607	28687
808.749	28744
808.891	28911
809.033	29010
809.174	28873
809.316	28729
809.458	28721
809.6	28752
809.741	28984
809.883	28965
810.025	29140
810.166	29014
810.308	29121
810.45	29056
810.591	29025
810.733	28816
810.875	28991
811.016	28835
811.158	28736
811.299	28957
811.441	29025
811.582	29044
811.724	28927
811.865	28850
812.007	28896
812.148	28896
812.29	28835
812.431	29056
812.573	29067
812.714	29364
812.855	29379
812.997	29551
813.138	29512
813.279	29653
813.421	29379
813.562	29421
813.703	29220
813.845	28995
813.986	28725
814.127	28774
814.268	28611
814.41	28573
814.551	28569
814.692	28698
814.833	28485
814.974	28462
815.115	28531
815.256	28470
815.397	28588
815.539	28519
815.68	28253
815.821	28394
815.962	28371
816.103	28306
816.244	28154
816.385	28204
816.526	28090
816.666	27949
816.807	27690
816.948	27903
817.089	28044
817.23	27998
817.371	27785
817.512	27956
817.653	27861
817.793	27739
817.934	27960
818.075	27983
818.216	27739
818.356	27850
818.497	27835
818.638	27679
818.778	27618
818.919	27648
819.06	27633
819.2	27823
819.341	27800
819.481	27785
819.622	27987
819.762	28249
819.903	28090
820.043	28150
820.184	27983
820.324	27998
820.465	28029
820.605	28116
820.746	27914
820.886	27922
821.026	27945
821.167	27934
821.307	28055
821.447	27926
821.588	27679
821.728	27671
821.868	27606
822.008	27382
822.149	27321
822.289	27313
822.429	27268
822.569	26986
822.709	26929
822.849	26998
822.99	26963
823.13	26777
823.27	26861
823.41	26735
823.55	26674
823.69	26731
823.83	26640
823.97	26556
824.11	26366
824.25	26511
824.389	26469
824.529	26686
824.669	26590
824.809	26632
824.949	26590
825.089	26625
825.228	26450
825.368	26412
825.508	26298
825.648	26290
825.787	26396
825.927	26552
826.067	26298
826.206	26434
826.346	26568
826.485	26488
826.625	26442
826.765	26625
826.904	26328
827.044	26221
827.183	26119
827.323	25997
827.462	26278
827.601	26081
827.741	26115
827.88	26111
828.02	25932
828.159	26103
828.298	26119
828.437	26103
828.577	26020
828.716	26081
828.855	26012
828.994	25868
829.134	25818
829.273	25830
829.412	25674
829.551	25689
829.69	25765
829.829	25799
829.968	25852
830.107	25761
830.246	25727
830.385	25791
830.524	25685
830.663	25605
830.802	25514
830.941	25548
831.08	25289
831.219	25521
831.357	25548
831.496	25605
831.635	25400
831.774	25285
831.913	25263
832.051	25282
832.19	25190
832.329	25225
832.467	24886
832.606	25019
832.744	25038
832.883	25107
833.022	25038
833.16	25129
833.299	25031
833.437	25228
833.576	25126
833.714	25285
833.852	25259
833.991	25137
834.129	25225
834.267	25228
834.406	25152
834.544	25285
834.682	25145
834.821	25080
834.959	25320
835.097	25027
835.235	25228
835.373	25103
835.511	25190
835.65	24920
835.788	25008
835.926	24886
836.064	24791
836.202	24825
836.34	24947
836.478	24966
836.615	24954
836.753	25076
836.891	25031
837.029	24901
837.167	24909
837.305	24814
837.443	24817
837.58	24829
837.718	24886
837.856	24798
837.993	24684
838.131	24764
838.269	24692
838.406	24768
838.544	24532
838.681	24437
838.819	24437
838.956	24311
839.094	24384
839.231	24334
839.369	24585
839.506	24525
839.643	24490
839.781	24239
839.918	24209
840.055	24292
840.193	24224
840.33	24209
840.467	24174
840.604	24125
840.742	24334
840.879	24098
841.016	24041
841.153	24083
841.29	24372
841.427	24186
841.564	24262
841.701	24003
841.838	24026
841.975	23973
842.112	24114
842.249	23935
842.385	24072
842.522	24087
842.659	24121
842.796	23733
842.933	23832
843.069	23897
843.206	23828
843.343	23893
843.479	23969
843.616	23912
843.752	23752
843.889	23779
844.025	23794
844.162	23665
844.298	23741
844.435	23646
844.571	23627
844.708	23649
844.844	23904
844.98	23916
845.117	23794
845.253	23562
845.389	23611
845.525	23543
845.661	23512
845.798	23307
845.934	23490
846.07	23444
846.206	23509
846.342	23554
846.478	23379
846.614	23288
846.75	23147
846.886	23223
847.022	23220
847.158	23113
847.294	23151
847.429	23124
847.565	22976
847.701	23425
847.837	22809
847.972	22866
848.108	23010
848.244	23010
848.379	22717
848.515	22687
848.65	22675
848.786	22694
848.921	22733
849.057	22831
849.192	22820
849.328	22759
849.463	22790
849.598	22683
849.734	22672
849.869	22516
850.004	22428
850.14	22504
850.275	22504
850.41	22451
850.545	22394
850.68	22382
850.815	22459
850.95	22451
851.085	22599
851.22	22603
851.355	22470
851.49	22557
851.625	22409
851.76	22527
851.895	22310
852.03	22417
852.165	22527
852.299	22512
852.434	22580
852.569	22561
852.703	22447
852.838	22592
852.973	22584
853.107	22634
853.242	22413
853.376	22329
853.511	22272
853.645	22352
853.78	22421
853.914	22402
854.048	22246
854.183	22272
854.317	22322
854.451	22405
854.585	22272
854.72	22303
854.854	22398
854.988	22204
855.122	22390
855.256	22105
855.39	22360
855.524	22348
855.658	22318
855.792	22204
855.926	22356
856.06	22295
856.194	22280
856.327	22253
856.461	22333
856.595	22284
856.729	22185
856.862	22333
856.996	22265
857.13	22417
857.263	22512
857.397	22405
857.53	22261
857.664	22341
857.797	22280
857.931	22405
858.064	22325
858.197	22440
858.331	22105
858.464	22234
858.597	22086
858.731	22265
858.864	22192
858.997	22322
859.13	22253
859.263	22329
859.396	22409
859.529	22242
859.662	22226
859.795	22131
859.928	22223
860.061	22523
860.194	22489
860.327	22314
860.46	22447
860.592	22356
860.725	22379
860.858	22500
860.99	22402
861.123	22268
861.256	22352
861.388	22341
861.521	22930
861.653	22158
861.786	22105
861.918	22215
862.05	22169
862.183	22234
862.315	22299
862.447	22325
862.58	22185
862.712	22093
862.844	21953
862.976	22013
863.108	22044
863.24	22276
863.372	21918
863.504	22059
863.636	22032
863.768	22139
863.9	21945
864.032	21880
864.164	21983
864.296	22101
864.428	22086
864.559	22101
864.691	22074
864.823	22010
864.954	21895
865.086	22010
865.217	21968
865.349	21717
865.48	21873
865.612	21888
865.743	22040
865.875	21964
866.006	21793
866.137	21846
866.269	21945
866.4	21850
866.531	21964
866.662	21698
866.793	21861
866.924	21789
867.055	21850
867.186	21857
867.317	21888
867.448	21770
867.579	21759
867.71	21778
867.841	21690
867.972	21812
868.103	21846
868.233	21766
868.364	21880
868.495	21854
868.625	22128
868.756	22120
868.886	21934
869.017	22078
869.147	22192
869.278	22173
869.408	21983
869.539	21960
869.669	22154
869.799	22158
869.929	22204
870.06	22116
870.19	22360
870.32	22287
870.45	22436
870.58	22523
870.71	22630
870.84	22455
870.97	22367
871.1	22557
871.23	22630
871.36	22569
871.489	22478
871.619	22561
871.749	22679
871.879	22713
872.008	22831
872.138	22497
872.267	22592
872.397	22588
872.526	22481
872.656	22546
872.785	22531
872.915	22615
873.044	22710
873.173	22656
873.303	22683
873.432	22759
873.561	22896
873.69	22626
873.819	22736
873.948	22687
874.077	22622
874.206	22706
874.335	22812
874.464	22763
874.593	22858
874.722	22949
874.851	23033
874.979	22934
875.108	22862
875.237	22896
875.365	22755
875.494	22908
875.623	23041
875.751	22850
875.88	22904
876.008	22984
876.136	23151
876.265	23181
876.393	23410
876.521	23505
876.65	23356
876.778	23292
876.906	23299
877.034	23220
877.162	23318
877.29	23227
877.418	23220
877.546	23086
877.674	23189
877.802	23227
877.93	23071
878.058	23140
878.185	23124
878.313	23121
878.441	23200
878.568	23071
878.696	23151
878.824	23322
878.951	23360
879.079	23398
879.206	23608
879.333	23493
879.461	23227
879.588	23292
879.715	23436
879.842	23467
879.97	23345
880.097	23140
880.224	22995
880.351	23090
880.478	23044
880.605	22949
880.732	23029
880.859	23341
880.986	23056
881.112	23014
881.239	22717
881.366	22653
881.493	22733
881.619	22580
881.746	22626
881.872	22573
881.999	22538
882.125	22470
882.252	22599
882.378	22649
882.505	22778
882.631	22588
882.757	22287
882.883	22363
883.01	22337
883.136	22242
883.262	22147
883.388	22116
883.514	22257
883.64	22322
883.766	22048
883.892	22059
884.018	22090
884.143	22333
884.269	22249
884.395	21983
884.52	21876
884.646	21956
884.772	21930
884.897	21766
885.023	21884
885.148	21953
885.274	22131
885.399	22025
885.524	21888
885.65	21934
885.775	21934
885.9	21869
886.025	22032
886.15	21937
886.275	21895
886.4	21766
886.525	21854
886.65	21819
886.775	21739
886.9	21926
887.025	22059
887.149	22025
887.274	21785
887.399	21698
887.523	21660
887.648	21652
887.773	21500
887.897	21743
888.021	21812
888.146	21610
888.27	21895
888.395	21720
888.519	21667
888.643	21671
888.767	21610
888.891	21629
889.015	21511
889.139	21481
889.263	21401
889.387	21671
889.511	21614
889.635	21667
889.759	21507
889.883	21439
890.006	21447
890.13	21477
890.254	21355
890.377	21485
890.501	21116
890.624	21199
890.748	21294
890.871	21119
890.995	21039
891.118	21051
891.241	21020
891.364	21055
891.488	21093
891.611	21066
891.734	21036
891.857	21096
891.98	21017
892.103	20998
892.226	21051
892.349	20933
892.471	20887
892.594	20937
892.717	21058
892.839	20933
892.962	20979
893.085	20986
893.207	20845
893.33	20872
893.452	20899
893.575	20895
893.697	20857
893.819	20925
893.941	21192
894.064	21062
894.186	20826
894.308	20792
894.43	20944
894.552	21093
894.674	20998
894.796	20918
894.918	20826
895.04	20788
895.161	20941
895.283	20918
895.405	20895
895.526	20876
895.648	20887
895.769	20994
895.891	20861
896.012	21043
896.134	20872
896.255	20960
896.376	20826
896.498	20876
896.619	20868
896.74	20887
896.861	20952
896.982	21173
897.103	21367
897.224	21230
897.345	21104
897.466	21081
897.587	21211
897.708	21131
897.828	21119
897.949	20963
898.07	20857
898.19	20944
898.311	21157
898.431	21001
898.552	21154
898.672	21081
898.792	21119
898.913	21043
899.033	21032
899.153	20834
899.273	20758
899.393	20781
899.513	20891
899.633	20800
899.753	20819
899.873	20716
899.993	20845
900.113	20712
900.232	20880
900.352	20686
900.472	20640
900.591	20507
900.711	20644
900.83	20590
900.95	20632
901.069	20613
901.189	20434
901.308	20210
901.427	20180
901.546	20168
901.665	20199
901.784	20301
901.904	20043
902.023	19932
902.141	19807
902.26	19708
902.379	19845
902.498	19791
902.617	19613
902.735	19803
902.854	19594
902.973	19655
903.091	19430
903.21	19255
903.328	19343
903.446	19213
903.565	19160
903.683	19255
903.801	19000
903.919	19145
904.038	19042
904.156	18916
904.274	18924
904.392	18859
904.51	18890
904.627	18806
904.745	18871
904.863	18871
904.981	18776
905.098	18578
905.216	18563
905.334	18677
905.451	18650
905.569	18407
905.686	18616
905.803	18574
905.921	18315
906.038	18475
906.155	18365
906.272	18289
906.389	18441
906.506	18110
906.623	18159
906.74	18072
906.857	17973
906.974	17969
907.091	18174
907.208	18178
907.324	18091
907.441	17999
907.557	17794
907.674	17836
907.79	17790
907.907	17813
908.023	17813
908.139	17798
908.256	17752
908.372	17718
908.488	17653
908.604	17611
908.72	17520
908.836	17467
908.952	17535
909.068	17516
909.184	17687
909.3	17516
909.415	17482
909.531	17524
909.647	17307
909.762	17174
909.878	17105
909.993	17242
910.108	17212
910.224	17117
910.339	17147
910.454	17079
910.57	17060
910.685	16995
910.8	17261
910.915	17159
911.03	16987
911.145	16809
911.259	16656
911.374	16812
911.489	16672
911.604	16645
911.718	16523
911.833	16622
911.947	16493
912.062	16363
912.176	16618
912.291	16535
912.405	16542
912.519	16733
912.633	16759
912.748	16664
912.862	16432
912.976	16337
913.09	16299
913.204	16360
913.318	16295
913.431	16394
913.545	16470
913.659	16421
913.772	16154
913.886	16223
914	16090
914.113	16306
914.226	16261
914.34	16166
914.453	15934
914.566	16177
914.68	16036
914.793	15899
914.906	15781
915.019	15785
915.132	15720
915.245	15743
915.358	15827
915.47	15736
915.583	15759
915.696	15675
915.809	15899
915.921	15800
916.034	15591
916.146	15629
916.259	15667
916.371	15743
916.483	15675
916.595	15580
916.708	15667
916.82	15447
916.932	15507
917.044	15530
917.156	15431
917.268	15310
917.38	15367
917.491	15268
917.603	15344
917.715	15477
917.826	15378
917.938	15332
918.049	15066
918.161	15313
918.272	15420
918.384	15435
918.495	15332
918.606	15135
918.717	15043
918.828	15108
918.939	15047
919.05	14994
919.161	15081
919.272	14864
919.383	15005
919.494	15070
919.604	15332
919.715	15165
919.826	15039
919.936	15085
920.047	15097
920.157	15043
920.267	15214
920.378	15108
920.488	14967
920.598	15237
920.708	15249
920.818	15173
920.928	15138
921.038	15382
921.148	15249
921.258	14971
921.368	14960
921.477	14800
921.587	14746
921.697	14545
921.806	14785
921.916	14549
922.025	14488
922.134	14434
922.244	14461
922.353	14461
922.462	14298
922.571	14267
922.68	14107
922.789	14073
922.898	14168
923.007	14012
923.116	14043
923.224	13978
923.333	14062
923.442	13890
923.55	13902
923.659	13955
923.767	13978
923.876	13814
923.984	13902
924.092	13803
924.201	13753
924.309	13795
924.417	13750
924.525	13719
924.633	13670
924.741	14556
924.849	13472
924.956	13693
925.064	13506
925.172	13369
925.279	13491
925.387	13441
925.494	13407
925.602	13529
925.709	13438
925.816	13377
925.924	13388
926.031	13422
926.138	13434
926.245	13445
926.352	13259
926.459	13453
926.566	13430
926.673	13247
926.779	13183
926.886	13183
926.993	13110
927.099	12947
927.206	12916
927.312	12905
927.419	12993
927.525	13061
927.631	13084
927.737	12852
927.843	12871
927.95	12719
928.056	12810
928.162	12894
928.267	12814
928.373	13324
928.479	12856
928.585	12551
928.69	12669
928.796	12787
928.901	12711
929.007	12574
929.112	12726
929.218	12692
929.323	12540
929.428	12547
929.533	12662
929.638	12486
929.743	12551
929.848	12555
929.953	12513
930.058	12384
930.163	12273
930.267	12232
930.372	12353
930.477	12224
930.581	12357
930.685	12308
930.79	12087
930.894	12102
930.998	12045
931.103	12243
931.207	11859
931.311	11737
931.415	11695
931.519	11532
931.623	11433
