Data from test_V78500241_2019.txt Node
Date: Fri Mar 25 15:55:47 CST 2022
User: usil
Spectrometer: V785-0024
Trigger mode: 0
Integration Time (sec): 4.000000E-1
Scans to average: 1
Nonlinearity correction enabled: false
Boxcar width: 0
Storing dark spectrum: false
XAxis mode: Wavelengths
Number of Pixels in Spectrum: 1024
>>>>>Begin Spectral Data<<<<<
801.071	28314
801.214	28405
801.356	28040
801.499	28070
801.641	27945
801.783	28135
801.926	28135
802.068	27964
802.211	28070
802.353	27968
802.496	27728
802.638	27717
802.78	27656
802.923	27728
803.065	27675
803.208	27583
803.35	27766
803.492	27709
803.635	27979
803.777	27804
803.919	27953
804.061	28238
804.204	27934
804.346	27861
804.488	27876
804.63	27854
804.773	27816
804.915	27956
805.057	28032
805.199	27884
805.341	27987
805.483	28143
805.626	28036
805.768	27956
805.91	27972
806.052	28078
806.194	27945
806.336	28120
806.478	28063
806.62	28048
806.762	28223
806.904	28295
807.046	28683
807.188	28607
807.33	28557
807.472	28466
807.614	28538
807.756	28382
807.898	28344
808.04	28363
808.182	28310
808.324	28291
808.465	28352
808.607	28664
808.749	28740
808.891	28824
809.033	28866
809.174	28805
809.316	28793
809.458	28675
809.6	28748
809.741	28835
809.883	28930
810.025	29022
810.166	29048
810.308	28942
810.45	29010
810.591	28911
810.733	28721
810.875	28622
811.016	28637
811.158	28611
811.299	28763
811.441	28850
811.582	28968
811.724	28892
811.865	28736
812.007	28687
812.148	28820
812.29	28740
812.431	28858
812.573	28927
812.714	29075
812.855	29318
812.997	29356
813.138	29562
813.279	29379
813.421	29284
813.562	29124
813.703	28934
813.845	28923
813.986	28645
814.127	28497
814.268	28428
814.41	28421
814.551	28386
814.692	28519
814.833	28424
814.974	28413
815.115	28489
815.256	28344
815.397	28211
815.539	28303
815.68	28246
815.821	28124
815.962	28314
816.103	28284
816.244	28147
816.385	28070
816.526	27941
816.666	27835
816.807	27759
816.948	27850
817.089	27922
817.23	27728
817.371	27663
817.512	27595
817.653	27549
817.793	27652
817.934	27743
818.075	27743
818.216	27713
818.356	27728
818.497	27774
818.638	27393
818.778	27523
818.919	27564
819.06	27443
819.2	27564
819.341	27557
819.481	27675
819.622	27922
819.762	28128
819.903	28143
820.043	28048
820.184	27831
820.324	27930
820.465	27907
820.605	27953
820.746	27762
820.886	27812
821.026	27739
821.167	27682
821.307	27846
821.447	27770
821.588	27667
821.728	27435
821.868	27443
822.008	27226
822.149	27268
822.289	27199
822.429	26960
822.569	26990
822.709	26830
822.849	26826
822.99	26708
823.13	26674
823.27	26583
823.41	26667
823.55	26549
823.69	26587
823.83	26708
823.97	26609
824.11	26419
824.25	26252
824.389	26252
824.529	26480
824.669	26415
824.809	26484
824.949	26332
825.089	26400
825.228	26545
825.368	26210
825.508	26195
825.648	26427
825.787	26290
825.927	26347
826.067	26122
826.206	26233
826.346	26328
826.485	26263
826.625	26336
826.765	26301
826.904	26336
827.044	25909
827.183	26020
827.323	25871
827.462	26077
827.601	25887
827.741	26035
827.88	26012
828.02	25940
828.159	25898
828.298	25940
828.437	26054
828.577	25982
828.716	26168
828.855	25864
828.994	25537
829.134	25658
829.273	25742
829.412	25540
829.551	25624
829.69	25685
829.829	25666
829.968	25769
830.107	25624
830.246	25666
830.385	25628
830.524	25518
830.663	25422
830.802	25343
830.941	25278
831.08	25202
831.219	25259
831.357	25304
831.496	25544
831.635	25255
831.774	25343
831.913	25107
832.051	25046
832.19	24954
832.329	25046
832.467	25031
832.606	24867
832.744	24928
832.883	24958
833.022	24829
833.16	24863
833.299	25061
833.437	24981
833.576	25095
833.714	24996
833.852	25046
833.991	25057
834.129	25148
834.267	24947
834.406	25015
834.544	24954
834.682	24943
834.821	24985
834.959	25171
835.097	24878
835.235	25046
835.373	24962
835.511	24966
835.65	24829
835.788	24966
835.926	24703
836.064	24555
836.202	24681
836.34	24829
836.478	24970
836.615	24749
836.753	24863
836.891	24890
837.029	24829
837.167	24776
837.305	24639
837.443	24760
837.58	24696
837.718	24623
837.856	24715
837.993	24601
838.131	24623
838.269	24578
838.406	24582
838.544	24570
838.681	24281
838.819	24205
838.956	24167
839.094	24026
839.231	24121
839.369	24235
839.506	24525
839.643	24315
839.781	24155
839.918	24026
840.055	24003
840.193	24034
840.33	24026
840.467	24228
840.604	24064
840.742	24296
840.879	23965
841.016	24098
841.153	23882
841.29	24057
841.427	24045
841.564	23977
841.701	23889
841.838	23904
841.975	23832
842.112	23843
842.249	23836
842.385	23908
842.522	24007
842.659	23760
842.796	23767
842.933	23824
843.069	23615
843.206	23817
843.343	23798
843.479	23893
843.616	23805
843.752	23558
843.889	23653
844.025	23619
844.162	23509
844.298	23733
844.435	23634
844.571	23535
844.708	23554
844.844	23726
844.98	23668
845.117	23619
845.253	23535
845.389	23433
845.525	23410
845.661	23474
845.798	23406
845.934	23334
846.07	23178
846.206	23261
846.342	23353
846.478	23258
846.614	23242
846.75	22968
846.886	23029
847.022	23041
847.158	22965
847.294	22946
847.429	23037
847.565	22919
847.701	23181
847.837	22752
847.972	22664
848.108	22835
848.244	22847
848.379	22573
848.515	22538
848.65	22660
848.786	22493
848.921	22660
849.057	22767
849.192	22748
849.328	22634
849.463	22599
849.598	22542
849.734	22512
849.869	22417
850.004	22219
850.14	22424
850.275	22310
850.41	22272
850.545	22268
850.68	22344
850.815	22371
850.95	22325
851.085	22455
851.22	22402
851.355	22333
851.49	22348
851.625	22390
851.76	22261
851.895	22261
852.03	22246
852.165	22280
852.299	22303
852.434	22432
852.569	22421
852.703	22390
852.838	22417
852.973	22485
853.107	22371
853.242	22352
853.376	22158
853.511	22192
853.645	22128
853.78	22375
853.914	22158
854.048	22211
854.183	22181
854.317	22249
854.451	22363
854.585	22173
854.72	22177
854.854	22181
854.988	22166
855.122	22188
855.256	22032
855.39	22181
855.524	22230
855.658	22139
855.792	22192
855.926	22207
856.06	22200
856.194	22242
856.327	22188
856.461	22090
856.595	22112
856.729	22101
856.862	22219
856.996	22230
857.13	22192
857.263	22261
857.397	22291
857.53	22101
857.664	22272
857.797	22287
857.931	22238
858.064	22109
858.197	22333
858.331	22173
858.464	22185
858.597	22116
858.731	22093
858.864	22169
858.997	22074
859.13	22154
859.263	22185
859.396	22284
859.529	22188
859.662	22097
859.795	22268
859.928	22112
860.061	22318
860.194	22329
860.327	22207
860.46	22325
860.592	22261
860.725	22352
860.858	22310
860.99	22128
861.123	22135
861.256	22196
861.388	22192
861.521	22786
861.653	22086
861.786	21968
861.918	22048
862.05	21998
862.183	22166
862.315	22090
862.447	22211
862.58	22112
862.712	22002
862.844	21823
862.976	21934
863.108	21934
863.24	22455
863.372	21873
863.504	21926
863.636	21717
863.768	21884
863.9	21846
864.032	21717
864.164	21819
864.296	21915
864.428	22040
864.559	21998
864.691	21823
864.823	21972
864.954	21945
865.086	21865
865.217	21762
865.349	21762
865.48	21812
865.612	21732
865.743	21915
865.875	21861
866.006	21644
866.137	21819
866.269	21892
866.4	21854
866.531	21736
866.662	21724
866.793	21671
866.924	21770
867.055	21709
867.186	21690
867.317	21606
867.448	21690
867.579	21603
867.71	21736
867.841	21686
867.972	21603
868.103	21739
868.233	21785
868.364	21701
868.495	21804
868.625	21930
868.756	22013
868.886	21911
869.017	21983
869.147	22040
869.278	22006
869.408	22002
869.539	21865
869.669	22002
869.799	21892
869.929	22078
870.06	22086
870.19	22215
870.32	22219
870.45	22303
870.58	22333
870.71	22348
870.84	22440
870.97	22424
871.1	22341
871.23	22447
871.36	22489
871.489	22508
871.619	22565
871.749	22550
871.879	22546
872.008	22641
872.138	22531
872.267	22485
872.397	22382
872.526	22333
872.656	22432
872.785	22356
872.915	22538
873.044	22653
873.173	22489
873.303	22660
873.432	22672
873.561	22706
873.69	22535
873.819	22538
873.948	22694
874.077	22561
874.206	22478
874.335	22611
874.464	22649
874.593	22786
874.722	22755
874.851	22831
874.979	22873
875.108	22831
875.237	22660
875.365	22656
875.494	22691
875.623	22816
875.751	22717
875.88	22733
876.008	22946
876.136	22892
876.265	23162
876.393	23239
876.521	23322
876.65	23155
876.778	23113
876.906	23155
877.034	23181
877.162	23178
877.29	23003
877.418	23151
877.546	23136
877.674	23128
877.802	23151
877.93	23105
878.058	23067
878.185	23003
878.313	23109
878.441	23132
878.568	22843
878.696	23071
878.824	23086
878.951	23258
879.079	23227
879.206	23417
879.333	23277
879.461	23044
879.588	23258
879.715	23242
879.842	23383
879.97	23143
880.097	22866
880.224	22812
880.351	22972
880.478	23003
880.605	22900
880.732	22923
880.859	23147
880.986	22908
881.112	22847
881.239	22854
881.366	22660
881.493	22512
881.619	22493
881.746	22577
881.872	22550
881.999	22447
882.125	22462
882.252	22443
882.378	22546
882.505	22538
882.631	22322
882.757	22310
882.883	22337
883.01	22188
883.136	22166
883.262	22082
883.388	22086
883.514	22192
883.64	22246
883.766	22177
883.892	21987
884.018	21975
884.143	22044
884.269	22185
884.395	21945
884.52	21743
884.646	21846
884.772	21781
884.897	21732
885.023	21850
885.148	21869
885.274	21953
885.399	21937
885.524	21972
885.65	21827
885.775	21736
885.9	21876
886.025	21956
886.15	21876
886.275	21724
886.4	21770
886.525	21766
886.65	21759
886.775	21793
886.9	21880
887.025	21968
887.149	21850
887.274	21633
887.399	21652
887.523	21743
887.648	21545
887.773	21564
887.897	21572
888.021	21595
888.146	21542
888.27	21614
888.395	21492
888.519	21564
888.643	21545
888.767	21618
888.891	21428
889.015	21237
889.139	21408
889.263	21443
889.387	21492
889.511	21595
889.635	21488
889.759	21348
889.883	21363
890.006	21325
890.13	21420
890.254	21142
890.377	21279
890.501	21138
890.624	21119
890.748	21275
890.871	20979
890.995	20914
891.118	21001
891.241	20967
891.364	20982
891.488	21096
891.611	20925
891.734	20937
891.857	20960
891.98	20826
892.103	20895
892.226	20971
892.349	20941
892.471	20712
892.594	20906
892.717	20868
892.839	20796
892.962	20861
893.085	20849
893.207	20796
893.33	20762
893.452	20762
893.575	20849
893.697	20716
893.819	21096
893.941	21043
894.064	20902
894.186	20765
894.308	20716
894.43	20971
894.552	20979
894.674	20921
894.796	20735
894.918	20754
895.04	20701
895.161	20842
895.283	20872
895.405	20754
895.526	20731
895.648	20823
895.769	20845
895.891	20872
896.012	20906
896.134	20712
896.255	20785
896.376	20773
896.498	20880
896.619	20872
896.74	20804
896.861	20872
896.982	21135
897.103	21275
897.224	21066
897.345	21024
897.466	20937
897.587	21089
897.708	21131
897.828	21032
897.949	21070
898.07	20834
898.19	20910
898.311	21211
898.431	20902
898.552	20994
898.672	21070
898.792	20982
898.913	21013
899.033	20941
899.153	20906
899.273	20739
899.393	20777
899.513	20720
899.633	20769
899.753	20743
899.873	20705
899.993	20792
900.113	20697
900.232	20716
900.352	20609
900.472	20507
900.591	20590
900.711	20492
900.83	20590
900.95	20644
901.069	20697
901.189	20438
901.308	20240
901.427	20039
901.546	19997
901.665	20100
901.784	20039
901.904	19875
902.023	19902
902.141	19575
902.26	19628
902.379	19757
902.498	19643
902.617	19529
902.735	19681
902.854	19556
902.973	19586
903.091	19350
903.21	19335
903.328	19343
903.446	19285
903.565	19129
903.683	19126
903.801	19004
903.919	18973
904.038	19027
904.156	18798
904.274	18802
904.392	18791
904.51	18753
904.627	18863
904.745	18840
904.863	18920
904.981	18692
905.098	18452
905.216	18593
905.334	18528
905.451	18509
905.569	18532
905.686	18536
905.803	18540
905.921	18334
906.038	18498
906.155	18323
906.272	18209
906.389	18281
906.506	18095
906.623	18019
906.74	18030
906.857	17954
906.974	17851
907.091	18095
907.208	18174
907.324	18057
907.441	17969
907.557	17783
907.674	17809
907.79	17634
907.907	17756
908.023	17821
908.139	17741
908.256	17760
908.372	17699
908.488	17630
908.604	17490
908.72	17444
908.836	17554
908.952	17368
909.068	17410
909.184	17493
909.3	17467
909.415	17433
909.531	17547
909.647	17239
909.762	17227
909.878	17124
909.993	17223
910.108	17041
910.224	17083
910.339	17159
910.454	17022
910.57	17052
910.685	16892
910.8	17223
910.915	17159
911.03	16953
911.145	16725
911.259	16755
911.374	16816
911.489	16771
911.604	16611
911.718	16462
911.833	16500
911.947	16466
912.062	16436
912.176	16512
912.291	16455
912.405	16519
912.519	16710
912.633	16649
912.748	16607
912.862	16447
912.976	16322
913.09	16181
913.204	16101
913.318	16284
913.431	16405
913.545	16352
913.659	16428
913.772	16223
913.886	16109
914	16215
914.113	16204
914.226	16105
914.34	16207
914.453	15949
914.566	16101
914.68	15945
914.793	15949
914.906	15800
915.019	15747
915.132	15663
915.245	15679
915.358	15629
915.47	15842
915.583	15774
915.696	15709
915.809	15766
915.921	15873
916.034	15595
916.146	15580
916.259	15591
916.371	15648
916.483	15568
916.595	15564
916.708	15538
916.82	15511
916.932	15466
917.044	15538
917.156	15428
917.268	15275
917.38	15401
917.491	15252
917.603	15378
917.715	15401
917.826	15435
917.938	15294
918.049	15298
918.161	15279
918.272	15348
918.384	15329
918.495	15222
918.606	15051
918.717	14956
918.828	15089
918.939	15058
919.05	14933
919.161	15047
919.272	14902
919.383	14963
919.494	15055
919.604	15226
919.715	14975
919.826	14842
919.936	14929
920.047	14937
920.157	15028
920.267	15157
920.378	15036
920.488	15013
920.598	15233
920.708	15336
920.818	15188
920.928	15131
921.038	15348
921.148	15268
921.258	14990
921.368	14906
921.477	14754
921.587	14777
921.697	14644
921.806	14754
921.916	14526
922.025	14370
922.134	14442
922.244	14339
922.353	14461
922.462	14206
922.571	14221
922.68	14176
922.789	14123
922.898	14016
923.007	13997
923.116	14164
923.224	14024
923.333	14054
923.442	13852
923.55	13852
923.659	13784
923.767	13944
923.876	13765
923.984	13868
924.092	13788
924.201	13742
924.309	13772
924.417	13803
924.525	13769
924.633	13765
924.741	14522
924.849	13540
924.956	13734
925.064	13495
925.172	13373
925.279	13502
925.387	13537
925.494	13392
925.602	13575
925.709	13567
925.816	13304
925.924	13327
926.031	13506
926.138	13270
926.245	13354
926.352	13236
926.459	13434
926.566	13415
926.673	13251
926.779	13122
926.886	13179
926.993	12939
927.099	12996
927.206	12901
927.312	12916
927.419	12966
927.525	12951
927.631	12977
927.737	12814
927.843	12810
927.95	12745
928.056	12776
928.162	12779
928.267	12806
928.373	13354
928.479	12859
928.585	12601
928.69	12745
928.796	12703
928.901	12627
929.007	12517
929.112	12623
929.218	12627
929.323	12452
929.428	12502
929.533	12578
929.638	12414
929.743	12437
929.848	12536
929.953	12388
930.058	12296
930.163	12152
930.267	12239
930.372	12330
930.477	12110
930.581	12300
930.685	12232
930.79	12038
930.894	12026
930.998	11992
931.103	12152
931.207	11729
931.311	11783
931.415	11619
931.519	11433
931.623	11433
