Data from test_V78500241_3655.txt Node
Date: Fri Mar 25 16:07:07 CST 2022
User: usil
Spectrometer: V785-0024
Trigger mode: 0
Integration Time (sec): 4.000000E-1
Scans to average: 1
Nonlinearity correction enabled: false
Boxcar width: 0
Storing dark spectrum: false
XAxis mode: Wavelengths
Number of Pixels in Spectrum: 1024
>>>>>Begin Spectral Data<<<<<
801.071	28519
801.214	28390
801.356	28257
801.499	28242
801.641	28242
801.783	28124
801.926	28177
802.068	28139
802.211	27979
802.353	27994
802.496	27861
802.638	27671
802.78	27819
802.923	27827
803.065	27618
803.208	27751
803.35	27873
803.492	27861
803.635	28112
803.777	28010
803.919	28010
804.061	28325
804.204	28082
804.346	27991
804.488	27907
804.63	27953
804.773	27941
804.915	28154
805.057	28147
805.199	28032
805.341	28143
805.483	28169
805.626	28143
805.768	28207
805.91	28219
806.052	28097
806.194	28207
806.336	28367
806.478	28234
806.62	28219
806.762	28268
806.904	28405
807.046	28793
807.188	28588
807.33	28626
807.472	28771
807.614	28561
807.756	28668
807.898	28424
808.04	28421
808.182	28272
808.324	28516
808.465	28348
808.607	28599
808.749	29018
808.891	28881
809.033	28934
809.174	28900
809.316	28702
809.458	28771
809.6	28892
809.741	28896
809.883	28927
810.025	29174
810.166	29200
810.308	29170
810.45	29052
810.591	29098
810.733	28862
810.875	29033
811.016	28866
811.158	28774
811.299	28919
811.441	28965
811.582	28957
811.724	28847
811.865	28896
812.007	28915
812.148	28854
812.29	28957
812.431	29025
812.573	29345
812.714	29307
812.855	29455
812.997	29577
813.138	29619
813.279	29562
813.421	29242
813.562	29398
813.703	29269
813.845	29170
813.986	28923
814.127	28577
814.268	28542
814.41	28596
814.551	28557
814.692	28596
814.833	28493
814.974	28611
815.115	28694
815.256	28428
815.397	28508
815.539	28413
815.68	28341
815.821	28246
815.962	28424
816.103	28466
816.244	28276
816.385	28196
816.526	28074
816.666	28013
816.807	27789
816.948	27972
817.089	27880
817.23	27880
817.371	27842
817.512	27789
817.653	27907
817.793	27797
817.934	27781
818.075	28017
818.216	27914
818.356	27823
818.497	27724
818.638	27682
818.778	27641
818.919	27618
819.06	27789
819.2	27953
819.341	27857
819.481	27907
819.622	28063
819.762	28268
819.903	28196
820.043	27979
820.184	27960
820.324	28162
820.465	28059
820.605	28124
820.746	28021
820.886	27835
821.026	27991
821.167	27899
821.307	28021
821.447	28048
821.588	27759
821.728	27739
821.868	27606
822.008	27481
822.149	27382
822.289	27481
822.429	27184
822.569	27070
822.709	27116
822.849	26994
822.99	27005
823.13	26891
823.27	26845
823.41	26853
823.55	26629
823.69	26705
823.83	26712
823.97	26750
824.11	26511
824.25	26522
824.389	26526
824.529	26556
824.669	26571
824.809	26644
824.949	26640
825.089	26598
825.228	26640
825.368	26385
825.508	26400
825.648	26408
825.787	26400
825.927	26465
826.067	26442
826.206	26263
826.346	26518
826.485	26549
826.625	26457
826.765	26564
826.904	26537
827.044	26267
827.183	26256
827.323	26225
827.462	26244
827.601	26187
827.741	26157
827.88	26214
828.02	26001
828.159	26100
828.298	26191
828.437	26183
828.577	26092
828.716	26275
828.855	26130
828.994	25860
829.134	25913
829.273	25780
829.412	25826
829.551	25772
829.69	25799
829.829	25803
829.968	26012
830.107	25925
830.246	25955
830.385	25814
830.524	25780
830.663	25693
830.802	25639
830.941	25445
831.08	25449
831.219	25681
831.357	25468
831.496	25647
831.635	25578
831.774	25312
831.913	25396
832.051	25232
832.19	25206
832.329	25255
832.467	25164
832.606	25213
832.744	25175
832.883	25129
833.022	25084
833.16	24989
833.299	25339
833.437	25228
833.576	25198
833.714	25110
833.852	25278
833.991	25259
834.129	25316
834.267	25175
834.406	25168
834.544	25202
834.682	25053
834.821	25088
834.959	25445
835.097	25213
835.235	25217
835.373	25118
835.511	25190
835.65	25057
835.788	25076
835.926	24844
836.064	24776
836.202	24814
836.34	25122
836.478	25072
836.615	24992
836.753	25015
836.891	25042
837.029	25088
837.167	24935
837.305	24916
837.443	24817
837.58	24856
837.718	24814
837.856	24996
837.993	24817
838.131	24852
838.269	24829
838.406	24798
838.544	24696
838.681	24509
838.819	24502
838.956	24315
839.094	24407
839.231	24445
839.369	24456
839.506	24719
839.643	24505
839.781	24289
839.918	24216
840.055	24281
840.193	24228
840.33	24216
840.467	24216
840.604	24091
840.742	24555
840.879	24083
841.016	24121
841.153	24095
841.29	24247
841.427	24311
841.564	24262
841.701	24239
841.838	24209
841.975	24194
842.112	24235
842.249	24057
842.385	24007
842.522	24277
842.659	23988
842.796	24015
842.933	23859
843.069	23878
843.206	23889
843.343	23965
843.479	23889
843.616	24060
843.752	23638
843.889	23764
844.025	23889
844.162	23764
844.298	23889
844.435	23699
844.571	23805
844.708	23813
844.844	23980
844.98	23821
845.117	23931
845.253	23646
845.389	23653
845.525	23649
845.661	23562
845.798	23459
845.934	23417
846.07	23531
846.206	23551
846.342	23745
846.478	23505
846.614	23330
846.75	23185
846.886	23223
847.022	23258
847.158	23242
847.294	23124
847.429	23246
847.565	23170
847.701	23471
847.837	23029
847.972	22847
848.108	23033
848.244	23064
848.379	22919
848.515	22873
848.65	22812
848.786	22927
848.921	22858
849.057	22820
849.192	22831
849.328	22801
849.463	22911
849.598	22809
849.734	22774
849.869	22645
850.004	22516
850.14	22691
850.275	22569
850.41	22493
850.545	22478
850.68	22531
850.815	22641
850.95	22668
851.085	22873
851.22	22725
851.355	22573
851.49	22485
851.625	22531
851.76	22485
851.895	22626
852.03	22474
852.165	22664
852.299	22478
852.434	22542
852.569	22561
852.703	22557
852.838	22721
852.973	22759
853.107	22607
853.242	22478
853.376	22356
853.511	22325
853.645	22333
853.78	22611
853.914	22413
854.048	22306
854.183	22436
854.317	22493
854.451	22683
854.585	22538
854.72	22500
854.854	22493
854.988	22379
855.122	22436
855.256	22303
855.39	22421
855.524	22481
855.658	22409
855.792	22382
855.926	22455
856.06	22413
856.194	22485
856.327	22314
856.461	22367
856.595	22265
856.729	22402
856.862	22489
856.996	22398
857.13	22577
857.263	22519
857.397	22440
857.53	22242
857.664	22436
857.797	22432
857.931	22394
858.064	22428
858.197	22440
858.331	22402
858.464	22303
858.597	22295
858.731	22478
858.864	22352
858.997	22314
859.13	22325
859.263	22299
859.396	22371
859.529	22405
859.662	22318
859.795	22287
859.928	22394
860.061	22546
860.194	22569
860.327	22508
860.46	22382
860.592	22478
860.725	22531
860.858	22455
860.99	22455
861.123	22261
861.256	22394
861.388	22306
861.521	23155
861.653	22287
861.786	22116
861.918	22169
862.05	22219
862.183	22204
862.315	22268
862.447	22299
862.58	22341
862.712	22116
862.844	21991
862.976	22139
863.108	22200
863.24	22546
863.372	22097
863.504	22105
863.636	22017
863.768	22131
863.9	22078
864.032	22013
864.164	22032
864.296	22093
864.428	22272
864.559	22249
864.691	22124
864.823	21987
864.954	22013
865.086	22048
865.217	22032
865.349	21869
865.48	21911
865.612	22017
865.743	22131
865.875	22131
866.006	21998
866.137	21888
866.269	22036
866.4	21895
866.531	21991
866.662	21785
866.793	21892
866.924	21972
867.055	21907
867.186	21922
867.317	21880
867.448	21857
867.579	21823
867.71	21922
867.841	21876
867.972	21915
868.103	21778
868.233	21808
868.364	21831
868.495	21945
868.625	22162
868.756	22299
868.886	22090
869.017	22192
869.147	22173
869.278	22284
869.408	22120
869.539	22067
869.669	22238
869.799	22207
869.929	22181
870.06	22265
870.19	22493
870.32	22428
870.45	22462
870.58	22485
870.71	22626
870.84	22672
870.97	22535
871.1	22523
871.23	22778
871.36	22717
871.489	22577
871.619	22839
871.749	22687
871.879	22801
872.008	22771
872.138	22725
872.267	22694
872.397	22550
872.526	22653
872.656	22649
872.785	22622
872.915	22668
873.044	22774
873.173	22717
873.303	22767
873.432	22923
873.561	22809
873.69	22843
873.819	22778
873.948	22790
874.077	22740
874.206	22782
874.335	22771
874.464	22843
874.593	22946
874.722	22957
874.851	23117
874.979	23006
875.108	23014
875.237	22938
875.365	22820
875.494	23048
875.623	23022
875.751	22923
875.88	23014
876.008	23094
876.136	23349
876.265	23296
876.393	23604
876.521	23436
876.65	23433
876.778	23493
876.906	23395
877.034	23322
877.162	23322
877.29	23242
877.418	23345
877.546	23204
877.674	23258
877.802	23311
877.93	23280
878.058	23235
878.185	23220
878.313	23330
878.441	23151
878.568	23254
878.696	23143
878.824	23520
878.951	23356
879.079	23391
879.206	23558
879.333	23322
879.461	23444
879.588	23467
879.715	23448
879.842	23661
879.97	23433
880.097	23052
880.224	23140
880.351	23216
880.478	23075
880.605	23083
880.732	23025
880.859	23326
880.986	23159
881.112	23033
881.239	23117
881.366	22995
881.493	22812
881.619	22717
881.746	22816
881.872	22896
881.999	22596
882.125	22615
882.252	22698
882.378	22653
882.505	22771
882.631	22459
882.757	22257
882.883	22535
883.01	22367
883.136	22329
883.262	22219
883.388	22192
883.514	22421
883.64	22382
883.766	22295
883.892	22257
884.018	22234
884.143	22272
884.269	22344
884.395	22169
884.52	21949
884.646	21998
884.772	21911
884.897	21941
885.023	22029
885.148	21983
885.274	22093
885.399	21987
885.524	21975
885.65	21979
885.775	22055
885.9	21968
886.025	22112
886.15	22070
886.275	21884
886.4	21899
886.525	21979
886.65	21945
886.775	21949
886.9	22128
887.025	22192
887.149	21907
887.274	21819
887.399	21781
887.523	21835
887.648	21724
887.773	21766
887.897	21819
888.021	21808
888.146	21656
888.27	21793
888.395	21766
888.519	21781
888.643	21835
888.767	21701
888.891	21720
889.015	21572
889.139	21694
889.263	21530
889.387	21610
889.511	21819
889.635	21633
889.759	21504
889.883	21591
890.006	21603
890.13	21698
890.254	21500
890.377	21469
890.501	21367
890.624	21382
890.748	21397
890.871	21127
890.995	21165
891.118	20982
891.241	21112
891.364	21146
891.488	21184
891.611	21192
891.734	21165
891.857	21112
891.98	21020
892.103	21123
892.226	21058
892.349	21074
892.471	20895
892.594	20895
892.717	21135
892.839	20990
892.962	20948
893.085	21085
893.207	20910
893.33	20842
893.452	20963
893.575	20982
893.697	21032
893.819	21131
893.941	21188
894.064	21169
894.186	21032
894.308	20979
894.43	20998
894.552	21150
894.674	21066
894.796	20933
894.918	21020
895.04	21032
895.161	20971
895.283	20975
895.405	20925
895.526	20975
895.648	21005
895.769	21028
895.891	21051
896.012	20982
896.134	21001
896.255	21028
896.376	20971
896.498	20986
896.619	21085
896.74	21058
896.861	20982
896.982	21340
897.103	21454
897.224	21279
897.345	21192
897.466	21096
897.587	21058
897.708	21374
897.828	21207
897.949	21032
898.07	21009
898.19	21108
898.311	21188
898.431	21123
898.552	21108
898.672	21374
898.792	21165
898.913	21176
899.033	21112
899.153	20921
899.273	20868
899.393	20986
899.513	21032
899.633	20910
899.753	20864
899.873	20804
899.993	20982
900.113	20826
900.232	20864
900.352	20921
900.472	20739
900.591	20644
900.711	20678
900.83	20575
900.95	20689
901.069	20845
901.189	20602
901.308	20393
901.427	20313
901.546	20256
901.665	20225
901.784	20259
901.904	20111
902.023	20031
902.141	19814
902.26	19826
902.379	19902
902.498	19826
902.617	19799
902.735	19852
902.854	19662
902.973	19677
903.091	19480
903.21	19377
903.328	19388
903.446	19244
903.565	19232
903.683	19285
903.801	19065
903.919	19057
904.038	19194
904.156	19031
904.274	18981
904.392	19061
904.51	18985
904.627	18920
904.745	18996
904.863	18954
904.981	18715
905.098	18604
905.216	18650
905.334	18711
905.451	18601
905.569	18589
905.686	18673
905.803	18544
905.921	18426
906.038	18566
906.155	18437
906.272	18285
906.389	18311
906.506	18224
906.623	18205
906.74	18117
906.857	18057
906.974	18053
907.091	18266
907.208	18281
907.324	18148
907.441	18098
907.557	17904
907.674	17878
907.79	17840
907.907	17904
908.023	17847
908.139	17870
908.256	17805
908.372	17783
908.488	17775
908.604	17642
908.72	17623
908.836	17543
908.952	17604
909.068	17570
909.184	17589
909.3	17501
909.415	17646
909.531	17604
909.647	17318
909.762	17292
909.878	17334
909.993	17372
910.108	17227
910.224	17223
910.339	17296
910.454	17162
910.57	17052
910.685	16976
910.8	17299
910.915	17208
911.03	17136
911.145	16911
911.259	16786
911.374	16854
911.489	16797
911.604	16782
911.718	16687
911.833	16725
911.947	16550
912.062	16481
912.176	16596
912.291	16683
912.405	16599
912.519	16797
912.633	16774
912.748	16584
912.862	16508
912.976	16481
913.09	16375
913.204	16436
913.318	16455
913.431	16584
913.545	16500
913.659	16470
913.772	16421
913.886	16261
914	16150
914.113	16299
914.226	16360
914.34	16280
914.453	16154
914.566	16246
914.68	16162
914.793	16013
914.906	15956
915.019	15857
915.132	15812
915.245	15804
915.358	15865
915.47	15972
915.583	15778
915.696	15793
915.809	15918
915.921	15869
916.034	15808
916.146	15713
916.259	15660
916.371	15869
916.483	15827
916.595	15572
916.708	15633
916.82	15644
916.932	15641
917.044	15606
917.156	15542
917.268	15450
917.38	15504
917.491	15431
917.603	15447
917.715	15606
917.826	15526
917.938	15317
918.049	15256
918.161	15397
918.272	15530
918.384	15435
918.495	15340
918.606	15188
918.717	15066
918.828	15192
918.939	15184
919.05	15039
919.161	15123
919.272	14952
919.383	14963
919.494	15077
919.604	15310
919.715	15154
919.826	15100
919.936	15028
920.047	15233
920.157	15127
920.267	15310
920.378	15077
920.488	15024
920.598	15294
920.708	15466
920.818	15214
920.928	15287
921.038	15477
921.148	15294
921.258	15043
921.368	14910
921.477	14845
921.587	14823
921.697	14678
921.806	14857
921.916	14727
922.025	14621
922.134	14518
922.244	14415
922.353	14545
922.462	14377
922.571	14313
922.68	14180
922.789	14248
922.898	14172
923.007	14016
923.116	14088
923.224	14046
923.333	14016
923.442	13917
923.55	13940
923.659	13982
923.767	14016
923.876	13887
923.984	13974
924.092	13795
924.201	13871
924.309	13852
924.417	13837
924.525	13742
924.633	13750
924.741	14693
924.849	13571
924.956	13689
925.064	13605
925.172	13510
925.279	13441
925.387	13571
925.494	13422
925.602	13704
925.709	13468
925.816	13434
925.924	13510
926.031	13563
926.138	13468
926.245	13521
926.352	13350
926.459	13441
926.566	13396
926.673	13411
926.779	13202
926.886	13301
926.993	13118
927.099	13038
927.206	13004
927.312	12989
927.419	13023
927.525	12981
927.631	13114
927.737	12947
927.843	12852
927.95	12821
928.056	12791
928.162	12859
928.267	12829
928.373	13502
928.479	12958
928.585	12627
928.69	12810
928.796	12798
928.901	12665
929.007	12570
929.112	12753
929.218	12604
929.323	12719
929.428	12741
929.533	12692
929.638	12532
929.743	12441
929.848	12604
929.953	12559
930.058	12388
930.163	12209
930.267	12235
930.372	12525
930.477	12171
930.581	12338
930.685	12224
930.79	12186
930.894	12167
930.998	12144
931.103	12175
931.207	11893
931.311	11916
931.415	11729
931.519	11493
931.623	11497
