Data from test_V78500241_2000.txt Node
Date: Fri Mar 25 15:55:39 CST 2022
User: usil
Spectrometer: V785-0024
Trigger mode: 0
Integration Time (sec): 4.000000E-1
Scans to average: 1
Nonlinearity correction enabled: false
Boxcar width: 0
Storing dark spectrum: false
XAxis mode: Wavelengths
Number of Pixels in Spectrum: 1024
>>>>>Begin Spectral Data<<<<<
801.071	28478
801.214	28538
801.356	28489
801.499	28242
801.641	28112
801.783	28063
801.926	28169
802.068	28177
802.211	28139
802.353	27979
802.496	27945
802.638	27903
802.78	27789
802.923	27819
803.065	27728
803.208	27762
803.35	27888
803.492	28044
803.635	28017
803.777	27903
803.919	28055
804.061	28348
804.204	28090
804.346	27964
804.488	27907
804.63	28063
804.773	28010
804.915	28166
805.057	28268
805.199	28017
805.341	28276
805.483	28314
805.626	28265
805.768	28120
805.91	28265
806.052	28253
806.194	27991
806.336	28295
806.478	28329
806.62	28291
806.762	28314
806.904	28542
807.046	28721
807.188	28607
807.33	28672
807.472	28797
807.614	28611
807.756	28603
807.898	28691
808.04	28538
808.182	28470
808.324	28523
808.465	28774
808.607	28725
808.749	29029
808.891	28984
809.033	29014
809.174	28976
809.316	28816
809.458	28972
809.6	28850
809.741	28991
809.883	29056
810.025	29258
810.166	29121
810.308	29185
810.45	29124
810.591	29159
810.733	28843
810.875	28923
811.016	28919
811.158	28778
811.299	29071
811.441	29132
811.582	29113
811.724	28999
811.865	28858
812.007	28835
812.148	28984
812.29	29003
812.431	29155
812.573	29239
812.714	29368
812.855	29383
812.997	29558
813.138	29707
813.279	29661
813.421	29482
813.562	29372
813.703	29322
813.845	29105
813.986	28816
814.127	28672
814.268	28634
814.41	28664
814.551	28599
814.692	28782
814.833	28523
814.974	28516
815.115	28706
815.256	28504
815.397	28580
815.539	28348
815.68	28519
815.821	28466
815.962	28432
816.103	28348
816.244	28333
816.385	28299
816.526	28223
816.666	28013
816.807	27884
816.948	27941
817.089	28086
817.23	27979
817.371	27914
817.512	27911
817.653	27930
817.793	27846
817.934	27949
818.075	27850
818.216	27854
818.356	27884
818.497	27751
818.638	27694
818.778	27667
818.919	27785
819.06	27728
819.2	27880
819.341	27937
819.481	27907
819.622	28158
819.762	28295
819.903	28284
820.043	28150
820.184	28032
820.324	27975
820.465	28105
820.605	28124
820.746	28059
820.886	27892
821.026	28105
821.167	28006
821.307	28105
821.447	28116
821.588	27861
821.728	27637
821.868	27599
822.008	27374
822.149	27359
822.289	27332
822.429	27039
822.569	27058
822.709	27150
822.849	26918
822.99	26960
823.13	27001
823.27	26910
823.41	26845
823.55	26659
823.69	26743
823.83	26785
823.97	26689
824.11	26552
824.25	26511
824.389	26549
824.529	26796
824.669	26693
824.809	26655
824.949	26560
825.089	26674
825.228	26682
825.368	26469
825.508	26476
825.648	26396
825.787	26556
825.927	26564
826.067	26488
826.206	26415
826.346	26404
826.485	26526
826.625	26370
826.765	26606
826.904	26495
827.044	26157
827.183	26107
827.323	26145
827.462	26122
827.601	26233
827.741	26199
827.88	26214
828.02	26001
828.159	26115
828.298	26096
828.437	26168
828.577	26240
828.716	26206
828.855	26119
828.994	25841
829.134	25856
829.273	25807
829.412	25898
829.551	25769
829.69	25811
829.829	25788
829.968	25791
830.107	25993
830.246	25833
830.385	25784
830.524	25738
830.663	25624
830.802	25400
830.941	25445
831.08	25438
831.219	25453
831.357	25578
831.496	25533
831.635	25415
831.774	25438
831.913	25339
832.051	25263
832.19	25331
832.329	25274
832.467	25126
832.606	25122
832.744	25053
832.883	25206
833.022	25069
833.16	25137
833.299	25152
833.437	25247
833.576	25331
833.714	25156
833.852	25327
833.991	25209
834.129	25270
834.267	25255
834.406	25168
834.544	25190
834.682	25209
834.821	25137
834.959	25301
835.097	25122
835.235	25240
835.373	25179
835.511	25179
835.65	25103
835.788	25076
835.926	25004
836.064	24814
836.202	24757
836.34	24985
836.478	25171
836.615	24989
836.753	25053
836.891	24951
837.029	25000
837.167	24939
837.305	24970
837.443	24924
837.58	24924
837.718	24932
837.856	24875
837.993	24958
838.131	24859
838.269	24654
838.406	24696
838.544	24665
838.681	24585
838.819	24467
838.956	24327
839.094	24197
839.231	24350
839.369	24566
839.506	24627
839.643	24601
839.781	24338
839.918	24365
840.055	24266
840.193	24319
840.33	24209
840.467	24216
840.604	24384
840.742	24452
840.879	24045
841.016	24209
841.153	24095
841.29	24209
841.427	24327
841.564	24346
841.701	24110
841.838	24133
841.975	24049
842.112	24152
842.249	24034
842.385	23950
842.522	24201
842.659	24106
842.796	24007
842.933	23969
843.069	23912
843.206	23847
843.343	23923
843.479	23942
843.616	23851
843.752	23786
843.889	23691
844.025	24015
844.162	23752
844.298	23771
844.435	23634
844.571	23775
844.708	23809
844.844	23790
844.98	23824
845.117	23767
845.253	23714
845.389	23528
845.525	23623
845.661	23604
845.798	23482
845.934	23551
846.07	23360
846.206	23543
846.342	23497
846.478	23467
846.614	23360
846.75	23174
846.886	23284
847.022	23284
847.158	23254
847.294	23204
847.429	23113
847.565	23239
847.701	23299
847.837	22858
847.972	22820
848.108	23079
848.244	23010
848.379	22862
848.515	22733
848.65	22580
848.786	22717
848.921	22839
849.057	22915
849.192	22908
849.328	22862
849.463	22759
849.598	22713
849.734	22786
849.869	22653
850.004	22527
850.14	22531
850.275	22538
850.41	22531
850.545	22500
850.68	22607
850.815	22493
850.95	22481
851.085	22721
851.22	22618
851.355	22584
851.49	22550
851.625	22470
851.76	22508
851.895	22554
852.03	22466
852.165	22512
852.299	22424
852.434	22691
852.569	22500
852.703	22637
852.838	22713
852.973	22683
853.107	22611
853.242	22504
853.376	22409
853.511	22333
853.645	22341
853.78	22500
853.914	22413
854.048	22371
854.183	22348
854.317	22371
854.451	22584
854.585	22417
854.72	22390
854.854	22405
854.988	22318
855.122	22428
855.256	22234
855.39	22379
855.524	22390
855.658	22268
855.792	22417
855.926	22466
856.06	22440
856.194	22459
856.327	22348
856.461	22295
856.595	22409
856.729	22223
856.862	22451
856.996	22356
857.13	22436
857.263	22519
857.397	22504
857.53	22375
857.664	22413
857.797	22424
857.931	22546
858.064	22447
858.197	22603
858.331	22360
858.464	22257
858.597	22261
858.731	22223
858.864	22417
858.997	22295
859.13	22421
859.263	22352
859.396	22466
859.529	22333
859.662	22402
859.795	22360
859.928	22360
860.061	22618
860.194	22531
860.327	22356
860.46	22379
860.592	22481
860.725	22493
860.858	22512
860.99	22356
861.123	22322
861.256	22421
861.388	22432
861.521	23216
861.653	22295
861.786	22223
861.918	22185
862.05	22192
862.183	22223
862.315	22344
862.447	22402
862.58	22303
862.712	22120
862.844	22070
862.976	22143
863.108	22196
863.24	22584
863.372	21956
863.504	22040
863.636	22021
863.768	22188
863.9	22063
864.032	22017
864.164	22082
864.296	22158
864.428	22261
864.559	22200
864.691	22166
864.823	22173
864.954	22162
865.086	22090
865.217	21998
865.349	21850
865.48	21907
865.612	21930
865.743	22120
865.875	22135
866.006	22055
866.137	21964
866.269	21888
866.4	21949
866.531	21945
866.662	21907
866.793	21937
866.924	21975
867.055	21857
867.186	21785
867.317	21793
867.448	21842
867.579	21861
867.71	21800
867.841	21724
867.972	21949
868.103	21915
868.233	21987
868.364	21956
868.495	22055
868.625	22067
868.756	22246
868.886	21960
869.017	22169
869.147	22242
869.278	22249
869.408	22128
869.539	22196
869.669	22109
869.799	22173
869.929	22371
870.06	22284
870.19	22546
870.32	22344
870.45	22474
870.58	22569
870.71	22603
870.84	22611
870.97	22424
871.1	22443
871.23	22679
871.36	22786
871.489	22683
871.619	22626
871.749	22771
871.879	22721
872.008	22873
872.138	22763
872.267	22694
872.397	22630
872.526	22508
872.656	22691
872.785	22512
872.915	22713
873.044	22748
873.173	22713
873.303	22881
873.432	22782
873.561	22809
873.69	22805
873.819	22679
873.948	22755
874.077	22664
874.206	22565
874.335	22645
874.464	22824
874.593	22984
874.722	22961
874.851	22942
874.979	23048
875.108	23029
875.237	22930
875.365	22782
875.494	22892
875.623	22980
875.751	22911
875.88	22980
876.008	23006
876.136	23212
876.265	23334
876.393	23410
876.521	23474
876.65	23258
876.778	23334
876.906	23299
877.034	23277
877.162	23280
877.29	23280
877.418	23292
877.546	23387
877.674	23273
877.802	23208
877.93	23277
878.058	23292
878.185	23254
878.313	23220
878.441	23280
878.568	23064
878.696	23220
878.824	23391
878.951	23379
879.079	23326
879.206	23577
879.333	23467
879.461	23307
879.588	23395
879.715	23535
879.842	23493
879.97	23425
880.097	23181
880.224	23159
880.351	23147
880.478	22984
880.605	23098
880.732	23121
880.859	23383
880.986	23121
881.112	23242
881.239	23014
881.366	22889
881.493	22771
881.619	22683
881.746	22767
881.872	22660
881.999	22668
882.125	22569
882.252	22786
882.378	22599
882.505	22782
882.631	22485
882.757	22352
882.883	22478
883.01	22402
883.136	22356
883.262	22242
883.388	22280
883.514	22329
883.64	22447
883.766	22360
883.892	22169
884.018	22223
884.143	22390
884.269	22394
884.395	22078
884.52	22017
884.646	22036
884.772	21987
884.897	21892
885.023	22029
885.148	22265
885.274	22181
885.399	22154
885.524	21899
885.65	22002
885.775	22070
885.9	21918
886.025	22036
886.15	22101
886.275	21895
886.4	21956
886.525	21895
886.65	22029
886.775	21823
886.9	22109
887.025	22135
887.149	21926
887.274	21732
887.399	21755
887.523	21724
887.648	21842
887.773	21637
887.897	21838
888.021	21812
888.146	21618
888.27	21846
888.395	21854
888.519	21808
888.643	21804
888.767	21770
888.891	21751
889.015	21492
889.139	21572
889.263	21523
889.387	21671
889.511	21842
889.635	21686
889.759	21458
889.883	21477
890.006	21557
890.13	21648
890.254	21355
890.377	21435
890.501	21256
890.624	21332
890.748	21428
890.871	21325
890.995	21154
891.118	21070
891.241	21154
891.364	21142
891.488	21283
891.611	21070
891.734	21009
891.857	21207
891.98	21093
892.103	21104
892.226	21119
892.349	21077
892.471	20982
892.594	21085
892.717	21055
892.839	21070
892.962	20941
893.085	21062
893.207	20952
893.33	20834
893.452	20952
893.575	21081
893.697	20982
893.819	20963
893.941	21252
894.064	21066
894.186	20941
894.308	20845
894.43	21161
894.552	21150
894.674	21070
894.796	20880
894.918	20910
895.04	20883
895.161	20979
895.283	20960
895.405	20921
895.526	20933
895.648	20975
895.769	20944
895.891	21081
896.012	21066
896.134	21150
896.255	20998
896.376	20921
896.498	20956
896.619	20941
896.74	20891
896.861	21028
896.982	21264
897.103	21363
897.224	21199
897.345	21100
897.466	21154
897.587	21184
897.708	21252
897.828	21211
897.949	21100
898.07	21093
898.19	21249
898.311	21188
898.431	21032
898.552	21070
898.672	21195
898.792	21256
898.913	21256
899.033	21047
899.153	20887
899.273	20971
899.393	20944
899.513	20944
899.633	20876
899.753	20941
899.873	20800
899.993	20902
900.113	20811
900.232	20819
900.352	20788
900.472	20800
900.591	20625
900.711	20651
900.83	20640
900.95	20746
901.069	20906
901.189	20541
901.308	20396
901.427	20187
901.546	20282
901.665	20298
901.784	20202
901.904	20142
902.023	20024
902.141	19727
902.26	19822
902.379	19776
902.498	19909
902.617	19635
902.735	19791
902.854	19757
902.973	19734
903.091	19499
903.21	19396
903.328	19384
903.446	19339
903.565	19228
903.683	19179
903.801	19145
903.919	19225
904.038	19160
904.156	18890
904.274	19069
904.392	18939
904.51	18924
904.627	18947
904.745	18966
904.863	19065
904.981	18764
905.098	18681
905.216	18700
905.334	18658
905.451	18715
905.569	18696
905.686	18658
905.803	18673
905.921	18513
906.038	18494
906.155	18486
906.272	18350
906.389	18315
906.506	18254
906.623	18190
906.74	18220
906.857	18117
906.974	18030
907.091	18216
907.208	18262
907.324	18159
907.441	18083
907.557	17817
907.674	17889
907.79	17764
907.907	17798
908.023	17783
908.139	17870
908.256	17760
908.372	17821
908.488	17775
908.604	17665
908.72	17551
908.836	17551
908.952	17585
909.068	17497
909.184	17589
909.3	17570
909.415	17695
909.531	17570
909.647	17425
909.762	17318
909.878	17223
909.993	17326
910.108	17337
910.224	17242
910.339	17280
910.454	17170
910.57	17140
910.685	16980
910.8	17239
910.915	17200
911.03	17041
911.145	16984
911.259	16866
911.374	16767
911.489	16843
911.604	16729
911.718	16569
911.833	16653
911.947	16535
912.062	16516
912.176	16615
912.291	16500
912.405	16626
912.519	16706
912.633	16691
912.748	16679
912.862	16706
912.976	16489
913.09	16207
913.204	16386
913.318	16466
913.431	16443
913.545	16554
913.659	16519
913.772	16348
913.886	16242
914	16181
914.113	16314
914.226	16329
914.34	16185
914.453	16051
914.566	16211
914.68	16124
914.793	15998
914.906	15846
915.019	15854
915.132	15770
915.245	15804
915.358	15895
915.47	15823
915.583	15705
915.696	15800
915.809	15876
915.921	15953
916.034	15686
916.146	15713
916.259	15652
916.371	15720
916.483	15690
916.595	15599
916.708	15660
916.82	15656
916.932	15519
917.044	15504
917.156	15568
917.268	15473
917.38	15420
917.491	15344
917.603	15431
917.715	15530
917.826	15530
917.938	15355
918.049	15176
918.161	15370
918.272	15431
918.384	15488
918.495	15287
918.606	15218
918.717	15093
918.828	15245
918.939	15279
919.05	15104
919.161	15146
919.272	14929
919.383	15043
919.494	15249
919.604	15378
919.715	15074
919.826	14952
919.936	15085
920.047	15085
920.157	15123
920.267	15321
920.378	15142
920.488	15123
920.598	15348
920.708	15412
920.818	15218
920.928	15325
921.038	15443
921.148	15435
921.258	14952
921.368	14971
921.477	14823
921.587	14727
921.697	14724
921.806	14800
921.916	14708
922.025	14511
922.134	14423
922.244	14415
922.353	14442
922.462	14396
922.571	14305
922.68	14111
922.789	14134
922.898	14092
923.007	14012
923.116	14115
923.224	14054
923.333	14153
923.442	13803
923.55	14001
923.659	13913
923.767	14031
923.876	13837
923.984	13925
924.092	13772
924.201	13928
924.309	13822
924.417	13909
924.525	13704
924.633	13727
924.741	14530
924.849	13563
924.956	13674
925.064	13537
925.172	13556
925.279	13422
925.387	13540
925.494	13518
925.602	13563
925.709	13510
925.816	13468
925.924	13426
926.031	13537
926.138	13495
926.245	13384
926.352	13441
926.459	13453
926.566	13495
926.673	13373
926.779	13285
926.886	13251
926.993	13099
927.099	13057
927.206	12977
927.312	13019
927.419	13171
927.525	13095
927.631	13042
927.737	12882
927.843	12814
927.95	12757
928.056	12852
928.162	12791
928.267	12878
928.373	13506
928.479	12867
928.585	12745
928.69	12787
928.796	12810
928.901	12711
929.007	12559
929.112	12757
929.218	12673
929.323	12669
929.428	12547
929.533	12703
929.638	12467
929.743	12475
929.848	12528
929.953	12544
930.058	12388
930.163	12228
930.267	12239
930.372	12346
930.477	12171
930.581	12391
930.685	12323
930.79	12163
930.894	12121
930.998	12019
931.103	12235
931.207	11912
931.311	11798
931.415	11691
931.519	11433
931.623	11459
