Data from test_V78500241_1813.txt Node
Date: Fri Mar 25 15:54:21 CST 2022
User: usil
Spectrometer: V785-0024
Trigger mode: 0
Integration Time (sec): 4.000000E-1
Scans to average: 1
Nonlinearity correction enabled: false
Boxcar width: 0
Storing dark spectrum: false
XAxis mode: Wavelengths
Number of Pixels in Spectrum: 1024
>>>>>Begin Spectral Data<<<<<
801.071	28774
801.214	28752
801.356	28462
801.499	28497
801.641	28363
801.783	28360
801.926	28386
802.068	28428
802.211	28215
802.353	28306
802.496	28063
802.638	28070
802.78	28044
802.923	27960
803.065	27937
803.208	28059
803.35	28124
803.492	28185
803.635	28215
803.777	28204
803.919	28200
804.061	28653
804.204	28405
804.346	28226
804.488	28215
804.63	28268
804.773	28280
804.915	28341
805.057	28462
805.199	28333
805.341	28284
805.483	28447
805.626	28390
805.768	28455
805.91	28516
806.052	28500
806.194	28371
806.336	28645
806.478	28516
806.62	28440
806.762	28672
806.904	28668
807.046	29056
807.188	28866
807.33	28873
807.472	28930
807.614	28930
807.756	28927
807.898	28771
808.04	28927
808.182	28744
808.324	28774
808.465	28930
808.607	29083
808.749	29220
808.891	29334
809.033	29280
809.174	29136
809.316	29254
809.458	28999
809.6	29067
809.741	29254
809.883	29200
810.025	29425
810.166	29368
810.308	29482
810.45	29353
810.591	29235
810.733	29075
810.875	29064
811.016	29086
811.158	29033
811.299	29193
811.441	29330
811.582	29261
811.724	29147
811.865	29079
812.007	29197
812.148	29052
812.29	29079
812.431	29349
812.573	29398
812.714	29630
812.855	29699
812.997	29790
813.138	29832
813.279	29748
813.421	29630
813.562	29676
813.703	29547
813.845	29425
813.986	29208
814.127	29014
814.268	28862
814.41	28900
814.551	28850
814.692	28824
814.833	28763
814.974	28968
815.115	28953
815.256	28820
815.397	28725
815.539	28793
815.68	28702
815.821	28603
815.962	28569
816.103	28656
816.244	28519
816.385	28459
816.526	28481
816.666	28314
816.807	28162
816.948	28204
817.089	28299
817.23	28166
817.371	28124
817.512	28230
817.653	28173
817.793	28192
817.934	28131
818.075	28329
818.216	28147
818.356	28025
818.497	27911
818.638	27972
818.778	27994
818.919	27918
819.06	28097
819.2	28051
819.341	28105
819.481	28166
819.622	28223
819.762	28618
819.903	28303
820.043	28382
820.184	28344
820.324	28230
820.465	28242
820.605	28299
820.746	28306
820.886	28185
821.026	28265
821.167	28344
821.307	28322
821.447	28375
821.588	28284
821.728	28010
821.868	27644
822.008	27705
822.149	27603
822.289	27515
822.429	27401
822.569	27313
822.709	27180
822.849	27195
822.99	27108
823.13	27218
823.27	27108
823.41	27055
823.55	26929
823.69	27036
823.83	26925
823.97	27017
824.11	26807
824.25	26895
824.389	26895
824.529	26944
824.669	26902
824.809	27024
824.949	26807
825.089	26944
825.228	26830
825.368	26716
825.508	26765
825.648	26670
825.787	26686
825.927	26765
826.067	26621
826.206	26632
826.346	26777
826.485	26785
826.625	26746
826.765	26765
826.904	26785
827.044	26499
827.183	26457
827.323	26488
827.462	26488
827.601	26419
827.741	26423
827.88	26514
828.02	26347
828.159	26400
828.298	26446
828.437	26488
828.577	26457
828.716	26480
828.855	26305
828.994	26225
829.134	26149
829.273	26214
829.412	26096
829.551	26142
829.69	26062
829.829	26263
829.968	26161
830.107	26233
830.246	26050
830.385	26088
830.524	25944
830.663	25757
830.802	25944
830.941	25628
831.08	25689
831.219	25841
831.357	25864
831.496	26081
831.635	25826
831.774	25616
831.913	25635
832.051	25346
832.19	25472
832.329	25586
832.467	25449
832.606	25251
832.744	25434
832.883	25388
833.022	25369
833.16	25533
833.299	25506
833.437	25472
833.576	25369
833.714	25415
833.852	25521
833.991	25419
834.129	25483
834.267	25457
834.406	25441
834.544	25365
834.682	25426
834.821	25415
834.959	25651
835.097	25346
835.235	25533
835.373	25430
835.511	25422
835.65	25251
835.788	25312
835.926	25129
836.064	25099
836.202	25061
836.34	25278
836.478	25251
836.615	25259
836.753	25183
836.891	25312
837.029	25259
837.167	25266
837.305	25247
837.443	25091
837.58	25183
837.718	25190
837.856	25065
837.993	25126
838.131	25168
838.269	25004
838.406	24951
838.544	24787
838.681	24802
838.819	24658
838.956	24604
839.094	24547
839.231	24757
839.369	24681
839.506	24905
839.643	24798
839.781	24593
839.918	24509
840.055	24513
840.193	24593
840.33	24395
840.467	24494
840.604	24467
840.742	24715
840.879	24235
841.016	24467
841.153	24300
841.29	24635
841.427	24384
841.564	24536
841.701	24311
841.838	24361
841.975	24452
842.112	24410
842.249	24285
842.385	24289
842.522	24509
842.659	24311
842.796	24243
842.933	24323
843.069	24194
843.206	24194
843.343	24258
843.479	24251
843.616	24190
843.752	23901
843.889	24083
844.025	24133
844.162	23897
844.298	24034
844.435	23988
844.571	23999
844.708	24083
844.844	24068
844.98	24152
845.117	24106
845.253	23813
845.389	23901
845.525	23859
845.661	23840
845.798	23885
845.934	23821
846.07	23718
846.206	23703
846.342	23939
846.478	23619
846.614	23307
846.75	23364
846.886	23376
847.022	23471
847.158	23493
847.294	23364
847.429	23554
847.565	23436
847.701	23596
847.837	23223
847.972	23102
848.108	23208
848.244	23242
848.379	23113
848.515	23105
848.65	23064
848.786	23098
848.921	23033
849.057	23094
849.192	22999
849.328	23143
849.463	22991
849.598	22877
849.734	22972
849.869	22858
850.004	22850
850.14	22759
850.275	22889
850.41	22683
850.545	22797
850.68	22687
850.815	22869
850.95	22843
851.085	22949
851.22	22900
851.355	22843
851.49	22862
851.625	22774
851.76	22782
851.895	22763
852.03	22744
852.165	22710
852.299	22740
852.434	22793
852.569	22782
852.703	22797
852.838	22862
852.973	23018
853.107	22835
853.242	22793
853.376	22698
853.511	22508
853.645	22702
853.78	22698
853.914	22634
854.048	22542
854.183	22660
854.317	22656
854.451	22759
854.585	22755
854.72	22523
854.854	22656
854.988	22500
855.122	22637
855.256	22424
855.39	22710
855.524	22592
855.658	22615
855.792	22565
855.926	22710
856.06	22615
856.194	22561
856.327	22645
856.461	22440
856.595	22550
856.729	22630
856.862	22721
856.996	22607
857.13	22725
857.263	22615
857.397	22812
857.53	22645
857.664	22717
857.797	22755
857.931	22778
858.064	22706
858.197	22771
858.331	22603
858.464	22500
858.597	22455
858.731	22535
858.864	22622
858.997	22451
859.13	22603
859.263	22588
859.396	22668
859.529	22592
859.662	22535
859.795	22615
859.928	22603
860.061	22725
860.194	22778
860.327	22653
860.46	22664
860.592	22805
860.725	22736
860.858	22675
860.99	22596
861.123	22527
861.256	22455
861.388	22569
861.521	23178
861.653	22440
861.786	22402
861.918	22447
862.05	22611
862.183	22512
862.315	22554
862.447	22569
862.58	22489
862.712	22394
862.844	22177
862.976	22352
863.108	22432
863.24	22778
863.372	22242
863.504	22367
863.636	22238
863.768	22348
863.9	22318
864.032	22318
864.164	22249
864.296	22318
864.428	22443
864.559	22409
864.691	22390
864.823	22394
864.954	22268
865.086	22200
865.217	22215
865.349	22025
865.48	22169
865.612	22226
865.743	22272
865.875	22128
866.006	22215
866.137	22261
866.269	22226
866.4	22150
866.531	22070
866.662	22036
866.793	22013
866.924	22124
867.055	22200
867.186	22128
867.317	22059
867.448	21991
867.579	22070
867.71	22040
867.841	22059
867.972	22097
868.103	22135
868.233	22067
868.364	22097
868.495	22230
868.625	22242
868.756	22500
868.886	22276
869.017	22344
869.147	22504
869.278	22417
869.408	22363
869.539	22371
869.669	22455
869.799	22478
869.929	22592
870.06	22466
870.19	22592
870.32	22660
870.45	22687
870.58	22656
870.71	22908
870.84	22968
870.97	22774
871.1	22767
871.23	22831
871.36	22904
871.489	22850
871.619	22900
871.749	22968
871.879	22957
872.008	23006
872.138	22965
872.267	23086
872.397	22763
872.526	22744
872.656	22843
872.785	22858
872.915	22968
873.044	23018
873.173	23025
873.303	23147
873.432	23052
873.561	23189
873.69	22900
873.819	22850
873.948	23029
874.077	22927
874.206	22904
874.335	22812
874.464	23174
874.593	23299
874.722	23121
874.851	23193
874.979	23372
875.108	23227
875.237	23136
875.365	22965
875.494	23067
875.623	23372
875.751	23151
875.88	23223
876.008	23185
876.136	23280
876.265	23558
876.393	23809
876.521	23611
876.65	23615
876.778	23493
876.906	23634
877.034	23440
877.162	23524
877.29	23379
877.418	23322
877.546	23547
877.674	23566
877.802	23634
877.93	23501
878.058	23478
878.185	23444
878.313	23402
878.441	23452
878.568	23318
878.696	23493
878.824	23570
878.951	23547
879.079	23703
879.206	23843
879.333	23691
879.461	23474
879.588	23611
879.715	23619
879.842	23893
879.97	23627
880.097	23440
880.224	23197
880.351	23459
880.478	23307
880.605	23326
880.732	23440
880.859	23566
880.986	23208
881.112	23452
881.239	23162
881.366	23025
881.493	23090
881.619	22991
881.746	22923
881.872	22957
881.999	22991
882.125	22782
882.252	22953
882.378	22858
882.505	22892
882.631	22771
882.757	22645
882.883	22672
883.01	22584
883.136	22565
883.262	22447
883.388	22352
883.514	22417
883.64	22580
883.766	22527
883.892	22348
884.018	22405
884.143	22584
884.269	22527
884.395	22261
884.52	22242
884.646	22207
884.772	22086
884.897	22162
885.023	22139
885.148	22261
885.274	22257
885.399	22249
885.524	22322
885.65	22105
885.775	22101
885.9	22166
886.025	22238
886.15	22196
886.275	22101
886.4	22120
886.525	22124
886.65	22097
886.775	22109
886.9	22360
887.025	22272
887.149	22219
887.274	21953
887.399	21949
887.523	21968
887.648	21838
887.773	21922
887.897	22002
888.021	22082
888.146	21926
888.27	22105
888.395	22070
888.519	21884
888.643	21945
888.767	21888
888.891	21926
889.015	21549
889.139	21865
889.263	21736
889.387	21850
889.511	21994
889.635	21717
889.759	21682
889.883	21660
890.006	21808
890.13	21838
890.254	21648
890.377	21572
890.501	21443
890.624	21416
890.748	21420
890.871	21401
890.995	21363
891.118	21199
891.241	21443
891.364	21382
891.488	21458
891.611	21348
891.734	21344
891.857	21348
891.98	21283
892.103	21325
892.226	21329
892.349	21302
892.471	21096
892.594	21104
892.717	21165
892.839	21100
892.962	21169
893.085	21370
893.207	21184
893.33	21093
893.452	21055
893.575	21192
893.697	21214
893.819	21256
893.941	21317
894.064	21370
894.186	21138
894.308	21051
894.43	21241
894.552	21252
894.674	21222
894.796	21089
894.918	21233
895.04	21100
895.161	21222
895.283	21218
895.405	21173
895.526	21146
895.648	21043
895.769	21184
895.891	21252
896.012	21264
896.134	21176
896.255	21279
896.376	21127
896.498	21161
896.619	21199
896.74	21112
896.861	21184
896.982	21504
897.103	21500
897.224	21363
897.345	21431
897.466	21252
897.587	21462
897.708	21496
897.828	21393
897.949	21313
898.07	21169
898.19	21268
898.311	21439
898.431	21256
898.552	21321
898.672	21348
898.792	21439
898.913	21264
899.033	21298
899.153	21173
899.273	21051
899.393	21081
899.513	21116
899.633	21127
899.753	21123
899.873	21039
899.993	21173
900.113	20982
900.232	21043
900.352	21017
900.472	20929
900.591	20933
900.711	20937
900.83	20731
900.95	20975
901.069	20960
901.189	20750
901.308	20583
901.427	20503
901.546	20389
901.665	20431
901.784	20537
901.904	20221
902.023	20183
902.141	19982
902.26	19986
902.379	19902
902.498	19898
902.617	19833
902.735	19955
902.854	19951
902.973	19841
903.091	19624
903.21	19731
903.328	19605
903.446	19502
903.565	19381
903.683	19460
903.801	19304
903.919	19369
904.038	19251
904.156	19110
904.274	19190
904.392	19027
904.51	19042
904.627	19164
904.745	19129
904.863	19202
904.981	18977
905.098	18738
905.216	18897
905.334	18882
905.451	18738
905.569	18837
905.686	18814
905.803	18814
905.921	18673
906.038	18658
906.155	18650
906.272	18597
906.389	18403
906.506	18410
906.623	18361
906.74	18262
906.857	18327
906.974	18239
907.091	18251
907.208	18376
907.324	18304
907.441	18232
907.557	18060
907.674	18114
907.79	17988
907.907	18045
908.023	17973
908.139	18114
908.256	17973
908.372	17992
908.488	17969
908.604	17783
908.72	17809
908.836	17745
908.952	17551
909.068	17775
909.184	17863
909.3	17661
909.415	17699
909.531	17695
909.647	17471
909.762	17410
909.878	17360
909.993	17474
910.108	17497
910.224	17474
910.339	17410
910.454	17330
910.57	17239
910.685	17204
910.8	17433
910.915	17330
911.03	17193
911.145	17037
911.259	17052
911.374	16991
911.489	16984
911.604	16965
911.718	16733
911.833	16740
911.947	16702
912.062	16603
912.176	16786
912.291	16675
912.405	16850
912.519	16904
912.633	16892
912.748	16778
912.862	16744
912.976	16672
913.09	16493
913.204	16500
913.318	16592
913.431	16702
913.545	16596
913.659	16641
913.772	16474
913.886	16455
914	16299
914.113	16447
914.226	16447
914.34	16363
914.453	16257
914.566	16325
914.68	16306
914.793	16169
914.906	15972
915.019	15918
915.132	15876
915.245	15903
915.358	15892
915.47	15911
915.583	15907
915.696	15983
915.809	16109
915.921	15960
916.034	15819
916.146	15778
916.259	15804
916.371	15911
916.483	15827
916.595	15759
916.708	15739
916.82	15797
916.932	15732
917.044	15663
917.156	15698
917.268	15622
917.38	15599
917.491	15485
917.603	15549
917.715	15682
917.826	15671
917.938	15488
918.049	15386
918.161	15466
918.272	15641
918.384	15629
918.495	15428
918.606	15386
918.717	15268
918.828	15359
918.939	15207
919.05	15195
919.161	15325
919.272	15108
919.383	15161
919.494	15313
919.604	15462
919.715	15184
919.826	15188
919.936	15207
920.047	15367
920.157	15256
920.267	15481
920.378	15245
920.488	15245
920.598	15310
920.708	15526
920.818	15389
920.928	15291
921.038	15469
921.148	15542
921.258	15245
921.368	15043
921.477	14982
921.587	14963
921.697	14823
921.806	14963
921.916	14838
922.025	14579
922.134	14594
922.244	14549
922.353	14629
922.462	14488
922.571	14431
922.68	14294
922.789	14328
922.898	14267
923.007	14172
923.116	14244
923.224	14119
923.333	14172
923.442	14168
923.55	14103
923.659	14138
923.767	14069
923.876	14005
923.984	14069
924.092	14005
924.201	13978
924.309	14024
924.417	14020
924.525	13917
924.633	13940
924.741	14686
924.849	13738
924.956	13731
925.064	13670
925.172	13632
925.279	13590
925.387	13693
925.494	13605
925.602	13723
925.709	13655
925.816	13480
925.924	13613
926.031	13552
926.138	13624
926.245	13578
926.352	13407
926.459	13578
926.566	13616
926.673	13365
926.779	13289
926.886	13369
926.993	13236
927.099	13225
927.206	13107
927.312	13206
927.419	13255
927.525	13194
927.631	13297
927.737	13114
927.843	12985
927.95	12928
928.056	13015
928.162	12985
928.267	12966
928.373	13578
928.479	13152
928.585	12848
928.69	12996
928.796	13008
928.901	12814
929.007	12741
929.112	12848
929.218	12814
929.323	12738
929.428	12730
929.533	12916
929.638	12616
929.743	12566
929.848	12711
929.953	12738
930.058	12494
930.163	12365
930.267	12399
930.372	12551
930.477	12334
930.581	12532
930.685	12426
930.79	12384
930.894	12342
930.998	12205
931.103	12410
931.207	11984
931.311	11958
931.415	11859
931.519	11714
931.623	11524
