Data from test_V78500241_823.txt Node
Date: Fri Mar 25 15:47:30 CST 2022
User: usil
Spectrometer: V785-0024
Trigger mode: 0
Integration Time (sec): 4.000000E-1
Scans to average: 1
Nonlinearity correction enabled: false
Boxcar width: 0
Storing dark spectrum: false
XAxis mode: Wavelengths
Number of Pixels in Spectrum: 1024
>>>>>Begin Spectral Data<<<<<
801.071	28021
801.214	27960
801.356	27728
801.499	27648
801.641	27526
801.783	27576
801.926	27698
802.068	27724
802.211	27504
802.353	27370
802.496	27108
802.638	27268
802.78	27173
802.923	27100
803.065	27047
803.208	27313
803.35	27298
803.492	27313
803.635	27370
803.777	27252
803.919	27443
804.061	27778
804.204	27466
804.346	27340
804.488	27249
804.63	27485
804.773	27310
804.915	27443
805.057	27500
805.199	27576
805.341	27515
805.483	27561
805.626	27534
805.768	27363
805.91	27523
806.052	27549
806.194	27363
806.336	27637
806.478	27454
806.62	27576
806.762	27705
806.904	27895
807.046	28086
807.188	28101
807.33	28055
807.472	28032
807.614	27884
807.756	27953
807.898	27884
808.04	27827
808.182	27709
808.324	27774
808.465	27922
808.607	28070
808.749	28086
808.891	28325
809.033	28405
809.174	28401
809.316	28188
809.458	28234
809.6	28207
809.741	28257
809.883	28401
810.025	28611
810.166	28489
810.308	28375
810.45	28329
810.591	28421
810.733	28230
810.875	28261
811.016	28105
811.158	28173
811.299	28234
811.441	28257
811.582	28478
811.724	28280
811.865	28253
812.007	28196
812.148	28268
812.29	28230
812.431	28409
812.573	28516
812.714	28691
812.855	28702
812.997	28839
813.138	29064
813.279	28965
813.421	28839
813.562	28698
813.703	28592
813.845	28462
813.986	28314
814.127	28055
814.268	27945
814.41	27865
814.551	27831
814.692	28006
814.833	27911
814.974	27922
815.115	28013
815.256	27838
815.397	27770
815.539	27766
815.68	27797
815.821	27538
815.962	27739
816.103	27701
816.244	27701
816.385	27526
816.526	27492
816.666	27268
816.807	27260
816.948	27485
817.089	27127
817.23	27230
817.371	27211
817.512	27298
817.653	27306
817.793	27165
817.934	27222
818.075	27233
818.216	27279
818.356	27192
818.497	26948
818.638	26971
818.778	27066
818.919	27047
819.06	27127
819.2	27176
819.341	27195
819.481	27237
819.622	27367
819.762	27462
819.903	27481
820.043	27348
820.184	27313
820.324	27226
820.465	27473
820.605	27317
820.746	27287
820.886	27264
821.026	27298
821.167	27233
821.307	27397
821.447	27230
821.588	27173
821.728	27055
821.868	26914
822.008	26823
822.149	26568
822.289	26644
822.429	26317
822.569	26377
822.709	26263
822.849	26259
822.99	26168
823.13	26214
823.27	26081
823.41	25959
823.55	25864
823.69	26058
823.83	26001
823.97	25944
824.11	25898
824.25	25837
824.389	25788
824.529	25947
824.669	25887
824.809	26062
824.949	25936
825.089	25951
825.228	25856
825.368	25693
825.508	25723
825.648	25791
825.787	25776
825.927	25818
826.067	25826
826.206	25655
826.346	25693
826.485	25727
826.625	25719
826.765	25818
826.904	25704
827.044	25506
827.183	25548
827.323	25308
827.462	25453
827.601	25320
827.741	25464
827.88	25460
828.02	25396
828.159	25426
828.298	25487
828.437	25464
828.577	25343
828.716	25514
828.855	25316
828.994	25095
829.134	25072
829.273	25080
829.412	24981
829.551	25019
829.69	25053
829.829	25183
829.968	25266
830.107	25164
830.246	25145
830.385	24977
830.524	25038
830.663	24878
830.802	24821
830.941	24650
831.08	24764
831.219	24878
831.357	24692
831.496	24863
831.635	24665
831.774	24589
831.913	24627
832.051	24540
832.19	24612
832.329	24631
832.467	24365
832.606	24380
832.744	24380
832.883	24456
833.022	24376
833.16	24369
833.299	24338
833.437	24471
833.576	24467
833.714	24479
833.852	24528
833.991	24410
834.129	24547
834.267	24604
834.406	24418
834.544	24460
834.682	24494
834.821	24517
834.959	24547
835.097	24441
835.235	24464
835.373	24376
835.511	24395
835.65	24247
835.788	24338
835.926	24205
836.064	24038
836.202	24270
836.34	24357
836.478	24262
836.615	24300
836.753	24201
836.891	24300
837.029	24289
837.167	24243
837.305	24133
837.443	24292
837.58	24087
837.718	24091
837.856	24235
837.993	24022
838.131	24159
838.269	24159
838.406	24076
838.544	24068
838.681	23699
838.819	23794
838.956	23547
839.094	23570
839.231	23710
839.369	23729
839.506	23973
839.643	23714
839.781	23642
839.918	23520
840.055	23543
840.193	23596
840.33	23497
840.467	23547
840.604	23558
840.742	23695
840.879	23433
841.016	23501
841.153	23372
841.29	23596
841.427	23455
841.564	23547
841.701	23410
841.838	23512
841.975	23372
842.112	23448
842.249	23307
842.385	23368
842.522	23600
842.659	23318
842.796	23235
842.933	23330
843.069	23086
843.206	23185
843.343	23223
843.479	23216
843.616	23128
843.752	23098
843.889	22984
844.025	23231
844.162	23003
844.298	23025
844.435	22987
844.571	23022
844.708	23181
844.844	23189
844.98	23041
845.117	23060
845.253	22934
845.389	22915
845.525	22854
845.661	22965
845.798	22729
845.934	22843
846.07	22839
846.206	22790
846.342	22824
846.478	22630
846.614	22649
846.75	22440
846.886	22386
847.022	22542
847.158	22538
847.294	22478
847.429	22542
847.565	22523
847.701	22679
847.837	22158
847.972	22120
848.108	22215
848.244	22352
848.379	22124
848.515	22029
848.65	22013
848.786	22154
848.921	22097
849.057	22265
849.192	22192
849.328	22150
849.463	22010
849.598	22036
849.734	22082
849.869	21937
850.004	21876
850.14	21823
850.275	21785
850.41	21652
850.545	21816
850.68	21816
850.815	22032
850.95	21743
851.085	22059
851.22	22006
851.355	21781
851.49	21800
851.625	21842
851.76	21797
851.895	21717
852.03	21823
852.165	21774
852.299	21903
852.434	21945
852.569	21911
852.703	21835
852.838	21842
852.973	22055
853.107	21930
853.242	21880
853.376	21713
853.511	21542
853.645	21629
853.78	21857
853.914	21671
854.048	21568
854.183	21690
854.317	21838
854.451	21800
854.585	21542
854.72	21644
854.854	21732
854.988	21549
855.122	21625
855.256	21412
855.39	21511
855.524	21724
855.658	21599
855.792	21633
855.926	21591
856.06	21641
856.194	21869
856.327	21618
856.461	21663
856.595	21591
856.729	21629
856.862	21823
856.996	21705
857.13	21679
857.263	21739
857.397	21789
857.53	21580
857.664	21682
857.797	21576
857.931	21770
858.064	21812
858.197	21739
858.331	21629
858.464	21709
858.597	21663
858.731	21523
858.864	21587
858.997	21637
859.13	21736
859.263	21656
859.396	21671
859.529	21564
859.662	21599
859.795	21561
859.928	21694
860.061	21694
860.194	21880
860.327	21800
860.46	21728
860.592	21759
860.725	21732
860.858	21937
860.99	21614
861.123	21572
861.256	21469
861.388	21523
861.521	22310
861.653	21488
861.786	21393
861.918	21549
862.05	21561
862.183	21633
862.315	21606
862.447	21679
862.58	21675
862.712	21325
862.844	21393
862.976	21378
863.108	21519
863.24	21808
863.372	21363
863.504	21359
863.636	21374
863.768	21469
863.9	21370
864.032	21351
864.164	21336
864.296	21401
864.428	21367
864.559	21492
864.691	21443
864.823	21408
864.954	21268
865.086	21401
865.217	21241
865.349	21165
865.48	21291
865.612	21287
865.743	21321
865.875	21344
866.006	21199
866.137	21313
866.269	21275
866.4	21214
866.531	21135
866.662	21176
866.793	21249
866.924	21173
867.055	21214
867.186	21089
867.317	21157
867.448	21096
867.579	21142
867.71	21135
867.841	21085
867.972	21157
868.103	21138
868.233	21138
868.364	21268
868.495	21306
868.625	21355
868.756	21443
868.886	21310
869.017	21504
869.147	21466
869.278	21595
869.408	21374
869.539	21401
869.669	21496
869.799	21428
869.929	21515
870.06	21553
870.19	21526
870.32	21774
870.45	21785
870.58	21812
870.71	21926
870.84	22029
870.97	21884
871.1	21934
871.23	21991
871.36	22010
871.489	21922
871.619	21907
871.749	21956
871.879	22048
872.008	22078
872.138	22010
872.267	21941
872.397	21842
872.526	21785
872.656	21964
872.785	21915
872.915	21991
873.044	22105
873.173	22070
873.303	21979
873.432	22105
873.561	22181
873.69	22154
873.819	22006
873.948	22116
874.077	22055
874.206	22048
874.335	22093
874.464	22143
874.593	22230
874.722	22185
874.851	22303
874.979	22337
875.108	22352
875.237	22242
875.365	22093
875.494	22204
875.623	22234
875.751	22219
875.88	22325
876.008	22470
876.136	22455
876.265	22542
876.393	22942
876.521	22565
876.65	22740
876.778	22683
876.906	22592
877.034	22687
877.162	22660
877.29	22607
877.418	22596
877.546	22588
877.674	22672
877.802	22656
877.93	22542
878.058	22577
878.185	22531
878.313	22546
878.441	22577
878.568	22432
878.696	22630
878.824	22645
878.951	22668
879.079	22687
879.206	22824
879.333	22710
879.461	22660
879.588	22713
879.715	22820
879.842	22782
879.97	22577
880.097	22466
880.224	22466
880.351	22489
880.478	22447
880.605	22459
880.732	22580
880.859	22668
880.986	22371
881.112	22360
881.239	22280
881.366	22150
881.493	21975
881.619	22025
881.746	21975
881.872	22067
881.999	22067
882.125	21854
882.252	22029
882.378	22048
882.505	22249
882.631	21774
882.757	21660
882.883	21797
883.01	21637
883.136	21686
883.262	21591
883.388	21580
883.514	21526
883.64	21682
883.766	21663
883.892	21599
884.018	21500
884.143	21614
884.269	21698
884.395	21469
884.52	21344
884.646	21336
884.772	21325
884.897	21340
885.023	21313
885.148	21420
885.274	21386
885.399	21447
885.524	21306
885.65	21382
885.775	21291
885.9	21367
886.025	21462
886.15	21344
886.275	21287
886.4	21192
886.525	21268
886.65	21116
886.775	21135
886.9	21473
887.025	21542
887.149	21294
887.274	21074
887.399	21104
887.523	21108
887.648	21032
887.773	20998
887.897	21112
888.021	21230
888.146	21077
888.27	21127
888.395	21184
888.519	21055
888.643	21096
888.767	21077
888.891	20979
889.015	20834
889.139	20975
889.263	20792
889.387	21127
889.511	21161
889.635	20975
889.759	20849
889.883	20750
890.006	20967
890.13	21017
890.254	20845
890.377	20781
890.501	20701
890.624	20526
890.748	20556
890.871	20545
890.995	20457
891.118	20431
891.241	20377
891.364	20381
891.488	20583
891.611	20617
891.734	20549
891.857	20522
891.98	20469
892.103	20488
892.226	20370
892.349	20454
892.471	20351
892.594	20461
892.717	20370
892.839	20267
892.962	20339
893.085	20408
893.207	20343
893.33	20278
893.452	20336
893.575	20412
893.697	20328
893.819	20389
893.941	20450
894.064	20358
894.186	20320
894.308	20317
894.43	20347
894.552	20476
894.674	20381
894.796	20199
894.918	20298
895.04	20290
895.161	20465
895.283	20396
895.405	20263
895.526	20393
895.648	20313
895.769	20381
895.891	20457
896.012	20332
896.134	20488
896.255	20434
896.376	20294
896.498	20305
896.619	20389
896.74	20305
896.861	20457
896.982	20663
897.103	20842
897.224	20598
897.345	20484
897.466	20518
897.587	20431
897.708	20674
897.828	20636
897.949	20552
898.07	20473
898.19	20587
898.311	20613
898.431	20503
898.552	20598
898.672	20632
898.792	20590
898.913	20587
899.033	20408
899.153	20320
899.273	20206
899.393	20339
899.513	20355
899.633	20358
899.753	20438
899.873	20286
899.993	20305
900.113	20324
900.232	20278
900.352	20195
900.472	20214
900.591	20046
900.711	20218
900.83	20031
900.95	20336
901.069	20172
901.189	20031
901.308	19723
901.427	19818
901.546	19590
901.665	19616
901.784	19719
901.904	19537
902.023	19449
902.141	19217
902.26	19274
902.379	19225
902.498	19244
902.617	19232
902.735	19183
902.854	19099
902.973	19027
903.091	18719
903.21	18821
903.328	18802
903.446	18875
903.565	18635
903.683	18593
903.801	18483
903.919	18631
904.038	18661
904.156	18384
904.274	18521
904.392	18483
904.51	18353
904.627	18330
904.745	18407
904.863	18384
904.981	18213
905.098	18140
905.216	18091
905.334	18209
905.451	18205
905.569	17973
905.686	17984
905.803	18049
905.921	17908
906.038	18038
906.155	17824
906.272	17790
906.389	17775
906.506	17638
906.623	17752
906.74	17611
906.857	17471
906.974	17524
907.091	17684
907.208	17805
907.324	17653
907.441	17505
907.557	17372
907.674	17334
907.79	17242
907.907	17296
908.023	17356
908.139	17326
908.256	17273
908.372	17261
908.488	17140
908.604	17006
908.72	16934
908.836	17102
908.952	17025
909.068	17193
909.184	17227
909.3	17071
909.415	17083
909.531	17075
909.647	16866
909.762	16809
909.878	16645
909.993	16740
910.108	16763
910.224	16713
910.339	16664
910.454	16645
910.57	16558
910.685	16497
910.8	16767
910.915	16721
911.03	16500
911.145	16402
911.259	16341
911.374	16329
911.489	16314
911.604	16272
911.718	16036
911.833	16051
911.947	16029
912.062	15903
912.176	16101
912.291	16086
912.405	16078
912.519	16219
912.633	16177
912.748	16090
912.862	16051
912.976	15876
913.09	15937
913.204	15911
913.318	15846
913.431	15983
913.545	15979
913.659	15979
913.772	15747
913.886	15743
914	15625
914.113	15842
914.226	15751
914.34	15816
914.453	15568
914.566	15797
914.68	15580
914.793	15534
914.906	15408
915.019	15260
915.132	15302
915.245	15298
915.358	15306
915.47	15332
915.583	15268
915.696	15378
915.809	15393
915.921	15332
916.034	15260
916.146	15184
916.259	15146
916.371	15298
916.483	15272
916.595	15112
916.708	15207
916.82	15093
916.932	15028
917.044	15074
917.156	14982
917.268	14960
917.38	14982
917.491	14925
917.603	14883
917.715	15009
917.826	15112
917.938	14880
918.049	14739
918.161	14944
918.272	15062
918.384	14975
918.495	14777
918.606	14644
918.717	14724
918.828	14682
918.939	14697
919.05	14583
919.161	14610
919.272	14457
919.383	14556
919.494	14788
919.604	14864
919.715	14663
919.826	14606
919.936	14579
920.047	14792
920.157	14610
920.267	14804
920.378	14686
920.488	14598
920.598	14788
920.708	15066
920.818	14796
920.928	14739
921.038	14925
921.148	15024
921.258	14549
921.368	14469
921.477	14457
921.587	14377
921.697	14244
921.806	14366
921.916	14324
922.025	14100
922.134	14069
922.244	14084
922.353	14130
922.462	13913
922.571	13864
922.68	13746
922.789	13647
922.898	13693
923.007	13582
923.116	13624
923.224	13700
923.333	13620
923.442	13563
923.55	13499
923.659	13521
923.767	13529
923.876	13426
923.984	13632
924.092	13392
924.201	13422
924.309	13445
924.417	13384
924.525	13301
924.633	13339
924.741	14332
924.849	13137
924.956	13240
925.064	13149
925.172	13099
925.279	13110
925.387	13088
925.494	13065
925.602	13343
925.709	13149
925.816	13053
925.924	13015
926.031	13088
926.138	13015
926.245	13076
926.352	12859
926.459	13137
926.566	13160
926.673	12833
926.779	12951
926.886	12833
926.993	12730
927.099	12677
927.206	12570
927.312	12509
927.419	12696
927.525	12654
927.631	12677
927.737	12570
927.843	12486
927.95	12452
928.056	12513
928.162	12525
928.267	12479
928.373	13061
928.479	12532
928.585	12334
928.69	12460
928.796	12426
928.901	12357
929.007	12216
929.112	12289
929.218	12350
929.323	12258
929.428	12209
929.533	12441
929.638	12125
929.743	12129
929.848	12258
929.953	12201
930.058	12003
930.163	11821
930.267	11897
930.372	12038
930.477	11878
930.581	12003
930.685	11950
930.79	11813
930.894	11821
930.998	11668
931.103	11859
931.207	11524
931.311	11478
931.415	11292
931.519	11181
931.623	11143
