Data from test_V78500241_2571.txt Node
Date: Fri Mar 25 15:59:36 CST 2022
User: usil
Spectrometer: V785-0024
Trigger mode: 0
Integration Time (sec): 4.000000E-1
Scans to average: 1
Nonlinearity correction enabled: false
Boxcar width: 0
Storing dark spectrum: false
XAxis mode: Wavelengths
Number of Pixels in Spectrum: 1024
>>>>>Begin Spectral Data<<<<<
801.071	28923
801.214	28771
801.356	28611
801.499	28664
801.641	28398
801.783	28546
801.926	28462
802.068	28436
802.211	28455
802.353	28466
802.496	28223
802.638	28166
802.78	28082
802.923	28177
803.065	28124
803.208	28234
803.35	28268
803.492	28325
803.635	28557
803.777	28238
803.919	28413
804.061	28710
804.204	28363
804.346	28295
804.488	28413
804.63	28299
804.773	28276
804.915	28436
805.057	28466
805.199	28382
805.341	28428
805.483	28508
805.626	28550
805.768	28432
805.91	28653
806.052	28577
806.194	28531
806.336	28790
806.478	28649
806.62	28668
806.762	28759
806.904	28831
807.046	28949
807.188	28927
807.33	29151
807.472	29159
807.614	29029
807.756	29048
807.898	29003
808.04	28850
808.182	28725
808.324	29014
808.465	28957
808.607	29018
808.749	29143
808.891	29345
809.033	29414
809.174	29345
809.316	29391
809.458	29162
809.6	29166
809.741	29402
809.883	29406
810.025	29627
810.166	29478
810.308	29634
810.45	29444
810.591	29410
810.733	29334
810.875	29337
811.016	29166
811.158	29174
811.299	29440
811.441	29349
811.582	29448
811.724	29265
811.865	29284
812.007	29170
812.148	29360
812.29	29349
812.431	29600
812.573	29459
812.714	29703
812.855	29775
812.997	29984
813.138	29965
813.279	29927
813.421	29862
813.562	29729
813.703	29577
813.845	29528
813.986	29288
814.127	29056
814.268	28953
814.41	28961
814.551	28953
814.692	29003
814.833	29121
814.974	29010
815.115	29071
815.256	28957
815.397	28995
815.539	28892
815.68	28877
815.821	28797
815.962	28896
816.103	28839
816.244	28649
816.385	28637
816.526	28603
816.666	28390
816.807	28177
816.948	28481
817.089	28409
817.23	28333
817.371	28322
817.512	28299
817.653	28234
817.793	28147
817.934	28303
818.075	28284
818.216	28280
818.356	28261
818.497	28249
818.638	28017
818.778	28070
818.919	28139
819.06	28314
819.2	28257
819.341	28291
819.481	28226
819.622	28462
819.762	28660
819.903	28691
820.043	28573
820.184	28523
820.324	28588
820.465	28527
820.605	28440
820.746	28424
820.886	28409
821.026	28333
821.167	28451
821.307	28493
821.447	28401
821.588	28284
821.728	28242
821.868	28048
822.008	27884
822.149	27797
822.289	27838
822.429	27728
822.569	27507
822.709	27648
822.849	27447
822.99	27260
823.13	27313
823.27	27260
823.41	27188
823.55	27100
823.69	27161
823.83	27173
823.97	27058
824.11	26883
824.25	26937
824.389	27070
824.529	26971
824.669	26925
824.809	27096
824.949	27096
825.089	27039
825.228	27211
825.368	26883
825.508	26864
825.648	26868
825.787	27070
825.927	26921
826.067	26815
826.206	26902
826.346	26864
826.485	27013
826.625	26823
826.765	26842
826.904	26933
827.044	26613
827.183	26640
827.323	26609
827.462	26663
827.601	26651
827.741	26590
827.88	26644
828.02	26571
828.159	26648
828.298	26579
828.437	26724
828.577	26423
828.716	26514
828.855	26431
828.994	26259
829.134	26431
829.273	26339
829.412	26320
829.551	26271
829.69	26286
829.829	26355
829.968	26412
830.107	26336
830.246	26381
830.385	26301
830.524	26149
830.663	26195
830.802	25974
830.941	25898
831.08	25769
831.219	26058
831.357	25986
831.496	26157
831.635	25871
831.774	25734
831.913	25852
832.051	25731
832.19	25715
832.329	25750
832.467	25620
832.606	25582
832.744	25483
832.883	25655
833.022	25479
833.16	25635
833.299	25651
833.437	25613
833.576	25643
833.714	25689
833.852	25670
833.991	25666
834.129	25674
834.267	25712
834.406	25727
834.544	25632
834.682	25662
834.821	25479
834.959	25795
835.097	25529
835.235	25681
835.373	25677
835.511	25620
835.65	25377
835.788	25575
835.926	25464
836.064	25327
836.202	25266
836.34	25514
836.478	25620
836.615	25369
836.753	25479
836.891	25537
837.029	25491
837.167	25430
837.305	25365
837.443	25316
837.58	25369
837.718	25415
837.856	25312
837.993	25392
838.131	25240
838.269	25225
838.406	25263
838.544	25141
838.681	24932
838.819	24844
838.956	24791
839.094	24810
839.231	24791
839.369	24981
839.506	25122
839.643	24966
839.781	24863
839.918	24757
840.055	24852
840.193	24753
840.33	24749
840.467	24574
840.604	24715
840.742	24871
840.879	24528
841.016	24559
841.153	24578
841.29	24623
841.427	24669
841.564	24604
841.701	24642
841.838	24646
841.975	24521
842.112	24494
842.249	24437
842.385	24464
842.522	24620
842.659	24589
842.796	24486
842.933	24433
843.069	24357
843.206	24228
843.343	24410
843.479	24372
843.616	24353
843.752	24171
843.889	24201
844.025	24327
844.162	24155
844.298	24239
844.435	24178
844.571	24121
844.708	24258
844.844	24209
844.98	24296
845.117	24315
845.253	24098
845.389	24098
845.525	23988
845.661	24091
845.798	23923
845.934	23935
846.07	23870
846.206	23866
846.342	23992
846.478	23927
846.614	23649
846.75	23566
846.886	23687
847.022	23726
847.158	23737
847.294	23619
847.429	23642
847.565	23646
847.701	23851
847.837	23490
847.972	23341
848.108	23558
848.244	23448
848.379	23353
848.515	23231
848.65	23147
848.786	23299
848.921	23197
849.057	23356
849.192	23299
849.328	23376
849.463	23170
849.598	23227
849.734	23086
849.869	23090
850.004	23003
850.14	22984
850.275	23079
850.41	22930
850.545	22984
850.68	22915
850.815	23018
850.95	22930
851.085	23204
851.22	23159
851.355	23117
851.49	23018
851.625	22866
851.76	22976
851.895	22858
852.03	22923
852.165	23079
852.299	23033
852.434	23098
852.569	22995
852.703	22987
852.838	23105
852.973	23025
853.107	23170
853.242	22904
853.376	22934
853.511	22694
853.645	22694
853.78	22892
853.914	22812
854.048	22736
854.183	22919
854.317	22862
854.451	22987
854.585	22839
854.72	22771
854.854	22934
854.988	22729
855.122	22706
855.256	22675
855.39	22733
855.524	22839
855.658	22866
855.792	22725
855.926	22809
856.06	22831
856.194	22854
856.327	22828
856.461	22793
856.595	22778
856.729	22729
856.862	22850
856.996	22896
857.13	22763
857.263	23048
857.397	22790
857.53	22748
857.664	22812
857.797	23010
857.931	22835
858.064	22763
858.197	22915
858.331	22694
858.464	22812
858.597	22607
858.731	22824
858.864	22698
858.997	22706
859.13	22843
859.263	22782
859.396	22816
859.529	22805
859.662	22797
859.795	22744
859.928	22729
860.061	22923
860.194	22961
860.327	22862
860.46	22774
860.592	22919
860.725	22961
860.858	23014
860.99	22850
861.123	22767
861.256	22664
861.388	22854
861.521	23425
861.653	22725
861.786	22618
861.918	22542
862.05	22660
862.183	22702
862.315	22725
862.447	22816
862.58	22679
862.712	22561
862.844	22478
862.976	22577
863.108	22580
863.24	22972
863.372	22474
863.504	22535
863.636	22413
863.768	22615
863.9	22417
864.032	22508
864.164	22523
864.296	22447
864.428	22618
864.559	22546
864.691	22603
864.823	22443
864.954	22440
865.086	22508
865.217	22523
865.349	22424
865.48	22322
865.612	22284
865.743	22478
865.875	22314
866.006	22394
866.137	22352
866.269	22417
866.4	22333
866.531	22363
866.662	22249
866.793	22303
866.924	22276
867.055	22360
867.186	22394
867.317	22287
867.448	22234
867.579	22306
867.71	22287
867.841	22238
867.972	22284
868.103	22234
868.233	22299
868.364	22181
868.495	22432
868.625	22565
868.756	22713
868.886	22546
869.017	22580
869.147	22736
869.278	22607
869.408	22615
869.539	22607
869.669	22588
869.799	22470
869.929	22729
870.06	22622
870.19	22820
870.32	22869
870.45	22919
870.58	22911
870.71	22919
870.84	22976
870.97	22911
871.1	22923
871.23	23159
871.36	23067
871.489	23006
871.619	23029
871.749	23098
871.879	23185
872.008	23147
872.138	23227
872.267	23060
872.397	23014
872.526	22968
872.656	22961
872.785	23067
872.915	23098
873.044	23170
873.173	23124
873.303	23277
873.432	23159
873.561	23265
873.69	23258
873.819	23151
873.948	23162
874.077	23273
874.206	22968
874.335	23170
874.464	23246
874.593	23356
874.722	23402
874.851	23368
874.979	23349
875.108	23372
875.237	23379
875.365	23296
875.494	23402
875.623	23391
875.751	23242
875.88	23337
876.008	23531
876.136	23520
876.265	23843
876.393	23866
876.521	23802
876.65	23798
876.778	23840
876.906	23661
877.034	23680
877.162	23745
877.29	23520
877.418	23760
877.546	23802
877.674	23779
877.802	23672
877.93	23600
878.058	23627
878.185	23707
878.313	23653
878.441	23661
878.568	23524
878.696	23554
878.824	23615
878.951	23771
879.079	23939
879.206	23874
879.333	23779
879.461	23714
879.588	23752
879.715	23882
879.842	23988
879.97	23817
880.097	23524
880.224	23512
880.351	23642
880.478	23531
880.605	23562
880.732	23573
880.859	23786
880.986	23398
881.112	23585
881.239	23379
881.366	23159
881.493	23200
881.619	22949
881.746	23090
881.872	22972
881.999	23147
882.125	22942
882.252	23124
882.378	23018
882.505	23200
882.631	22862
882.757	22733
882.883	22831
883.01	22771
883.136	22713
883.262	22607
883.388	22557
883.514	22790
883.64	22809
883.766	22653
883.892	22356
884.018	22542
884.143	22611
884.269	22767
884.395	22451
884.52	22413
884.646	22375
884.772	22295
884.897	22329
885.023	22348
885.148	22466
885.274	22474
885.399	22428
885.524	22318
885.65	22375
885.775	22344
885.9	22352
886.025	22436
886.15	22500
886.275	22344
886.4	22139
886.525	22379
886.65	22287
886.775	22303
886.9	22527
887.025	22523
887.149	22382
887.274	22253
887.399	22139
887.523	22204
887.648	22074
887.773	21979
887.897	22253
888.021	22067
888.146	22040
888.27	22204
888.395	22276
888.519	22120
888.643	22093
888.767	22185
888.891	22021
889.015	21926
889.139	22013
889.263	21907
889.387	22097
889.511	22070
889.635	22154
889.759	21762
889.883	21953
890.006	21983
890.13	21979
890.254	21907
890.377	21865
890.501	21698
890.624	21671
890.748	21667
890.871	21454
890.995	21488
891.118	21450
891.241	21511
891.364	21507
891.488	21564
891.611	21454
891.734	21477
891.857	21523
891.98	21477
892.103	21523
892.226	21492
892.349	21370
892.471	21222
892.594	21367
892.717	21355
892.839	21249
892.962	21370
893.085	21428
893.207	21386
893.33	21241
893.452	21275
893.575	21382
893.697	21431
893.819	21469
893.941	21420
894.064	21424
894.186	21272
894.308	21260
894.43	21466
894.552	21435
894.674	21355
894.796	21150
894.918	21283
895.04	21332
895.161	21291
895.283	21351
895.405	21256
895.526	21340
895.648	21272
895.769	21325
895.891	21332
896.012	21325
896.134	21275
896.255	21272
896.376	21268
896.498	21256
896.619	21302
896.74	21275
896.861	21431
896.982	21553
897.103	21728
897.224	21599
897.345	21557
897.466	21462
897.587	21511
897.708	21667
897.828	21519
897.949	21351
898.07	21298
898.19	21355
898.311	21496
898.431	21363
898.552	21496
898.672	21606
898.792	21717
898.913	21473
899.033	21313
899.153	21279
899.273	21119
899.393	21199
899.513	21241
899.633	21283
899.753	21321
899.873	21256
899.993	21363
900.113	21173
900.232	21138
900.352	21142
900.472	21039
900.591	20876
900.711	20986
900.83	21024
900.95	21051
901.069	21119
901.189	20891
901.308	20587
901.427	20621
901.546	20564
901.665	20617
901.784	20549
901.904	20473
902.023	20290
902.141	20134
902.26	20103
902.379	20225
902.498	20096
902.617	20046
902.735	20134
902.854	19959
902.973	19959
903.091	19681
903.21	19677
903.328	19765
903.446	19613
903.565	19529
903.683	19537
903.801	19491
903.919	19544
904.038	19449
904.156	19221
904.274	19301
904.392	19133
904.51	19312
904.627	19190
904.745	19316
904.863	19381
904.981	19088
905.098	18916
905.216	18852
905.334	19088
905.451	19072
905.569	18875
905.686	19053
905.803	18795
905.921	18730
906.038	18840
906.155	18760
906.272	18578
906.389	18707
906.506	18502
906.623	18479
906.74	18433
906.857	18391
906.974	18365
907.091	18494
907.208	18506
907.324	18479
907.441	18365
907.557	18277
907.674	18270
907.79	18098
907.907	18171
908.023	18190
908.139	18281
908.256	18174
908.372	18106
908.488	18053
908.604	18011
908.72	17771
908.836	17901
908.952	17942
909.068	17904
909.184	18026
909.3	17901
909.415	17874
909.531	17809
909.647	17638
909.762	17592
909.878	17551
909.993	17619
910.108	17585
910.224	17444
910.339	17585
910.454	17467
910.57	17337
910.685	17459
910.8	17661
910.915	17570
911.03	17417
911.145	17185
911.259	17181
911.374	17166
911.489	17022
911.604	17075
911.718	16995
911.833	16942
911.947	16801
912.062	16771
912.176	16972
912.291	16957
912.405	16873
912.519	17098
912.633	17079
912.748	16828
912.862	16790
912.976	16759
913.09	16588
913.204	16660
913.318	16763
913.431	16790
913.545	16626
913.659	16801
913.772	16755
913.886	16607
914	16413
914.113	16584
914.226	16611
914.34	16523
914.453	16421
914.566	16451
914.68	16348
914.793	16382
914.906	16219
915.019	16059
915.132	16029
915.245	16154
915.358	16097
915.47	16071
915.583	16013
915.696	16105
915.809	16135
915.921	16173
916.034	15983
916.146	15994
916.259	15926
916.371	16059
916.483	15949
916.595	15850
916.708	15857
916.82	15903
916.932	15808
917.044	15789
917.156	15759
917.268	15831
917.38	15755
917.491	15660
917.603	15679
917.715	15728
917.826	15808
917.938	15515
918.049	15477
918.161	15694
918.272	15835
918.384	15736
918.495	15610
918.606	15504
918.717	15348
918.828	15344
918.939	15443
919.05	15325
919.161	15313
919.272	15146
919.383	15176
919.494	15443
919.604	15496
919.715	15523
919.826	15310
919.936	15367
920.047	15447
920.157	15268
920.267	15519
920.378	15378
920.488	15389
920.598	15580
920.708	15614
920.818	15431
920.928	15530
921.038	15614
921.148	15614
921.258	15252
921.368	15245
921.477	15108
921.587	15047
921.697	14986
921.806	14990
921.916	14880
922.025	14765
922.134	14621
922.244	14602
922.353	14670
922.462	14549
922.571	14526
922.68	14488
922.789	14370
922.898	14366
923.007	14233
923.116	14366
923.224	14328
923.333	14320
923.442	14229
923.55	14161
923.659	14271
923.767	14298
923.876	14084
923.984	14233
924.092	14031
924.201	14092
924.309	14084
924.417	14035
924.525	14005
924.633	14077
924.741	14819
924.849	13723
924.956	13963
925.064	13761
925.172	13624
925.279	13655
925.387	13708
925.494	13719
925.602	13852
925.709	13723
925.816	13636
925.924	13689
926.031	13712
926.138	13620
926.245	13651
926.352	13540
926.459	13719
926.566	13578
926.673	13514
926.779	13426
926.886	13400
926.993	13365
927.099	13244
927.206	13225
927.312	13198
927.419	13247
927.525	13282
927.631	13324
927.737	13209
927.843	13061
927.95	13046
928.056	13031
928.162	13038
928.267	13137
928.373	13620
928.479	13221
928.585	12894
928.69	12932
928.796	13027
928.901	12886
929.007	12810
929.112	12890
929.218	12871
929.323	12821
929.428	12802
929.533	12829
929.638	12700
929.743	12798
929.848	12700
929.953	12757
930.058	12559
930.163	12384
930.267	12456
930.372	12555
930.477	12350
930.581	12597
930.685	12414
930.79	12235
930.894	12289
930.998	12262
931.103	12452
931.207	12064
931.311	11973
931.415	11939
931.519	11737
931.623	11680
