Data from test_V78500241_661.txt Node
Date: Fri Mar 25 15:46:22 CST 2022
User: usil
Spectrometer: V785-0024
Trigger mode: 0
Integration Time (sec): 4.000000E-1
Scans to average: 1
Nonlinearity correction enabled: false
Boxcar width: 0
Storing dark spectrum: false
XAxis mode: Wavelengths
Number of Pixels in Spectrum: 1024
>>>>>Begin Spectral Data<<<<<
801.071	26807
801.214	26697
801.356	26476
801.499	26396
801.641	26263
801.783	26377
801.926	26324
802.068	26298
802.211	26176
802.353	26001
802.496	25917
802.638	25970
802.78	25898
802.923	25753
803.065	25791
803.208	25833
803.35	25803
803.492	25959
803.635	26073
803.777	25940
803.919	25978
804.061	26366
804.204	26031
804.346	25906
804.488	25974
804.63	25947
804.773	25830
804.915	25917
805.057	26161
805.199	25902
805.341	26210
805.483	26142
805.626	26126
805.768	26046
805.91	26115
806.052	26172
806.194	26130
806.336	26263
806.478	26100
806.62	26005
806.762	26248
806.904	26366
807.046	26552
807.188	26598
807.33	26537
807.472	26457
807.614	26473
807.756	26404
807.898	26313
808.04	26381
808.182	26278
808.324	26381
808.465	26423
808.607	26495
808.749	26651
808.891	26648
809.033	26864
809.174	26522
809.316	26568
809.458	26724
809.6	26659
809.741	26781
809.883	26883
810.025	26880
810.166	26880
810.308	26857
810.45	26929
810.591	26880
810.733	26667
810.875	26644
811.016	26518
811.158	26560
811.299	26781
811.441	26758
811.582	26796
811.724	26587
811.865	26453
812.007	26720
812.148	26640
812.29	26705
812.431	26845
812.573	27009
812.714	27077
812.855	27245
812.997	27332
813.138	27397
813.279	27283
813.421	27116
813.562	27104
813.703	26921
813.845	26735
813.986	26492
814.127	26431
814.268	26343
814.41	26244
814.551	26328
814.692	26431
814.833	26233
814.974	26195
815.115	26275
815.256	26005
815.397	26218
815.539	26149
815.68	26039
815.821	25864
815.962	26077
816.103	26046
816.244	25959
816.385	25913
816.526	25776
816.666	25734
816.807	25624
816.948	25689
817.089	25662
817.23	25582
817.371	25605
817.512	25533
817.653	25533
817.793	25464
817.934	25384
818.075	25563
818.216	25674
818.356	25464
818.497	25438
818.638	25278
818.778	25251
818.919	25244
819.06	25354
819.2	25468
819.341	25518
819.481	25575
819.622	25582
819.762	25868
819.903	25658
820.043	25670
820.184	25537
820.324	25563
820.465	25738
820.605	25556
820.746	25712
820.886	25377
821.026	25575
821.167	25727
821.307	25662
821.447	25723
821.588	25384
821.728	25228
821.868	25190
822.008	25107
822.149	24897
822.289	24920
822.429	24806
822.569	24722
822.709	24658
822.849	24532
822.99	24464
823.13	24494
823.27	24437
823.41	24251
823.55	24041
823.69	24121
823.83	24205
823.97	24277
824.11	24133
824.25	24110
824.389	24182
824.529	24102
824.669	24182
824.809	24209
824.949	24152
825.089	24258
825.228	24174
825.368	23901
825.508	23912
825.648	24053
825.787	24007
825.927	24083
826.067	23973
826.206	23916
826.346	24041
826.485	24034
826.625	23920
826.765	24114
826.904	23870
827.044	23634
827.183	23608
827.323	23790
827.462	23672
827.601	23748
827.741	23619
827.88	23882
828.02	23577
828.159	23668
828.298	23733
828.437	23722
828.577	23509
828.716	23824
828.855	23657
828.994	23280
829.134	23398
829.273	23334
829.412	23277
829.551	23280
829.69	23349
829.829	23391
829.968	23444
830.107	23471
830.246	23296
830.385	23273
830.524	23284
830.663	23060
830.802	23060
830.941	22953
831.08	22919
831.219	23033
831.357	23086
831.496	23113
831.635	22980
831.774	22892
831.913	22774
832.051	22839
832.19	22729
832.329	22835
832.467	22698
832.606	22767
832.744	22641
832.883	22618
833.022	22523
833.16	22672
833.299	22672
833.437	22767
833.576	22847
833.714	22740
833.852	22687
833.991	22622
834.129	22668
834.267	22771
834.406	22721
834.544	22733
834.682	22687
834.821	22744
834.959	22900
835.097	22645
835.235	22649
835.373	22694
835.511	22637
835.65	22580
835.788	22497
835.926	22363
836.064	22367
836.202	22432
836.34	22611
836.478	22557
836.615	22470
836.753	22504
836.891	22592
837.029	22569
837.167	22516
837.305	22535
837.443	22440
837.58	22436
837.718	22421
837.856	22462
837.993	22363
838.131	22485
838.269	22333
838.406	22314
838.544	22211
838.681	22059
838.819	22154
838.956	21907
839.094	22002
839.231	21861
839.369	22006
839.506	22284
839.643	22109
839.781	21968
839.918	21739
840.055	21850
840.193	21934
840.33	21876
840.467	21846
840.604	21949
840.742	22109
840.879	21641
841.016	21789
841.153	21736
841.29	21778
841.427	21838
841.564	21770
841.701	21827
841.838	21762
841.975	21694
842.112	21835
842.249	21663
842.385	21553
842.522	21709
842.659	21671
842.796	21515
842.933	21728
843.069	21561
843.206	21420
843.343	21686
843.479	21583
843.616	21568
843.752	21207
843.889	21199
844.025	21568
844.162	21458
844.298	21466
844.435	21317
844.571	21348
844.708	21378
844.844	21443
844.98	21526
845.117	21504
845.253	21222
845.389	21176
845.525	21359
845.661	21161
845.798	21051
845.934	21176
846.07	21093
846.206	21241
846.342	21252
846.478	21123
846.614	20815
846.75	20716
846.886	20667
847.022	20880
847.158	20765
847.294	20857
847.429	20902
847.565	20762
847.701	21017
847.837	20617
847.972	20465
848.108	20640
848.244	20659
848.379	20495
848.515	20480
848.65	20427
848.786	20320
848.921	20400
849.057	20552
849.192	20469
849.328	20511
849.463	20419
849.598	20393
849.734	20286
849.869	20427
850.004	20035
850.14	20210
850.275	20187
850.41	20096
850.545	20183
850.68	20172
850.815	20271
850.95	20187
851.085	20400
851.22	20290
851.355	20206
851.49	20183
851.625	20195
851.76	20062
851.895	20142
852.03	20191
852.165	20206
852.299	20282
852.434	20244
852.569	20309
852.703	20138
852.838	20199
852.973	20328
853.107	20256
853.242	20248
853.376	20039
853.511	19959
853.645	19917
853.78	20183
853.914	20005
854.048	19978
854.183	19986
854.317	20035
854.451	20199
854.585	20100
854.72	19909
854.854	20062
854.988	19887
855.122	20130
855.256	19898
855.39	19963
855.524	20065
855.658	19951
855.792	20069
855.926	20081
856.06	20020
856.194	20111
856.327	19989
856.461	19921
856.595	19879
856.729	19997
856.862	20126
856.996	19955
857.13	20046
857.263	20084
857.397	20077
857.53	20005
857.664	20092
857.797	20058
857.931	20054
858.064	20012
858.197	20115
858.331	19982
858.464	19986
858.597	19799
858.731	20012
858.864	19871
858.997	19936
859.13	20065
859.263	20062
859.396	20050
859.529	19936
859.662	19989
859.795	20005
859.928	19982
860.061	20119
860.194	20214
860.327	20054
860.46	20081
860.592	20153
860.725	20218
860.858	20107
860.99	19978
861.123	19978
861.256	19986
861.388	20062
861.521	20651
861.653	19811
861.786	19811
861.918	19997
862.05	19833
862.183	19818
862.315	19932
862.447	20088
862.58	19883
862.712	19761
862.844	19757
862.976	19818
863.108	19746
863.24	20115
863.372	19647
863.504	19875
863.636	19803
863.768	19750
863.9	19670
864.032	19753
864.164	19681
864.296	19833
864.428	19887
864.559	19868
864.691	19898
864.823	19791
864.954	19818
865.086	19677
865.217	19651
865.349	19624
865.48	19514
865.612	19662
865.743	19868
865.875	19594
866.006	19658
866.137	19765
866.269	19616
866.4	19708
866.531	19597
866.662	19666
866.793	19510
866.924	19510
867.055	19586
867.186	19674
867.317	19556
867.448	19499
867.579	19655
867.71	19575
867.841	19521
867.972	19594
868.103	19708
868.233	19578
868.364	19658
868.495	19575
868.625	19776
868.756	19947
868.886	19757
869.017	19894
869.147	19909
869.278	20035
869.408	19860
869.539	19909
869.669	19947
869.799	19818
869.929	19967
870.06	19959
870.19	20214
870.32	20119
870.45	20107
870.58	20343
870.71	20259
870.84	20377
870.97	20122
871.1	20256
871.23	20461
871.36	20419
871.489	20351
871.619	20408
871.749	20366
871.879	20461
872.008	20518
872.138	20438
872.267	20412
872.397	20469
872.526	20240
872.656	20442
872.785	20301
872.915	20484
873.044	20609
873.173	20358
873.303	20404
873.432	20454
873.561	20648
873.69	20469
873.819	20412
873.948	20495
874.077	20609
874.206	20385
874.335	20431
874.464	20617
874.593	20731
874.722	20697
874.851	20788
874.979	20815
875.108	20788
875.237	20648
875.365	20552
875.494	20667
875.623	20872
875.751	20743
875.88	20769
876.008	20864
876.136	20971
876.265	21123
876.393	21264
876.521	21203
876.65	21192
876.778	21157
876.906	21100
877.034	21005
877.162	21089
877.29	21047
877.418	20998
877.546	21085
877.674	21066
877.802	21032
877.93	21074
878.058	21039
878.185	20952
878.313	21104
878.441	21024
878.568	20823
878.696	20948
878.824	20986
878.951	21112
879.079	21313
879.206	21397
879.333	21211
879.461	21108
879.588	21199
879.715	21294
879.842	21370
879.97	21127
880.097	20956
880.224	20971
880.351	20982
880.478	20944
880.605	20883
880.732	20868
880.859	21218
880.986	20895
881.112	20918
881.239	20800
881.366	20625
881.493	20632
881.619	20621
881.746	20541
881.872	20473
881.999	20374
882.125	20438
882.252	20594
882.378	20537
882.505	20476
882.631	20339
882.757	20218
882.883	20313
883.01	20210
883.136	20115
883.262	20073
883.388	20039
883.514	20313
883.64	20164
883.766	20183
883.892	20050
884.018	19921
884.143	20183
884.269	20267
884.395	19947
884.52	19925
884.646	20001
884.772	19811
884.897	19841
885.023	19883
885.148	19974
885.274	20050
885.399	19997
885.524	19830
885.65	19887
885.775	19849
885.9	19860
886.025	20043
886.15	19902
886.275	19902
886.4	19753
886.525	19769
886.65	19776
886.775	19826
886.9	20001
887.025	20096
887.149	19894
887.274	19700
887.399	19605
887.523	19772
887.648	19552
887.773	19510
887.897	19670
888.021	19632
888.146	19559
888.27	19727
888.395	19826
888.519	19662
888.643	19742
888.767	19620
888.891	19597
889.015	19499
889.139	19556
889.263	19422
889.387	19624
889.511	19704
889.635	19464
889.759	19407
889.883	19476
890.006	19350
890.13	19483
890.254	19373
890.377	19403
890.501	19225
890.624	19209
890.748	19327
890.871	19053
890.995	19053
891.118	18932
891.241	19019
891.364	19057
891.488	19183
891.611	18993
891.734	19232
891.857	19095
891.98	19126
892.103	19122
892.226	19038
892.349	18989
892.471	18913
892.594	18996
892.717	18962
892.839	18954
892.962	19053
893.085	19053
893.207	18947
893.33	18875
893.452	18954
893.575	18981
893.697	18920
893.819	19091
893.941	19099
894.064	19103
894.186	19034
894.308	18928
894.43	19053
894.552	19057
894.674	19038
894.796	18829
894.918	18886
895.04	18985
895.161	19015
895.283	19046
895.405	18981
895.526	18977
895.648	18920
895.769	19019
895.891	18993
896.012	18985
896.134	19084
896.255	19084
896.376	18947
896.498	19015
896.619	19099
896.74	19065
896.861	18993
896.982	19266
897.103	19434
897.224	19381
897.345	19289
897.466	19274
897.587	19209
897.708	19384
897.828	19354
897.949	19209
898.07	19046
898.19	19168
898.311	19358
898.431	19168
898.552	19213
898.672	19346
898.792	19354
898.913	19320
899.033	19183
899.153	19175
899.273	19069
899.393	19057
899.513	19053
899.633	19076
899.753	18962
899.873	19015
899.993	19015
900.113	19114
900.232	19008
900.352	19023
900.472	18970
900.591	18863
900.711	18741
900.83	18738
900.95	19053
901.069	18844
901.189	18779
901.308	18608
901.427	18372
901.546	18467
901.665	18479
901.784	18471
901.904	18273
902.023	18171
902.141	17992
902.26	18015
902.379	17977
902.498	17912
902.617	17832
902.735	17859
902.854	18007
902.973	17859
903.091	17623
903.21	17672
903.328	17668
903.446	17509
903.565	17463
903.683	17433
903.801	17406
903.919	17356
904.038	17410
904.156	17242
904.274	17288
904.392	17033
904.51	17231
904.627	17178
904.745	17223
904.863	17280
904.981	17045
905.098	16805
905.216	16873
905.334	16961
905.451	16965
905.569	16892
905.686	17010
905.803	16930
905.921	16698
906.038	16755
906.155	16748
906.272	16489
906.389	16550
906.506	16455
906.623	16421
906.74	16519
906.857	16223
906.974	16303
907.091	16538
907.208	16580
907.324	16489
907.441	16516
907.557	16188
907.674	16261
907.79	16044
907.907	16032
908.023	16192
908.139	16226
908.256	16101
908.372	16055
908.488	16074
908.604	15941
908.72	15854
908.836	15918
908.952	15800
909.068	15865
909.184	16006
909.3	15949
909.415	15930
909.531	15793
909.647	15637
909.762	15584
909.878	15641
909.993	15732
910.108	15606
910.224	15584
910.339	15648
910.454	15496
910.57	15310
910.685	15325
910.8	15564
910.915	15606
911.03	15408
911.145	15252
911.259	15249
911.374	15214
911.489	15138
911.604	15100
911.718	14986
911.833	15013
911.947	14887
912.062	14788
912.176	15081
912.291	14998
912.405	14921
912.519	15119
912.633	15161
912.748	15005
912.862	14819
912.976	14731
913.09	14625
913.204	14857
913.318	14746
913.431	14746
913.545	14914
913.659	14853
913.772	14731
913.886	14594
914	14667
914.113	14796
914.226	14750
914.34	14724
914.453	14514
914.566	14796
914.68	14530
914.793	14537
914.906	14256
915.019	14286
915.132	14225
915.245	14286
915.358	14191
915.47	14275
915.583	14263
915.696	14305
915.809	14393
915.921	14374
916.034	14199
916.146	14107
916.259	14081
916.371	14237
916.483	14237
916.595	14199
916.708	14031
916.82	14119
916.932	13997
917.044	13940
917.156	14058
917.268	13951
917.38	13936
917.491	13879
917.603	13909
917.715	14046
917.826	13997
917.938	13887
918.049	13772
918.161	13917
918.272	14031
918.384	14005
918.495	13906
918.606	13731
918.717	13605
918.828	13750
918.939	13769
919.05	13715
919.161	13708
919.272	13499
919.383	13616
919.494	13700
919.604	13803
919.715	13723
919.826	13597
919.936	13666
920.047	13803
920.157	13704
920.267	13818
920.378	13731
920.488	13590
920.598	13875
920.708	14024
920.818	13761
920.928	13803
921.038	14073
921.148	13982
921.258	13693
921.368	13540
921.477	13468
921.587	13464
921.697	13362
921.806	13430
921.916	13297
922.025	13118
922.134	13179
922.244	13000
922.353	13126
922.462	13034
922.571	12901
922.68	12700
922.789	12814
922.898	12760
923.007	12646
923.116	12837
923.224	12722
923.333	12639
923.442	12566
923.55	12639
923.659	12658
923.767	12684
923.876	12536
923.984	12627
924.092	12494
924.201	12570
924.309	12502
924.417	12570
924.525	12445
924.633	12517
924.741	13274
924.849	12175
924.956	12429
925.064	12285
925.172	12194
925.279	12152
925.387	12304
925.494	12262
925.602	12376
925.709	12357
925.816	12133
925.924	12247
926.031	12311
926.138	12083
926.245	12251
926.352	12114
926.459	12266
926.566	12254
926.673	12068
926.779	12076
926.886	11912
926.993	11874
927.099	11798
927.206	11764
927.312	11752
927.419	11847
927.525	11805
927.631	11908
927.737	11710
927.843	11668
927.95	11562
928.056	11577
928.162	11615
928.267	11737
928.373	12330
928.479	11748
928.585	11589
928.69	11657
928.796	11634
928.901	11581
929.007	11334
929.112	11505
929.218	11474
929.323	11429
929.428	11299
929.533	11486
929.638	11265
929.743	11383
929.848	11444
929.953	11296
930.058	11212
930.163	11064
930.267	11105
930.372	11341
930.477	11086
930.581	11288
930.685	11128
930.79	10991
930.894	11067
930.998	10930
931.103	11151
931.207	10805
931.311	10786
931.415	10554
931.519	10402
931.623	10367
