Data from test_V78500241_3496.txt Node
Date: Fri Mar 25 16:06:01 CST 2022
User: usil
Spectrometer: V785-0024
Trigger mode: 0
Integration Time (sec): 4.000000E-1
Scans to average: 1
Nonlinearity correction enabled: false
Boxcar width: 0
Storing dark spectrum: false
XAxis mode: Wavelengths
Number of Pixels in Spectrum: 1024
>>>>>Begin Spectral Data<<<<<
801.071	29014
801.214	28767
801.356	28637
801.499	28565
801.641	28645
801.783	28577
801.926	28603
802.068	28481
802.211	28546
802.353	28489
802.496	28322
802.638	28219
802.78	28238
802.923	28306
803.065	28116
803.208	28143
803.35	28306
803.492	28360
803.635	28466
803.777	28344
803.919	28485
804.061	28786
804.204	28421
804.346	28447
804.488	28421
804.63	28348
804.773	28371
804.915	28580
805.057	28763
805.199	28535
805.341	28519
805.483	28611
805.626	28592
805.768	28462
805.91	28656
806.052	28653
806.194	28516
806.336	28771
806.478	28656
806.62	28774
806.762	28820
806.904	28888
807.046	29189
807.188	29079
807.33	29044
807.472	29223
807.614	29010
807.756	29109
807.898	28984
808.04	28915
808.182	28873
808.324	28847
808.465	28995
808.607	29208
808.749	29288
808.891	29315
809.033	29566
809.174	29379
809.316	29311
809.458	29284
809.6	29204
809.741	29551
809.883	29482
810.025	29699
810.166	29634
810.308	29547
810.45	29600
810.591	29623
810.733	29334
810.875	29391
811.016	29235
811.158	29246
811.299	29414
811.441	29539
811.582	29459
811.724	29486
811.865	29387
812.007	29425
812.148	29414
812.29	29368
812.431	29649
812.573	29748
812.714	29786
812.855	29950
812.997	29920
813.138	30121
813.279	30064
813.421	29927
813.562	29813
813.703	29634
813.845	29668
813.986	29273
814.127	29242
814.268	29174
814.41	28995
814.551	29029
814.692	29250
814.833	29117
814.974	29018
815.115	29143
815.256	28930
815.397	28957
815.539	29166
815.68	28923
815.821	28854
815.962	28835
816.103	28809
816.244	28767
816.385	28717
816.526	28607
816.666	28470
816.807	28329
816.948	28447
817.089	28462
817.23	28352
817.371	28451
817.512	28470
817.653	28557
817.793	28424
817.934	28447
818.075	28299
818.216	28485
818.356	28333
818.497	28200
818.638	28074
818.778	28226
818.919	28093
819.06	28325
819.2	28360
819.341	28455
819.481	28337
819.622	28550
819.762	28873
819.903	28622
820.043	28508
820.184	28664
820.324	28607
820.465	28550
820.605	28573
820.746	28417
820.886	28485
821.026	28443
821.167	28474
821.307	28573
821.447	28436
821.588	28375
821.728	28333
821.868	28135
822.008	27991
822.149	27968
822.289	27880
822.429	27663
822.569	27576
822.709	27694
822.849	27462
822.99	27530
823.13	27462
823.27	27340
823.41	27332
823.55	27142
823.69	27287
823.83	27195
823.97	27108
824.11	26899
824.25	27096
824.389	27055
824.529	26979
824.669	27188
824.809	27260
824.949	27226
825.089	27222
825.228	27104
825.368	26937
825.508	26944
825.648	26921
825.787	26979
825.927	27043
826.067	26990
826.206	26990
826.346	27058
826.485	26975
826.625	26994
826.765	27100
826.904	26967
827.044	26895
827.183	26815
827.323	26648
827.462	26773
827.601	26659
827.741	26583
827.88	26670
828.02	26613
828.159	26640
828.298	26743
828.437	26609
828.577	26644
828.716	26796
828.855	26594
828.994	26377
829.134	26469
829.273	26488
829.412	26290
829.551	26370
829.69	26446
829.829	26362
829.968	26446
830.107	26625
830.246	26415
830.385	26355
830.524	26183
830.663	26218
830.802	26046
830.941	26012
831.08	25898
831.219	26027
831.357	26062
831.496	26149
831.635	25871
831.774	25955
831.913	25864
832.051	25860
832.19	25780
832.329	25826
832.467	25674
832.606	25662
832.744	25590
832.883	25502
833.022	25537
833.16	25609
833.299	25769
833.437	25788
833.576	25658
833.714	25753
833.852	25795
833.991	25769
834.129	25784
834.267	25776
834.406	25776
834.544	25727
834.682	25750
834.821	25696
834.959	25780
835.097	25677
835.235	25734
835.373	25731
835.511	25719
835.65	25476
835.788	25544
835.926	25464
836.064	25297
836.202	25377
836.34	25472
836.478	25590
836.615	25594
836.753	25487
836.891	25544
837.029	25419
837.167	25464
837.305	25468
837.443	25468
837.58	25335
837.718	25255
837.856	25506
837.993	25407
838.131	25324
838.269	25194
838.406	25293
838.544	25255
838.681	25004
838.819	25034
838.956	24806
839.094	24840
839.231	24901
839.369	25027
839.506	25266
839.643	25076
839.781	24863
839.918	24897
840.055	24951
840.193	24749
840.33	24707
840.467	24719
840.604	24795
840.742	24992
840.879	24494
841.016	24707
841.153	24616
841.29	24764
841.427	24688
841.564	24833
841.701	24696
841.838	24612
841.975	24623
842.112	24707
842.249	24585
842.385	24494
842.522	24665
842.659	24505
842.796	24555
842.933	24544
843.069	24445
843.206	24327
843.343	24456
843.479	24563
843.616	24601
843.752	24262
843.889	24361
844.025	24426
844.162	24136
844.298	24418
844.435	24239
844.571	24220
844.708	24251
844.844	24441
844.98	24338
845.117	24232
845.253	24247
845.389	24186
845.525	24144
845.661	24011
845.798	24045
845.934	24102
846.07	24003
846.206	24026
846.342	24117
846.478	23931
846.614	23794
846.75	23646
846.886	23733
847.022	23748
847.158	23710
847.294	23672
847.429	23722
847.565	23642
847.701	23996
847.837	23608
847.972	23368
848.108	23452
848.244	23501
848.379	23440
848.515	23421
848.65	23345
848.786	23299
848.921	23318
849.057	23391
849.192	23414
849.328	23379
849.463	23132
849.598	23284
849.734	23193
849.869	23025
850.004	23185
850.14	23170
850.275	23044
850.41	23029
850.545	22885
850.68	23006
850.815	23162
850.95	23029
851.085	23064
851.22	23121
851.355	23064
851.49	23136
851.625	22968
851.76	23044
851.895	23056
852.03	22972
852.165	23166
852.299	22953
852.434	23105
852.569	23010
852.703	22987
852.838	23216
852.973	23220
853.107	23083
853.242	23075
853.376	23018
853.511	22824
853.645	22923
853.78	23044
853.914	22835
854.048	22850
854.183	22828
854.317	22782
854.451	23037
854.585	22892
854.72	22866
854.854	23003
854.988	22816
855.122	22892
855.256	22820
855.39	22828
855.524	22904
855.658	22949
855.792	22858
855.926	22908
856.06	23056
856.194	22873
856.327	22927
856.461	22752
856.595	22691
856.729	22862
856.862	22976
856.996	22809
857.13	22915
857.263	22908
857.397	22999
857.53	22889
857.664	22934
857.797	23064
857.931	23010
858.064	22850
858.197	22980
858.331	22854
858.464	22873
858.597	22782
858.731	22862
858.864	22812
858.997	22797
859.13	22828
859.263	22771
859.396	22900
859.529	22919
859.662	22877
859.795	22862
859.928	22816
860.061	23083
860.194	23060
860.327	22965
860.46	22873
860.592	22938
860.725	22972
860.858	22999
860.99	22915
861.123	22721
861.256	22759
861.388	22869
861.521	23630
861.653	22634
861.786	22580
861.918	22797
862.05	22771
862.183	22774
862.315	22782
862.447	22972
862.58	22637
862.712	22641
862.844	22561
862.976	22588
863.108	22740
863.24	22934
863.372	22504
863.504	22592
863.636	22592
863.768	22645
863.9	22565
864.032	22405
864.164	22554
864.296	22580
864.428	22710
864.559	22694
864.691	22653
864.823	22550
864.954	22660
865.086	22596
865.217	22531
865.349	22379
865.48	22489
865.612	22455
865.743	22668
865.875	22500
866.006	22421
866.137	22424
866.269	22432
866.4	22493
866.531	22363
866.662	22402
866.793	22451
866.924	22405
867.055	22356
867.186	22413
867.317	22352
867.448	22367
867.579	22375
867.71	22390
867.841	22363
867.972	22352
868.103	22390
868.233	22402
868.364	22402
868.495	22451
868.625	22649
868.756	22778
868.886	22557
869.017	22637
869.147	22588
869.278	22774
869.408	22611
869.539	22630
869.669	22721
869.799	22706
869.929	22824
870.06	22725
870.19	23037
870.32	22972
870.45	22915
870.58	23033
870.71	23174
870.84	23121
870.97	22980
871.1	23178
871.23	23124
871.36	23269
871.489	23166
871.619	23231
871.749	23170
871.879	23181
872.008	23296
872.138	23254
872.267	23162
872.397	23022
872.526	23029
872.656	23136
872.785	23128
872.915	23200
873.044	23383
873.173	23208
873.303	23299
873.432	23223
873.561	23383
873.69	23334
873.819	23299
873.948	23303
874.077	23250
874.206	23261
874.335	23231
874.464	23341
874.593	23436
874.722	23444
874.851	23425
874.979	23497
875.108	23528
875.237	23330
875.365	23265
875.494	23528
875.623	23493
875.751	23448
875.88	23463
876.008	23630
876.136	23623
876.265	23726
876.393	24003
876.521	23885
876.65	23920
876.778	23821
876.906	23927
877.034	23836
877.162	23817
877.29	23623
877.418	23824
877.546	23745
877.674	23794
877.802	23821
877.93	23722
878.058	23726
878.185	23783
878.313	23722
878.441	23813
878.568	23608
878.696	23699
878.824	23897
878.951	23885
879.079	23912
879.206	24182
879.333	23965
879.461	23737
879.588	23866
879.715	23942
879.842	23920
879.97	23802
880.097	23623
880.224	23695
880.351	23615
880.478	23528
880.605	23562
880.732	23520
880.859	23767
880.986	23585
881.112	23710
881.239	23505
881.366	23376
881.493	23235
881.619	23220
881.746	23246
881.872	23235
881.999	23128
882.125	23105
882.252	23277
882.378	23185
882.505	23166
882.631	22972
882.757	22835
882.883	22957
883.01	22809
883.136	22862
883.262	22691
883.388	22653
883.514	22831
883.64	22816
883.766	22729
883.892	22542
884.018	22634
884.143	22835
884.269	22900
884.395	22542
884.52	22466
884.646	22455
884.772	22421
884.897	22344
885.023	22531
885.148	22569
885.274	22550
885.399	22523
885.524	22466
885.65	22535
885.775	22500
885.9	22447
886.025	22565
886.15	22443
886.275	22493
886.4	22371
886.525	22424
886.65	22253
886.775	22405
886.9	22550
887.025	22774
887.149	22447
887.274	22253
887.399	22234
887.523	22200
887.648	22253
887.773	22169
887.897	22352
888.021	22181
888.146	22158
888.27	22291
888.395	22246
888.519	22223
888.643	22268
888.767	22306
888.891	22120
889.015	21994
889.139	21941
889.263	21975
889.387	22177
889.511	22386
889.635	22238
889.759	22021
889.883	22044
890.006	22048
890.13	22055
890.254	22040
890.377	21998
890.501	21728
890.624	21644
890.748	21975
890.871	21610
890.995	21542
891.118	21462
891.241	21603
891.364	21534
891.488	21660
891.611	21591
891.734	21583
891.857	21671
891.98	21576
892.103	21663
892.226	21500
892.349	21545
892.471	21329
892.594	21564
892.717	21454
892.839	21310
892.962	21397
893.085	21515
893.207	21481
893.33	21355
893.452	21355
893.575	21458
893.697	21443
893.819	21583
893.941	21633
894.064	21618
894.186	21462
894.308	21420
894.43	21389
894.552	21492
894.674	21587
894.796	21401
894.918	21545
895.04	21431
895.161	21504
895.283	21485
895.405	21382
895.526	21416
895.648	21473
895.769	21469
895.891	21397
896.012	21492
896.134	21447
896.255	21469
896.376	21340
896.498	21473
896.619	21439
896.74	21477
896.861	21447
896.982	21736
897.103	21831
897.224	21625
897.345	21652
897.466	21469
897.587	21701
897.708	21762
897.828	21618
897.949	21637
898.07	21568
898.19	21500
898.311	21679
898.431	21576
898.552	21622
898.672	21583
898.792	21732
898.913	21599
899.033	21576
899.153	21340
899.273	21184
899.393	21321
899.513	21367
899.633	21306
899.753	21306
899.873	21321
899.993	21294
900.113	21351
900.232	21230
900.352	21230
900.472	21055
900.591	21062
900.711	21070
900.83	21119
900.95	21218
901.069	21096
901.189	20960
901.308	20689
901.427	20716
901.546	20655
901.665	20682
901.784	20636
901.904	20556
902.023	20400
902.141	20237
902.26	20149
902.379	20275
902.498	20122
902.617	20187
902.735	20168
902.854	20134
902.973	20027
903.091	19811
903.21	19814
903.328	19928
903.446	19731
903.565	19620
903.683	19666
903.801	19548
903.919	19681
904.038	19540
904.156	19316
904.274	19388
904.392	19449
904.51	19453
904.627	19453
904.745	19445
904.863	19324
904.981	19228
905.098	19065
905.216	19110
905.334	19050
905.451	19080
905.569	18977
905.686	19160
905.803	18897
905.921	18856
906.038	18837
906.155	18844
906.272	18734
906.389	18825
906.506	18559
906.623	18570
906.74	18585
906.857	18448
906.974	18445
907.091	18528
907.208	18658
907.324	18669
907.441	18437
907.557	18266
907.674	18296
907.79	18133
907.907	18171
908.023	18209
908.139	18311
908.256	18285
908.372	18174
908.488	18270
908.604	18144
908.72	17935
908.836	17935
908.952	17904
909.068	18034
909.184	18026
909.3	17958
909.415	17946
909.531	17927
909.647	17737
909.762	17726
909.878	17535
909.993	17661
910.108	17737
910.224	17646
910.339	17573
910.454	17520
910.57	17528
910.685	17402
910.8	17756
910.915	17615
911.03	17463
911.145	17280
911.259	17292
911.374	17193
911.489	17136
911.604	17128
911.718	16961
911.833	17155
911.947	16881
912.062	16820
912.176	16999
912.291	16930
912.405	16942
912.519	17181
912.633	17227
912.748	16991
912.862	17102
912.976	16873
913.09	16774
913.204	16831
913.318	16847
913.431	16911
913.545	16835
913.659	16930
913.772	16713
913.886	16656
914	16611
914.113	16744
914.226	16668
914.34	16500
914.453	16542
914.566	16580
914.68	16527
914.793	16440
914.906	16249
915.019	16204
915.132	16074
915.245	16188
915.358	16226
915.47	16044
915.583	16166
915.696	16086
915.809	16204
915.921	16329
916.034	16128
916.146	16044
916.259	16105
916.371	16173
916.483	16082
916.595	16013
916.708	15850
916.82	15960
916.932	15892
917.044	15869
917.156	15846
917.268	15778
917.38	15724
917.491	15835
917.603	15823
917.715	15808
917.826	15827
917.938	15736
918.049	15618
918.161	15656
918.272	15774
918.384	15690
918.495	15728
918.606	15530
918.717	15477
918.828	15538
918.939	15542
919.05	15424
919.161	15481
919.272	15256
919.383	15340
919.494	15614
919.604	15614
919.715	15401
919.826	15443
919.936	15370
920.047	15557
920.157	15351
920.267	15610
920.378	15492
920.488	15405
920.598	15587
920.708	15667
920.818	15618
920.928	15485
921.038	15724
921.148	15660
921.258	15431
921.368	15405
921.477	15176
921.587	15203
921.697	15089
921.806	15138
921.916	15097
922.025	14819
922.134	14849
922.244	14689
922.353	14796
922.462	14682
922.571	14575
922.68	14465
922.789	14404
922.898	14465
923.007	14351
923.116	14488
923.224	14457
923.333	14347
923.442	14252
923.55	14225
923.659	14256
923.767	14317
923.876	14187
923.984	14290
924.092	14096
924.201	14183
924.309	14164
924.417	14111
924.525	14024
924.633	14161
924.741	15070
924.849	13864
924.956	13925
925.064	13791
925.172	13849
925.279	13757
925.387	13776
925.494	13753
925.602	13925
925.709	13814
925.816	13624
925.924	13693
926.031	13894
926.138	13723
926.245	13731
926.352	13616
926.459	13742
926.566	13818
926.673	13639
926.779	13544
926.886	13468
926.993	13358
927.099	13388
927.206	13175
927.312	13183
927.419	13449
927.525	13304
927.631	13377
927.737	13301
927.843	13168
927.95	13084
928.056	13137
928.162	13114
928.267	13164
928.373	13750
928.479	13266
928.585	12954
928.69	13145
928.796	13095
928.901	13084
929.007	12791
929.112	13012
929.218	12863
929.323	12958
929.428	12806
929.533	12973
929.638	12787
929.743	12829
929.848	12886
929.953	12711
930.058	12749
930.163	12441
930.267	12517
930.372	12650
930.477	12418
930.581	12665
930.685	12422
930.79	12270
930.894	12350
930.998	12311
931.103	12490
931.207	12121
931.311	12068
931.415	11920
931.519	11840
931.623	11745
