Data from test_V78500241_849.txt Node
Date: Fri Mar 25 15:47:41 CST 2022
User: usil
Spectrometer: V785-0024
Trigger mode: 0
Integration Time (sec): 4.000000E-1
Scans to average: 1
Nonlinearity correction enabled: false
Boxcar width: 0
Storing dark spectrum: false
XAxis mode: Wavelengths
Number of Pixels in Spectrum: 1024
>>>>>Begin Spectral Data<<<<<
801.071	27526
801.214	27523
801.356	27150
801.499	27138
801.641	27112
801.783	27020
801.926	27093
802.068	27047
802.211	26971
802.353	26861
802.496	26724
802.638	26746
802.78	26781
802.923	26617
803.065	26636
803.208	26697
803.35	26701
803.492	26918
803.635	26781
803.777	26769
803.919	26853
804.061	27150
804.204	26815
804.346	26762
804.488	26708
804.63	26838
804.773	26727
804.915	26868
805.057	27074
805.199	26880
805.341	27017
805.483	27020
805.626	26956
805.768	26940
805.91	26872
806.052	27036
806.194	26777
806.336	27260
806.478	27070
806.62	26975
806.762	27100
806.904	27195
807.046	27603
807.188	27321
807.33	27431
807.472	27386
807.614	27431
807.756	27367
807.898	27249
808.04	27332
808.182	27203
808.324	27317
808.465	27367
808.607	27424
808.749	27717
808.891	27770
809.033	27766
809.174	27614
809.316	27583
809.458	27698
809.6	27686
809.741	27694
809.883	27774
810.025	27987
810.166	27918
810.308	27785
810.45	27903
810.591	27827
810.733	27603
810.875	27633
811.016	27545
811.158	27660
811.299	27816
811.441	27804
811.582	27892
811.724	27705
811.865	27553
812.007	27648
812.148	27656
812.29	27656
812.431	27759
812.573	27918
812.714	28078
812.855	28158
812.997	28234
813.138	28424
813.279	28348
813.421	28215
813.562	28051
813.703	27964
813.845	27926
813.986	27511
814.127	27389
814.268	27279
814.41	27241
814.551	27389
814.692	27272
814.833	27306
814.974	27256
815.115	27226
815.256	27085
815.397	27207
815.539	27294
815.68	27039
815.821	27055
815.962	27013
816.103	27154
816.244	26967
816.385	26948
816.526	26895
816.666	26682
816.807	26682
816.948	26617
817.089	26765
817.23	26617
817.371	26636
817.512	26621
817.653	26571
817.793	26404
817.934	26564
818.075	26613
818.216	26533
818.356	26511
818.497	26484
818.638	26298
818.778	26530
818.919	26309
819.06	26492
819.2	26431
819.341	26511
819.481	26537
819.622	26667
819.762	26864
819.903	26792
820.043	26739
820.184	26549
820.324	26507
820.465	26845
820.605	26781
820.746	26629
820.886	26579
821.026	26686
821.167	26686
821.307	26788
821.447	26571
821.588	26503
821.728	26442
821.868	26168
822.008	26100
822.149	26008
822.289	25970
822.429	25852
822.569	25731
822.709	25864
822.849	25601
822.99	25514
823.13	25521
823.27	25548
823.41	25407
823.55	25263
823.69	25434
823.83	25472
823.97	25316
824.11	25152
824.25	25171
824.389	25263
824.529	25407
824.669	25320
824.809	25350
824.949	25377
825.089	25247
825.228	25297
825.368	25095
825.508	25133
825.648	25133
825.787	25137
825.927	25050
826.067	25164
826.206	24977
826.346	25148
826.485	25221
826.625	25065
826.765	25221
826.904	25069
827.044	24726
827.183	24787
827.323	24757
827.462	24814
827.601	24741
827.741	24760
827.88	24810
828.02	24635
828.159	24688
828.298	24787
828.437	24810
828.577	24741
828.716	24779
828.855	24654
828.994	24513
829.134	24422
829.273	24502
829.412	24422
829.551	24361
829.69	24467
829.829	24448
829.968	24646
830.107	24555
830.246	24391
830.385	24521
830.524	24380
830.663	24266
830.802	24281
830.941	24110
831.08	24030
831.219	24129
831.357	24114
831.496	24372
831.635	24121
831.774	23980
831.913	23984
832.051	23882
832.19	23973
832.329	23893
832.467	23684
832.606	23714
832.744	23748
832.883	23687
833.022	23684
833.16	23828
833.299	23889
833.437	23760
833.576	23954
833.714	23824
833.852	23973
833.991	23885
834.129	24007
834.267	23950
834.406	23790
834.544	23897
834.682	23927
834.821	23726
834.959	24049
835.097	23745
835.235	23961
835.373	23878
835.511	23783
835.65	23687
835.788	23604
835.926	23661
836.064	23524
836.202	23676
836.34	23649
836.478	23794
836.615	23543
836.753	23531
836.891	23661
837.029	23729
837.167	23668
837.305	23547
837.443	23577
837.58	23600
837.718	23691
837.856	23589
837.993	23440
838.131	23482
838.269	23398
838.406	23410
838.544	23406
838.681	23204
838.819	23200
838.956	23067
839.094	23079
839.231	22961
839.369	23242
839.506	23429
839.643	23216
839.781	22968
839.918	22881
840.055	23075
840.193	23098
840.33	22999
840.467	22995
840.604	23056
840.742	23197
840.879	22854
841.016	23022
841.153	22881
841.29	22987
841.427	22980
841.564	23010
841.701	22961
841.838	22839
841.975	22797
842.112	22824
842.249	22683
842.385	22641
842.522	22816
842.659	22786
842.796	22763
842.933	22630
843.069	22672
843.206	22557
843.343	22767
843.479	22588
843.616	22725
843.752	22474
843.889	22462
844.025	22409
844.162	22451
844.298	22546
844.435	22557
844.571	22386
844.708	22455
844.844	22584
844.98	22565
845.117	22721
845.253	22382
845.389	22379
845.525	22398
845.661	22291
845.798	22124
845.934	22200
846.07	22135
846.206	22200
846.342	22375
846.478	22200
846.614	21888
846.75	21831
846.886	21918
847.022	22013
847.158	21911
847.294	21873
847.429	22048
847.565	21892
847.701	22185
847.837	21660
847.972	21553
848.108	21743
848.244	21762
848.379	21515
848.515	21504
848.65	21473
848.786	21583
848.921	21462
849.057	21530
849.192	21439
849.328	21504
849.463	21519
849.598	21477
849.734	21439
849.869	21344
850.004	21332
850.14	21211
850.275	21382
850.41	21173
850.545	21169
850.68	21241
850.815	21340
850.95	21329
851.085	21405
851.22	21401
851.355	21294
851.49	21233
851.625	21241
851.76	21203
851.895	21188
852.03	21127
852.165	21214
852.299	21283
852.434	21344
852.569	21310
852.703	21359
852.838	21389
852.973	21443
853.107	21344
853.242	21131
853.376	21150
853.511	20963
853.645	21066
853.78	21131
853.914	21085
854.048	21013
854.183	21017
854.317	21188
854.451	21256
854.585	21089
854.72	21009
854.854	21074
854.988	20952
855.122	21146
855.256	21028
855.39	21100
855.524	21146
855.658	21119
855.792	21112
855.926	21100
856.06	21157
856.194	21165
856.327	21062
856.461	21001
856.595	21036
856.729	20986
856.862	21192
856.996	21127
857.13	21184
857.263	21096
857.397	21051
857.53	21161
857.664	21275
857.797	21195
857.931	21218
858.064	21062
858.197	21310
858.331	21043
858.464	20944
858.597	20948
858.731	21173
858.864	21100
858.997	21093
859.13	21173
859.263	21070
859.396	21116
859.529	21157
859.662	21009
859.795	21070
859.928	21207
860.061	21131
860.194	21264
860.327	21017
860.46	21161
860.592	21195
860.725	21173
860.858	21321
860.99	21157
861.123	20933
861.256	21028
861.388	21108
861.521	21656
861.653	21039
861.786	20960
861.918	20944
862.05	20971
862.183	21051
862.315	21089
862.447	20986
862.58	20979
862.712	20899
862.844	20754
862.976	20925
863.108	21024
863.24	21252
863.372	20857
863.504	20853
863.636	20792
863.768	20746
863.9	20678
864.032	20644
864.164	20731
864.296	20815
864.428	20910
864.559	20914
864.691	20956
864.823	20777
864.954	20792
865.086	20750
865.217	20769
865.349	20590
865.48	20746
865.612	20739
865.743	20815
865.875	20697
866.006	20678
866.137	20636
866.269	20708
866.4	20674
866.531	20727
866.662	20590
866.793	20689
866.924	20609
867.055	20613
867.186	20617
867.317	20625
867.448	20518
867.579	20659
867.71	20594
867.841	20530
867.972	20644
868.103	20670
868.233	20560
868.364	20594
868.495	20655
868.625	20876
868.756	21032
868.886	20746
869.017	20834
869.147	20998
869.278	20921
869.408	20906
869.539	20910
869.669	20914
869.799	20979
869.929	20998
870.06	20960
870.19	21157
870.32	21203
870.45	21207
870.58	21241
870.71	21359
870.84	21310
870.97	21275
871.1	21321
871.23	21519
871.36	21530
871.489	21462
871.619	21481
871.749	21557
871.879	21473
872.008	21652
872.138	21515
872.267	21504
872.397	21348
872.526	21241
872.656	21329
872.785	21275
872.915	21435
873.044	21644
873.173	21492
873.303	21496
873.432	21485
873.561	21694
873.69	21561
873.819	21568
873.948	21637
874.077	21538
874.206	21481
874.335	21572
874.464	21690
874.593	21732
874.722	21606
874.851	21739
874.979	21816
875.108	21743
875.237	21701
875.365	21580
875.494	21717
875.623	21915
875.751	21675
875.88	21743
876.008	21857
876.136	21968
876.265	22086
876.393	22158
876.521	22185
876.65	22223
876.778	22166
876.906	22029
877.034	22120
877.162	22070
877.29	21987
877.418	22154
877.546	22166
877.674	22067
877.802	22078
877.93	22120
878.058	22051
878.185	22036
878.313	21987
878.441	22063
878.568	21895
878.696	22006
878.824	22029
878.951	22131
879.079	22352
879.206	22413
879.333	22181
879.461	22067
879.588	22246
879.715	22306
879.842	22348
879.97	22219
880.097	21865
880.224	21816
880.351	21949
880.478	21895
880.605	21812
880.732	21800
880.859	22124
880.986	21899
881.112	21846
881.239	21747
881.366	21690
881.493	21534
881.619	21431
881.746	21606
881.872	21530
881.999	21492
882.125	21469
882.252	21496
882.378	21500
882.505	21644
882.631	21283
882.757	21218
882.883	21325
883.01	21230
883.136	21173
883.262	21055
883.388	20967
883.514	21070
883.64	21306
883.766	21169
883.892	20857
884.018	21070
884.143	21089
884.269	21268
884.395	21036
884.52	20853
884.646	20777
884.772	20754
884.897	20617
885.023	20826
885.148	20899
885.274	20990
885.399	20910
885.524	20975
885.65	20823
885.775	20838
885.9	20785
886.025	20944
886.15	20925
886.275	20781
886.4	20788
886.525	20724
886.65	20648
886.775	20769
886.9	20986
887.025	20963
887.149	20830
887.274	20579
887.399	20602
887.523	20644
887.648	20545
887.773	20473
887.897	20617
888.021	20674
888.146	20590
888.27	20762
888.395	20640
888.519	20575
888.643	20629
888.767	20644
888.891	20594
889.015	20404
889.139	20457
889.263	20366
889.387	20454
889.511	20552
889.635	20560
889.759	20248
889.883	20442
890.006	20476
890.13	20434
890.254	20389
890.377	20374
890.501	20187
890.624	20024
890.748	20107
890.871	20043
890.995	19963
891.118	19852
891.241	19887
891.364	20046
891.488	20046
891.611	19978
891.734	20027
891.857	20088
891.98	20073
892.103	19986
892.226	20016
892.349	19932
892.471	19788
892.594	19852
892.717	20054
892.839	19849
892.962	19913
893.085	19940
893.207	19803
893.33	19757
893.452	19761
893.575	19944
893.697	19841
893.819	19982
893.941	20096
894.064	20020
894.186	19811
894.308	19822
894.43	19982
894.552	20073
894.674	19974
894.796	19761
894.918	19871
895.04	19719
895.161	19967
895.283	19841
895.405	19776
895.526	19860
895.648	19890
895.769	19864
895.891	19822
896.012	19852
896.134	20046
896.255	19837
896.376	19959
896.498	19841
896.619	19928
896.74	19894
896.861	19970
896.982	20221
897.103	20427
897.224	20225
897.345	20069
897.466	20046
897.587	20012
897.708	20233
897.828	20225
897.949	20039
898.07	19970
898.19	20016
898.311	20259
898.431	20164
898.552	20107
898.672	20282
898.792	20240
898.913	20145
899.033	19944
899.153	19982
899.273	19822
899.393	19868
899.513	19841
899.633	19830
899.753	19978
899.873	19662
899.993	19750
900.113	19826
900.232	19887
900.352	19750
900.472	19639
900.591	19548
900.711	19677
900.83	19609
900.95	19655
901.069	19761
901.189	19567
901.308	19346
901.427	19293
901.546	19282
901.665	19369
901.784	19301
901.904	19118
902.023	18973
902.141	18825
902.26	18745
902.379	18768
902.498	18848
902.617	18688
902.735	18715
902.854	18722
902.973	18650
903.091	18399
903.21	18464
903.328	18422
903.446	18251
903.565	18239
903.683	18194
903.801	18148
903.919	18254
904.038	18125
904.156	18015
904.274	18140
904.392	17920
904.51	18045
904.627	17954
904.745	17999
904.863	18110
904.981	17794
905.098	17672
905.216	17710
905.334	17707
905.451	17630
905.569	17760
905.686	17646
905.803	17638
905.921	17448
906.038	17619
906.155	17539
906.272	17455
906.389	17341
906.506	17322
906.623	17246
906.74	17159
906.857	17102
906.974	17121
907.091	17090
907.208	17383
907.324	17185
907.441	17147
907.557	16869
907.674	16896
907.79	16873
907.907	16919
908.023	16889
908.139	16915
908.256	16896
908.372	16850
908.488	16740
908.604	16778
908.72	16603
908.836	16618
908.952	16672
909.068	16656
909.184	16805
909.3	16698
909.415	16687
909.531	16596
909.647	16500
909.762	16428
909.878	16329
909.993	16371
910.108	16402
910.224	16344
910.339	16276
910.454	16272
910.57	16265
910.685	16154
910.8	16322
910.915	16306
911.03	16192
911.145	16002
911.259	15941
911.374	15903
911.489	15873
911.604	15770
911.718	15637
911.833	15755
911.947	15633
912.062	15622
912.176	15690
912.291	15770
912.405	15724
912.519	15869
912.633	15838
912.748	15717
912.862	15622
912.976	15580
913.09	15325
913.204	15386
913.318	15545
913.431	15603
913.545	15504
913.659	15625
913.772	15424
913.886	15393
914	15313
914.113	15272
914.226	15435
914.34	15325
914.453	15298
914.566	15355
914.68	15203
914.793	15097
914.906	15081
915.019	14960
915.132	14864
915.245	14967
915.358	14925
915.47	14956
915.583	14895
915.696	14986
915.809	14929
915.921	15089
916.034	14918
916.146	14785
916.259	14906
916.371	14929
916.483	14895
916.595	14800
916.708	14788
916.82	14781
916.932	14727
917.044	14686
917.156	14625
917.268	14537
917.38	14621
917.491	14495
917.603	14640
917.715	14674
917.826	14716
917.938	14556
918.049	14457
918.161	14400
918.272	14689
918.384	14720
918.495	14518
918.606	14389
918.717	14324
918.828	14431
918.939	14377
919.05	14351
919.161	14339
919.272	14176
919.383	14092
919.494	14301
919.604	14602
919.715	14473
919.826	14202
919.936	14415
920.047	14358
920.157	14324
920.267	14537
920.378	14343
920.488	14294
920.598	14423
920.708	14648
920.818	14442
920.928	14438
921.038	14720
921.148	14511
921.258	14298
921.368	14161
921.477	13974
921.587	14035
921.697	13894
921.806	14084
921.916	13890
922.025	13772
922.134	13727
922.244	13662
922.353	13662
922.462	13620
922.571	13506
922.68	13312
922.789	13339
922.898	13434
923.007	13198
923.116	13289
923.224	13354
923.333	13343
923.442	13187
923.55	13179
923.659	13198
923.767	13240
923.876	13152
923.984	13278
924.092	13171
924.201	13160
924.309	13149
924.417	13145
924.525	13015
924.633	13053
924.741	13967
924.849	12890
924.956	12932
925.064	12859
925.172	12715
925.279	12722
925.387	12798
925.494	12760
925.602	12977
925.709	12905
925.816	12658
925.924	12719
926.031	12741
926.138	12760
926.245	12840
926.352	12665
926.459	12795
926.566	12768
926.673	12665
926.779	12578
926.886	12570
926.993	12353
927.099	12384
927.206	12273
927.312	12224
927.419	12437
927.525	12395
927.631	12437
927.737	12270
927.843	12228
927.95	12114
928.056	12125
928.162	12254
928.267	12194
928.373	12787
928.479	12232
928.585	12019
928.69	12167
928.796	12171
928.901	12091
929.007	11912
929.112	11973
929.218	12098
929.323	11942
929.428	11859
929.533	12057
929.638	11897
929.743	11794
929.848	11912
929.953	11878
930.058	11741
930.163	11615
930.267	11661
930.372	11779
930.477	11604
930.581	11752
930.685	11649
930.79	11562
930.894	11532
930.998	11455
931.103	11570
931.207	11311
931.311	11090
931.415	11136
931.519	10965
931.623	10923
