Data from test_V78500241_2166.txt Node
Date: Fri Mar 25 15:56:48 CST 2022
User: usil
Spectrometer: V785-0024
Trigger mode: 0
Integration Time (sec): 4.000000E-1
Scans to average: 1
Nonlinearity correction enabled: false
Boxcar width: 0
Storing dark spectrum: false
XAxis mode: Wavelengths
Number of Pixels in Spectrum: 1024
>>>>>Begin Spectral Data<<<<<
801.071	28740
801.214	28847
801.356	28691
801.499	28535
801.641	28352
801.783	28303
801.926	28489
802.068	28401
802.211	28421
802.353	28314
802.496	28226
802.638	28238
802.78	28036
802.923	28010
803.065	27930
803.208	28029
803.35	28074
803.492	28116
803.635	28223
803.777	28112
803.919	28394
804.061	28630
804.204	28447
804.346	28276
804.488	28303
804.63	28390
804.773	28265
804.915	28481
805.057	28531
805.199	28512
805.341	28409
805.483	28447
805.626	28417
805.768	28474
805.91	28481
806.052	28508
806.194	28535
806.336	28641
806.478	28664
806.62	28500
806.762	28656
806.904	28755
807.046	28934
807.188	29041
807.33	28934
807.472	29071
807.614	28961
807.756	28881
807.898	28713
808.04	28660
808.182	28782
808.324	28850
808.465	28942
808.607	29048
808.749	29299
808.891	29277
809.033	29459
809.174	29147
809.316	29083
809.458	29433
809.6	29242
809.741	29429
809.883	29349
810.025	29436
810.166	29459
810.308	29505
810.45	29512
810.591	29421
810.733	29284
810.875	29216
811.016	29128
811.158	29197
811.299	29379
811.441	29421
811.582	29353
811.724	29341
811.865	29242
812.007	29303
812.148	29296
812.29	29414
812.431	29425
812.573	29558
812.714	29611
812.855	29882
812.997	29862
813.138	29988
813.279	29866
813.421	29665
813.562	29798
813.703	29608
813.845	29539
813.986	29265
814.127	29014
814.268	28995
814.41	28911
814.551	28991
814.692	29132
814.833	28904
814.974	28911
815.115	29014
815.256	28885
815.397	28698
815.539	28885
815.68	28729
815.821	28771
815.962	28767
816.103	28706
816.244	28577
816.385	28637
816.526	28626
816.666	28401
816.807	28253
816.948	28413
817.089	28443
817.23	28436
817.371	28211
817.512	28341
817.653	28204
817.793	28295
817.934	28242
818.075	28352
818.216	28192
818.356	28147
818.497	28242
818.638	27964
818.778	28021
818.919	27979
819.06	28116
819.2	28120
819.341	28356
819.481	28204
819.622	28485
819.762	28622
819.903	28550
820.043	28565
820.184	28421
820.324	28508
820.465	28584
820.605	28344
820.746	28428
820.886	28405
821.026	28352
821.167	28344
821.307	28390
821.447	28341
821.588	28169
821.728	28078
821.868	27945
822.008	27831
822.149	27854
822.289	27816
822.429	27583
822.569	27458
822.709	27466
822.849	27313
822.99	27374
823.13	27283
823.27	27306
823.41	26963
823.55	26895
823.69	27131
823.83	27188
823.97	27036
824.11	26872
824.25	26834
824.389	26963
824.529	26963
824.669	26918
824.809	26948
824.949	27028
825.089	27055
825.228	26880
825.368	26746
825.508	26651
825.648	26971
825.787	26982
825.927	26731
826.067	26689
826.206	26758
826.346	26800
826.485	26842
826.625	26735
826.765	26910
826.904	26834
827.044	26522
827.183	26705
827.323	26526
827.462	26659
827.601	26583
827.741	26484
827.88	26568
828.02	26423
828.159	26511
828.298	26667
828.437	26552
828.577	26431
828.716	26511
828.855	26457
828.994	26161
829.134	26248
829.273	26362
829.412	26027
829.551	26172
829.69	26119
829.829	26355
829.968	26339
830.107	26317
830.246	26149
830.385	26088
830.524	26054
830.663	26012
830.802	25986
830.941	25811
831.08	25772
831.219	25951
831.357	25868
831.496	26073
831.635	25696
831.774	25651
831.913	25670
832.051	25575
832.19	25620
832.329	25635
832.467	25575
832.606	25468
832.744	25479
832.883	25449
833.022	25479
833.16	25499
833.299	25472
833.437	25518
833.576	25476
833.714	25601
833.852	25719
833.991	25548
834.129	25616
834.267	25666
834.406	25552
834.544	25548
834.682	25552
834.821	25487
834.959	25662
835.097	25483
835.235	25556
835.373	25578
835.511	25499
835.65	25396
835.788	25415
835.926	25179
836.064	25331
836.202	25206
836.34	25354
836.478	25346
836.615	25365
836.753	25411
836.891	25537
837.029	25365
837.167	25072
837.305	25247
837.443	25247
837.58	25179
837.718	25308
837.856	25282
837.993	25084
838.131	25270
838.269	25091
838.406	25213
838.544	25008
838.681	24894
838.819	24825
838.956	24719
839.094	24574
839.231	24669
839.369	24681
839.506	24981
839.643	24924
839.781	24715
839.918	24635
840.055	24658
840.193	24608
840.33	24593
840.467	24498
840.604	24616
840.742	24722
840.879	24372
841.016	24612
841.153	24410
841.29	24490
841.427	24441
841.564	24646
841.701	24525
841.838	24574
841.975	24551
842.112	24452
842.249	24521
842.385	24448
842.522	24631
842.659	24388
842.796	24304
842.933	24262
843.069	24285
843.206	24410
843.343	24338
843.479	24380
843.616	24311
843.752	24015
843.889	24049
844.025	24235
844.162	23977
844.298	24197
844.435	24022
844.571	24117
844.708	24186
844.844	24167
844.98	24144
845.117	24114
845.253	24015
845.389	23931
845.525	23901
845.661	23923
845.798	23859
845.934	23912
846.07	23729
846.206	23813
846.342	23927
846.478	23832
846.614	23672
846.75	23493
846.886	23478
847.022	23600
847.158	23497
847.294	23608
847.429	23615
847.565	23440
847.701	23767
847.837	23349
847.972	23121
848.108	23414
848.244	23273
848.379	23223
848.515	23174
848.65	23212
848.786	23292
848.921	23193
849.057	23155
849.192	23147
849.328	23204
849.463	22999
849.598	23075
849.734	23056
849.869	22984
850.004	22892
850.14	22976
850.275	22892
850.41	22786
850.545	22900
850.68	22957
850.815	22885
850.95	22923
851.085	22968
851.22	22968
851.355	22961
851.49	22831
851.625	22824
851.76	22858
851.895	22790
852.03	22847
852.165	22953
852.299	22915
852.434	23003
852.569	22904
852.703	22850
852.838	22942
852.973	22980
853.107	22984
853.242	22877
853.376	22763
853.511	22569
853.645	22767
853.78	22942
853.914	22683
854.048	22637
854.183	22649
854.317	22675
854.451	22968
854.585	22622
854.72	22740
854.854	22729
854.988	22599
855.122	22733
855.256	22546
855.39	22668
855.524	22869
855.658	22752
855.792	22759
855.926	22706
856.06	22733
856.194	22733
856.327	22656
856.461	22531
856.595	22778
856.729	22653
856.862	22835
856.996	22672
857.13	22744
857.263	22885
857.397	22797
857.53	22710
857.664	22660
857.797	22710
857.931	22900
858.064	22573
858.197	22942
858.331	22675
858.464	22698
858.597	22565
858.731	22664
858.864	22691
858.997	22634
859.13	22679
859.263	22740
859.396	22885
859.529	22519
859.662	22710
859.795	22733
859.928	22702
860.061	22858
860.194	22927
860.327	22691
860.46	22691
860.592	22778
860.725	22812
860.858	22911
860.99	22835
861.123	22596
861.256	22710
861.388	22668
861.521	23391
861.653	22557
861.786	22447
861.918	22428
862.05	22557
862.183	22588
862.315	22713
862.447	22729
862.58	22573
862.712	22428
862.844	22390
862.976	22402
863.108	22428
863.24	22889
863.372	22337
863.504	22497
863.636	22352
863.768	22489
863.9	22455
864.032	22303
864.164	22382
864.296	22363
864.428	22649
864.559	22538
864.691	22352
864.823	22478
864.954	22504
865.086	22398
865.217	22341
865.349	22173
865.48	22291
865.612	22253
865.743	22413
865.875	22333
866.006	22181
866.137	22246
866.269	22276
866.4	22394
866.531	22135
866.662	22177
866.793	22272
866.924	22306
867.055	22192
867.186	22223
867.317	22177
867.448	22025
867.579	22143
867.71	22211
867.841	22128
867.972	22131
868.103	22105
868.233	22135
868.364	22177
868.495	22295
868.625	22363
868.756	22428
868.886	22360
869.017	22481
869.147	22584
869.278	22538
869.408	22645
869.539	22535
869.669	22421
869.799	22561
869.929	22573
870.06	22447
870.19	22691
870.32	22713
870.45	22930
870.58	22736
870.71	22786
870.84	23033
870.97	22831
871.1	22873
871.23	22965
871.36	23113
871.489	22881
871.619	23022
871.749	23060
871.879	23124
872.008	23277
872.138	23083
872.267	23037
872.397	22862
872.526	22805
872.656	22812
872.785	22820
872.915	23033
873.044	23090
873.173	23140
873.303	23056
873.432	23132
873.561	23033
873.69	23014
873.819	22965
873.948	23147
874.077	23048
874.206	22816
874.335	22965
874.464	23098
874.593	23326
874.722	23151
874.851	23326
874.979	23197
875.108	23223
875.237	23212
875.365	23178
875.494	23227
875.623	23440
875.751	23246
875.88	23372
876.008	23318
876.136	23448
876.265	23630
876.393	23729
876.521	23707
876.65	23779
876.778	23630
876.906	23558
877.034	23608
877.162	23615
877.29	23440
877.418	23589
877.546	23649
877.674	23699
877.802	23528
877.93	23539
878.058	23547
878.185	23425
878.313	23585
878.441	23566
878.568	23406
878.696	23528
878.824	23630
878.951	23714
879.079	23832
879.206	23942
879.333	23699
879.461	23592
879.588	23558
879.715	23710
879.842	23855
879.97	23585
880.097	23383
880.224	23402
880.351	23543
880.478	23356
880.605	23379
880.732	23368
880.859	23634
880.986	23421
881.112	23368
881.239	23337
881.366	23231
881.493	23094
881.619	22961
881.746	23025
881.872	22980
881.999	22934
882.125	22869
882.252	22938
882.378	23014
882.505	22942
882.631	22831
882.757	22668
882.883	22713
883.01	22546
883.136	22702
883.262	22405
883.388	22637
883.514	22641
883.64	22672
883.766	22382
883.892	22341
884.018	22405
884.143	22656
884.269	22653
884.395	22352
884.52	22284
884.646	22310
884.772	22242
884.897	22086
885.023	22325
885.148	22325
885.274	22325
885.399	22306
885.524	22295
885.65	22360
885.775	22322
885.9	22303
886.025	22348
886.15	22375
886.275	22272
886.4	22204
886.525	22253
886.65	22090
886.775	22143
886.9	22390
887.025	22531
887.149	22185
887.274	22055
887.399	22013
887.523	22143
887.648	21884
887.773	21880
887.897	22109
888.021	22147
888.146	21915
888.27	22223
888.395	22162
888.519	21994
888.643	22078
888.767	22036
888.891	21968
889.015	21804
889.139	21983
889.263	21827
889.387	21922
889.511	21953
889.635	21895
889.759	21743
889.883	21865
890.006	21842
890.13	21850
890.254	21808
890.377	21679
890.501	21583
890.624	21530
890.748	21614
890.871	21424
890.995	21332
891.118	21466
891.241	21397
891.364	21351
891.488	21530
891.611	21447
891.734	21405
891.857	21450
891.98	21473
892.103	21435
892.226	21363
892.349	21351
892.471	21218
892.594	21207
892.717	21294
892.839	21313
892.962	21313
893.085	21344
893.207	21241
893.33	21176
893.452	21233
893.575	21272
893.697	21211
893.819	21420
893.941	21389
894.064	21397
894.186	21165
894.308	21119
894.43	21230
894.552	21378
894.674	21340
894.796	21203
894.918	21268
895.04	21279
895.161	21302
895.283	21344
895.405	21173
895.526	21272
895.648	21192
895.769	21214
895.891	21302
896.012	21332
896.134	21332
896.255	21325
896.376	21123
896.498	21188
896.619	21294
896.74	21150
896.861	21283
896.982	21519
897.103	21690
897.224	21481
897.345	21450
897.466	21416
897.587	21458
897.708	21511
897.828	21477
897.949	21500
898.07	21161
898.19	21275
898.311	21488
898.431	21447
898.552	21454
898.672	21610
898.792	21469
898.913	21367
899.033	21340
899.153	21283
899.273	21081
899.393	21222
899.513	21207
899.633	21203
899.753	21241
899.873	21009
899.993	21218
900.113	20982
900.232	21131
900.352	21108
900.472	20975
900.591	20895
900.711	21093
900.83	20769
900.95	20933
901.069	21043
901.189	20910
901.308	20514
901.427	20514
901.546	20545
901.665	20511
901.784	20351
901.904	20377
902.023	20259
902.141	20050
902.26	19982
902.379	20084
902.498	20024
902.617	19917
902.735	19982
902.854	20039
902.973	19871
903.091	19708
903.21	19647
903.328	19590
903.446	19655
903.565	19430
903.683	19491
903.801	19358
903.919	19365
904.038	19441
904.156	19206
904.274	19217
904.392	19194
904.51	19225
904.627	19084
904.745	19225
904.863	19232
904.981	19000
905.098	18924
905.216	18863
905.334	18886
905.451	18901
905.569	18730
905.686	18829
905.803	18943
905.921	18646
906.038	18791
906.155	18749
906.272	18471
906.389	18540
906.506	18342
906.623	18372
906.74	18395
906.857	18391
906.974	18254
907.091	18350
907.208	18437
907.324	18365
907.441	18262
907.557	18129
907.674	18152
907.79	18159
907.907	18140
908.023	18136
908.139	18167
908.256	18079
908.372	18049
908.488	17942
908.604	17923
908.72	17859
908.836	17889
908.952	17748
909.068	17813
909.184	17946
909.3	17870
909.415	17840
909.531	17775
909.647	17558
909.762	17600
909.878	17543
909.993	17505
910.108	17509
910.224	17417
910.339	17463
910.454	17372
910.57	17303
910.685	17322
910.8	17455
910.915	17455
911.03	17216
911.145	17143
911.259	17143
911.374	17136
911.489	17075
911.604	16946
911.718	16828
911.833	16881
911.947	16763
912.062	16641
912.176	16908
912.291	16904
912.405	16873
912.519	17067
912.633	17006
912.748	16850
912.862	16877
912.976	16698
913.09	16592
913.204	16656
913.318	16675
913.431	16706
913.545	16725
913.659	16725
913.772	16565
913.886	16497
914	16554
914.113	16611
914.226	16516
914.34	16500
914.453	16310
914.566	16447
914.68	16451
914.793	16268
914.906	16078
915.019	15968
915.132	16059
915.245	16032
915.358	16097
915.47	16044
915.583	16109
915.696	15987
915.809	16105
915.921	16147
916.034	15956
916.146	15964
916.259	15846
916.371	16071
916.483	15892
916.595	15816
916.708	15873
916.82	15884
916.932	15701
917.044	15759
917.156	15762
917.268	15610
917.38	15759
917.491	15515
917.603	15660
917.715	15873
917.826	15694
917.938	15637
918.049	15473
918.161	15557
918.272	15648
918.384	15679
918.495	15549
918.606	15306
918.717	15313
918.828	15496
918.939	15412
919.05	15264
919.161	15348
919.272	15154
919.383	15252
919.494	15428
919.604	15584
919.715	15401
919.826	15310
919.936	15336
920.047	15363
920.157	15260
920.267	15477
920.378	15359
920.488	15321
920.598	15500
920.708	15656
920.818	15542
920.928	15408
921.038	15523
921.148	15447
921.258	15275
921.368	15195
921.477	15047
921.587	15085
921.697	14979
921.806	15013
921.916	14971
922.025	14792
922.134	14727
922.244	14636
922.353	14739
922.462	14545
922.571	14450
922.68	14446
922.789	14415
922.898	14366
923.007	14233
923.116	14332
923.224	14298
923.333	14259
923.442	14145
923.55	14096
923.659	14145
923.767	14172
923.876	14096
923.984	14081
924.092	14081
924.201	13974
924.309	14035
924.417	14069
924.525	13974
924.633	13898
924.741	14724
924.849	13761
924.956	13932
925.064	13742
925.172	13723
925.279	13715
925.387	13681
925.494	13655
925.602	13898
925.709	13712
925.816	13586
925.924	13700
926.031	13734
926.138	13582
926.245	13647
926.352	13567
926.459	13685
926.566	13731
926.673	13460
926.779	13460
926.886	13419
926.993	13289
927.099	13164
927.206	13228
927.312	13141
927.419	13282
927.525	13194
927.631	13088
927.737	13099
927.843	13076
927.95	13019
928.056	13042
928.162	13152
928.267	13164
928.373	13632
928.479	13076
928.585	12920
928.69	13046
928.796	13053
928.901	12867
929.007	12814
929.112	12859
929.218	12837
929.323	12802
929.428	12764
929.533	12993
929.638	12692
929.743	12692
929.848	12779
929.953	12745
930.058	12593
930.163	12475
930.267	12551
930.372	12452
930.477	12414
930.581	12589
930.685	12403
930.79	12311
930.894	12346
930.998	12243
931.103	12369
931.207	11984
931.311	11988
931.415	11870
931.519	11668
931.623	11539
