Data from test_V78500241_3635.txt Node
Date: Fri Mar 25 16:06:58 CST 2022
User: usil
Spectrometer: V785-0024
Trigger mode: 0
Integration Time (sec): 4.000000E-1
Scans to average: 1
Nonlinearity correction enabled: false
Boxcar width: 0
Storing dark spectrum: false
XAxis mode: Wavelengths
Number of Pixels in Spectrum: 1024
>>>>>Begin Spectral Data<<<<<
801.071	27526
801.214	27245
801.356	27085
801.499	27043
801.641	26883
801.783	26853
801.926	26982
802.068	26933
802.211	26880
802.353	26727
802.496	26541
802.638	26575
802.78	26590
802.923	26469
803.065	26499
803.208	26457
803.35	26590
803.492	26533
803.635	26743
803.777	26579
803.919	26716
804.061	26979
804.204	26746
804.346	26518
804.488	26583
804.63	26648
804.773	26587
804.915	26712
805.057	26834
805.199	26773
805.341	26788
805.483	26682
805.626	26701
805.768	26663
805.91	26804
806.052	26773
806.194	26613
806.336	26937
806.478	26826
806.62	26769
806.762	26876
806.904	27066
807.046	27287
807.188	27233
807.33	27298
807.472	27355
807.614	27192
807.756	27123
807.898	27013
808.04	26990
808.182	27112
808.324	27085
808.465	27123
808.607	27420
808.749	27572
808.891	27534
809.033	27637
809.174	27466
809.316	27317
809.458	27268
809.6	27264
809.741	27576
809.883	27534
810.025	27903
810.166	27835
810.308	27667
810.45	27652
810.591	27523
810.733	27420
810.875	27351
811.016	27245
811.158	27123
811.299	27427
811.441	27633
811.582	27679
811.724	27302
811.865	27203
812.007	27363
812.148	27370
812.29	27519
812.431	27564
812.573	27743
812.714	27869
812.855	28002
812.997	27964
813.138	28158
813.279	27949
813.421	27873
813.562	27785
813.703	27637
813.845	27553
813.986	27268
814.127	27260
814.268	27066
814.41	27146
814.551	27047
814.692	27047
814.833	27024
814.974	26998
815.115	27047
815.256	26914
815.397	27043
815.539	27017
815.68	26792
815.821	26807
815.962	27047
816.103	26883
816.244	26739
816.385	26815
816.526	26621
816.666	26450
816.807	26278
816.948	26400
817.089	26545
817.23	26317
817.371	26320
817.512	26343
817.653	26214
817.793	26324
817.934	26370
818.075	26301
818.216	26404
818.356	26332
818.497	26016
818.638	26077
818.778	26126
818.919	26157
819.06	26180
819.2	26145
819.341	26248
819.481	26210
819.622	26473
819.762	26507
819.903	26545
820.043	26541
820.184	26404
820.324	26351
820.465	26526
820.605	26343
820.746	26442
820.886	26294
821.026	26271
821.167	26412
821.307	26499
821.447	26244
821.588	26157
821.728	26031
821.868	25849
822.008	25818
822.149	25936
822.289	25780
822.429	25616
822.569	25487
822.709	25529
822.849	25213
822.99	25259
823.13	25278
823.27	25293
823.41	25034
823.55	25065
823.69	25023
823.83	25217
823.97	25137
824.11	24973
824.25	24897
824.389	24928
824.529	25015
824.669	24894
824.809	24856
824.949	25023
825.089	24970
825.228	24859
825.368	24700
825.508	24825
825.648	24894
825.787	24715
825.927	24833
826.067	24726
826.206	24833
826.346	24928
826.485	24711
826.625	24692
826.765	24996
826.904	24817
827.044	24631
827.183	24532
827.323	24350
827.462	24578
827.601	24433
827.741	24551
827.88	24505
828.02	24376
828.159	24479
828.298	24528
828.437	24502
828.577	24384
828.716	24582
828.855	24304
828.994	24220
829.134	24167
829.273	24258
829.412	24144
829.551	24079
829.69	24205
829.829	24095
829.968	24228
830.107	24220
830.246	24254
830.385	24064
830.524	24083
830.663	23969
830.802	23863
830.941	23802
831.08	23851
831.219	23992
831.357	23859
831.496	24106
831.635	23767
831.774	23699
831.913	23649
832.051	23531
832.19	23471
832.329	23581
832.467	23482
832.606	23478
832.744	23391
832.883	23406
833.022	23471
833.16	23474
833.299	23528
833.437	23535
833.576	23585
833.714	23493
833.852	23543
833.991	23596
834.129	23729
834.267	23642
834.406	23429
834.544	23638
834.682	23474
834.821	23581
834.959	23707
835.097	23573
835.235	23524
835.373	23570
835.511	23474
835.65	23471
835.788	23322
835.926	23273
836.064	23197
836.202	23136
836.34	23402
836.478	23528
836.615	23250
836.753	23379
836.891	23341
837.029	23459
837.167	23258
837.305	23246
837.443	23208
837.58	23200
837.718	23303
837.856	23204
837.993	23090
838.131	23098
838.269	23083
838.406	23121
838.544	22946
838.681	22934
838.819	22961
838.956	22660
839.094	22713
839.231	22809
839.369	22927
839.506	23124
839.643	22972
839.781	22835
839.918	22592
840.055	22691
840.193	22607
840.33	22763
840.467	22584
840.604	22683
840.742	22782
840.879	22573
841.016	22641
841.153	22489
841.29	22710
841.427	22622
841.564	22557
841.701	22607
841.838	22542
841.975	22508
842.112	22557
842.249	22405
842.385	22371
842.522	22546
842.659	22398
842.796	22329
842.933	22421
843.069	22200
843.206	22341
843.343	22375
843.479	22310
843.616	22314
843.752	22181
843.889	22135
844.025	22238
844.162	22143
844.298	22169
844.435	22124
844.571	22032
844.708	22207
844.844	22276
844.98	22287
845.117	22272
845.253	22051
845.389	21972
845.525	22021
845.661	21994
845.798	21915
845.934	21915
846.07	21838
846.206	21941
846.342	22177
846.478	21892
846.614	21682
846.75	21675
846.886	21797
847.022	21568
847.158	21576
847.294	21599
847.429	21644
847.565	21637
847.701	21831
847.837	21275
847.972	21291
848.108	21534
848.244	21344
848.379	21351
848.515	21249
848.65	21173
848.786	21173
848.921	21150
849.057	21306
849.192	21226
849.328	21260
849.463	21214
849.598	21081
849.734	21131
849.869	20998
850.004	20902
850.14	21001
850.275	21066
850.41	20937
850.545	20864
850.68	20921
850.815	20891
850.95	20960
851.085	21146
851.22	21077
851.355	20963
851.49	21039
851.625	20921
851.76	20982
851.895	20872
852.03	20785
852.165	20921
852.299	21085
852.434	21093
852.569	20975
852.703	21013
852.838	21020
852.973	21062
853.107	21077
853.242	20906
853.376	20800
853.511	20743
853.645	20891
853.78	20811
853.914	20785
854.048	20796
854.183	20792
854.317	20811
854.451	20948
854.585	20743
854.72	20880
854.854	20948
854.988	20769
855.122	20777
855.256	20773
855.39	20807
855.524	20845
855.658	20887
855.792	20800
855.926	20838
856.06	20853
856.194	20826
856.327	20811
856.461	20773
856.595	20777
856.729	20754
856.862	20952
856.996	20724
857.13	20868
857.263	20796
857.397	21001
857.53	20853
857.664	20773
857.797	20872
857.931	21028
858.064	20918
858.197	20830
858.331	20830
858.464	20750
858.597	20678
858.731	20800
858.864	20853
858.997	20857
859.13	20842
859.263	20864
859.396	20944
859.529	20842
859.662	20777
859.795	20834
859.928	20811
860.061	20929
860.194	20960
860.327	20804
860.46	20861
860.592	20876
860.725	20933
860.858	20921
860.99	20906
861.123	20724
861.256	20750
861.388	20925
861.521	21580
861.653	20743
861.786	20667
861.918	20697
862.05	20712
862.183	20735
862.315	20838
862.447	20815
862.58	20872
862.712	20552
862.844	20545
862.976	20552
863.108	20689
863.24	20990
863.372	20465
863.504	20625
863.636	20556
863.768	20602
863.9	20518
864.032	20442
864.164	20518
864.296	20583
864.428	20644
864.559	20533
864.691	20613
864.823	20648
864.954	20590
865.086	20427
865.217	20488
865.349	20377
865.48	20530
865.612	20370
865.743	20560
865.875	20374
866.006	20317
866.137	20438
866.269	20549
866.4	20442
866.531	20355
866.662	20298
866.793	20427
866.924	20366
867.055	20355
867.186	20488
867.317	20374
867.448	20237
867.579	20393
867.71	20320
867.841	20423
867.972	20381
868.103	20427
868.233	20396
868.364	20351
868.495	20488
868.625	20583
868.756	20705
868.886	20503
869.017	20697
869.147	20792
869.278	20796
869.408	20712
869.539	20594
869.669	20670
869.799	20667
869.929	20739
870.06	20724
870.19	20933
870.32	20921
870.45	20880
870.58	21070
870.71	21123
870.84	21161
870.97	21066
871.1	21100
871.23	21123
871.36	21249
871.489	21294
871.619	21192
871.749	21192
871.879	21302
872.008	21256
872.138	21348
872.267	21237
872.397	21184
872.526	21020
872.656	21039
872.785	21036
872.915	21199
873.044	21370
873.173	21272
873.303	21348
873.432	21336
873.561	21325
873.69	21283
873.819	21226
873.948	21344
874.077	21401
874.206	21195
874.335	21272
874.464	21420
874.593	21344
874.722	21492
874.851	21599
874.979	21466
875.108	21538
875.237	21511
875.365	21348
875.494	21530
875.623	21644
875.751	21500
875.88	21492
876.008	21561
876.136	21663
876.265	21953
876.393	22036
876.521	21983
876.65	21998
876.778	21926
876.906	21778
877.034	21903
877.162	21850
877.29	21880
877.418	21800
877.546	21861
877.674	21888
877.802	21778
877.93	21873
878.058	21945
878.185	21720
878.313	21698
878.441	21918
878.568	21625
878.696	21838
878.824	21865
878.951	21846
879.079	22010
879.206	22090
879.333	22017
879.461	21884
879.588	22013
879.715	21907
879.842	22166
879.97	21960
880.097	21755
880.224	21656
880.351	21781
880.478	21743
880.605	21698
880.732	21701
880.859	21690
880.986	21641
881.112	21781
881.239	21606
881.366	21435
881.493	21370
881.619	21351
881.746	21268
881.872	21195
881.999	21298
882.125	21100
882.252	21370
882.378	21260
882.505	21443
882.631	21165
882.757	21009
882.883	21047
883.01	20819
883.136	20937
883.262	20929
883.388	20781
883.514	21028
883.64	20910
883.766	20716
883.892	20678
884.018	20891
884.143	20937
884.269	21001
884.395	20716
884.52	20606
884.646	20609
884.772	20541
884.897	20492
885.023	20549
885.148	20823
885.274	20785
885.399	20594
885.524	20636
885.65	20587
885.775	20636
885.9	20533
886.025	20743
886.15	20590
886.275	20602
886.4	20393
886.525	20629
886.65	20507
886.775	20533
886.9	20632
887.025	20731
887.149	20667
887.274	20446
887.399	20396
887.523	20393
887.648	20351
887.773	20237
887.897	20537
888.021	20450
888.146	20256
888.27	20457
888.395	20579
888.519	20362
888.643	20351
888.767	20427
888.891	20176
889.015	20164
889.139	20263
889.263	20096
889.387	20396
889.511	20446
889.635	20252
889.759	20107
889.883	20267
890.006	20214
890.13	20195
890.254	20126
890.377	20134
890.501	20031
890.624	19890
890.748	20122
890.871	19830
890.995	19811
891.118	19670
891.241	19731
891.364	19826
891.488	19913
891.611	19715
891.734	19788
891.857	19871
891.98	19780
892.103	19875
892.226	19700
892.349	19658
892.471	19552
892.594	19734
892.717	19651
892.839	19655
892.962	19746
893.085	19811
893.207	19681
893.33	19635
893.452	19605
893.575	19693
893.697	19590
893.819	19818
893.941	19875
894.064	19845
894.186	19734
894.308	19544
894.43	19830
894.552	19780
894.674	19769
894.796	19537
894.918	19681
895.04	19696
895.161	19704
895.283	19746
895.405	19594
895.526	19712
895.648	19605
895.769	19757
895.891	19708
896.012	19791
896.134	19734
896.255	19700
896.376	19635
896.498	19734
896.619	19746
896.74	19731
896.861	19677
896.982	20008
897.103	20187
897.224	19959
897.345	19776
897.466	19696
897.587	19864
897.708	20062
897.828	19970
897.949	19913
898.07	19822
898.19	19807
898.311	20058
898.431	19936
898.552	19818
898.672	19997
898.792	20039
898.913	19921
899.033	19871
899.153	19753
899.273	19567
899.393	19704
899.513	19674
899.633	19723
899.753	19723
899.873	19571
899.993	19780
900.113	19643
900.232	19616
900.352	19521
900.472	19518
900.591	19502
900.711	19605
900.83	19407
900.95	19582
901.069	19518
901.189	19358
901.308	19126
901.427	19057
901.546	19164
901.665	19042
901.784	19019
901.904	19004
902.023	18837
902.141	18544
902.26	18616
902.379	18616
902.498	18673
902.617	18517
902.735	18639
902.854	18475
902.973	18490
903.091	18311
903.21	18235
903.328	18254
903.446	18140
903.565	18125
903.683	18087
903.801	17965
903.919	17950
904.038	17878
904.156	17809
904.274	17961
904.392	17882
904.51	17741
904.627	17722
904.745	17737
904.863	17790
904.981	17585
905.098	17459
905.216	17589
905.334	17520
905.451	17452
905.569	17581
905.686	17448
905.803	17535
905.921	17368
906.038	17398
906.155	17383
906.272	17277
906.389	17132
906.506	17056
906.623	17147
906.74	17045
906.857	16949
906.974	16942
907.091	17094
907.208	17140
907.324	17094
907.441	16854
907.557	16771
907.674	16771
907.79	16649
907.907	16744
908.023	16790
908.139	16774
908.256	16717
908.372	16691
908.488	16675
908.604	16516
908.72	16417
908.836	16531
908.952	16443
909.068	16615
909.184	16489
909.3	16405
909.415	16493
909.531	16519
909.647	16257
909.762	16207
909.878	16124
909.993	16207
910.108	16200
910.224	16090
910.339	16162
910.454	16116
910.57	15968
910.685	15964
910.8	16200
910.915	16154
911.03	15945
911.145	15838
911.259	15781
911.374	15747
911.489	15736
911.604	15675
911.718	15545
911.833	15545
911.947	15416
912.062	15420
912.176	15405
912.291	15462
912.405	15477
912.519	15724
912.633	15739
912.748	15633
912.862	15458
912.976	15374
913.09	15355
913.204	15287
913.318	15386
913.431	15306
913.545	15408
913.659	15477
913.772	15252
913.886	15188
914	15135
914.113	15173
914.226	15245
914.34	15211
914.453	15077
914.566	15230
914.68	15066
914.793	15013
914.906	14902
915.019	14716
915.132	14663
915.245	14758
915.358	14796
915.47	14762
915.583	14758
915.696	14857
915.809	14880
915.921	14921
916.034	14693
916.146	14560
916.259	14727
916.371	14648
916.483	14762
916.595	14575
916.708	14606
916.82	14625
916.932	14590
917.044	14568
917.156	14594
917.268	14434
917.38	14377
917.491	14461
917.603	14533
917.715	14404
917.826	14545
917.938	14309
918.049	14370
918.161	14358
918.272	14438
918.384	14537
918.495	14438
918.606	14187
918.717	14195
918.828	14153
918.939	14218
919.05	14115
919.161	14149
919.272	13970
919.383	14050
919.494	14191
919.604	14381
919.715	14134
919.826	14092
919.936	14111
920.047	14176
920.157	14126
920.267	14434
920.378	14202
920.488	14153
920.598	14374
920.708	14492
920.818	14267
920.928	14275
921.038	14374
921.148	14389
921.258	14119
921.368	14054
921.477	13921
921.587	13944
921.697	13677
921.806	13894
921.916	13731
922.025	13586
922.134	13548
922.244	13609
922.353	13670
922.462	13426
922.571	13362
922.68	13327
922.789	13183
922.898	13217
923.007	13152
923.116	13194
923.224	13209
923.333	13122
923.442	13088
923.55	13053
923.659	13061
923.767	13141
923.876	13023
923.984	13084
924.092	12935
924.201	13046
924.309	13000
924.417	12924
924.525	12928
924.633	12875
924.741	13875
924.849	12692
924.956	12798
925.064	12665
925.172	12574
925.279	12589
925.387	12654
925.494	12612
925.602	12722
925.709	12620
925.816	12563
925.924	12631
926.031	12642
926.138	12646
926.245	12665
926.352	12479
926.459	12650
926.566	12700
926.673	12509
926.779	12445
926.886	12464
926.993	12266
927.099	12178
927.206	12121
927.312	12159
927.419	12216
927.525	12262
927.631	12213
927.737	12171
927.843	12072
927.95	11988
928.056	12155
928.162	12083
928.267	12136
928.373	12620
928.479	12121
928.585	11885
928.69	11931
928.796	12072
928.901	11965
929.007	11805
929.112	11988
929.218	11916
929.323	11764
929.428	11836
929.533	11836
929.638	11668
929.743	11756
929.848	11779
929.953	11737
930.058	11630
930.163	11482
930.267	11459
930.372	11615
930.477	11368
930.581	11566
930.685	11509
930.79	11444
930.894	11391
930.998	11307
931.103	11497
931.207	11140
931.311	11094
931.415	10980
931.519	10767
931.623	10778
