Data from test_V78500241_111.txt Node
Date: Fri Mar 25 15:42:34 CST 2022
User: usil
Spectrometer: V785-0024
Trigger mode: 0
Integration Time (sec): 4.000000E-1
Scans to average: 1
Nonlinearity correction enabled: false
Boxcar width: 0
Storing dark spectrum: false
XAxis mode: Wavelengths
Number of Pixels in Spectrum: 1024
>>>>>Begin Spectral Data<<<<<
801.071	29897
801.214	29923
801.356	29646
801.499	29573
801.641	29459
801.783	29364
801.926	29459
802.068	29387
802.211	29284
802.353	29322
802.496	29056
802.638	29094
802.78	29189
802.923	29052
803.065	28934
803.208	29090
803.35	29075
803.492	29227
803.635	29113
803.777	29170
803.919	29242
804.061	29455
804.204	29208
804.346	29132
804.488	29094
804.63	29143
804.773	29189
804.915	29254
805.057	29330
805.199	29185
805.341	29375
805.483	29322
805.626	29178
805.768	29204
805.91	29337
806.052	29288
806.194	29326
806.336	29520
806.478	29368
806.62	29193
806.762	29372
806.904	29547
807.046	29798
807.188	29729
807.33	29741
807.472	29699
807.614	29554
807.756	29615
807.898	29630
808.04	29577
808.182	29395
808.324	29509
808.465	29501
808.607	29531
808.749	29760
808.891	29866
809.033	29984
809.174	29885
809.316	29828
809.458	29821
809.6	29794
809.741	29832
809.883	29908
810.025	30011
810.166	29954
810.308	30129
810.45	29866
810.591	29961
810.733	29897
810.875	29775
811.016	29577
811.158	29714
811.299	29942
811.441	29847
811.582	29916
811.724	29779
811.865	29745
812.007	29604
812.148	29638
812.29	29707
812.431	29931
812.573	30155
812.714	30174
812.855	30186
812.997	30346
813.138	30410
813.279	30467
813.421	30281
813.562	30342
813.703	30209
813.845	29878
813.986	29627
814.127	29425
814.268	29353
814.41	29349
814.551	29296
814.692	29551
814.833	29254
814.974	29212
815.115	29349
815.256	29220
815.397	29273
815.539	29326
815.68	29044
815.821	29113
815.962	29162
816.103	29006
816.244	28858
816.385	28839
816.526	28930
816.666	28748
816.807	28447
816.948	28607
817.089	28626
817.23	28512
817.371	28596
817.512	28470
817.653	28371
817.793	28478
817.934	28516
818.075	28527
818.216	28516
818.356	28417
818.497	28322
818.638	28166
818.778	28196
818.919	28246
819.06	28280
819.2	28398
819.341	28432
819.481	28314
819.622	28634
819.762	28752
819.903	28725
820.043	28603
820.184	28615
820.324	28459
820.465	28527
820.605	28641
820.746	28561
820.886	28390
821.026	28443
821.167	28451
821.307	28493
821.447	28409
821.588	28344
821.728	28029
821.868	28002
822.008	27857
822.149	27884
822.289	27762
822.429	27549
822.569	27545
822.709	27492
822.849	27222
822.99	27321
823.13	27237
823.27	27184
823.41	27138
823.55	26929
823.69	27207
823.83	26990
823.97	26963
824.11	26826
824.25	26845
824.389	26830
824.529	26804
824.669	26792
824.809	26891
824.949	26986
825.089	26899
825.228	26861
825.368	26708
825.508	26834
825.648	26648
825.787	26819
825.927	26686
826.067	26575
826.206	26632
826.346	26754
826.485	26701
826.625	26659
826.765	26670
826.904	26754
827.044	26450
827.183	26218
827.323	26446
827.462	26419
827.601	26328
827.741	26301
827.88	26366
828.02	26275
828.159	26419
828.298	26237
828.437	26278
828.577	26161
828.716	26431
828.855	26142
828.994	26016
829.134	26005
829.273	25970
829.412	25871
829.551	25932
829.69	25868
829.829	26027
829.968	26073
830.107	26016
830.246	26054
830.385	25860
830.524	25970
830.663	25651
830.802	25693
830.941	25609
831.08	25506
831.219	25521
831.357	25704
831.496	25666
831.635	25468
831.774	25460
831.913	25403
832.051	25232
832.19	25293
832.329	25373
832.467	25137
832.606	25080
832.744	25065
832.883	25061
833.022	25091
833.16	25179
833.299	25152
833.437	25091
833.576	25232
833.714	25095
833.852	25259
833.991	25118
834.129	25285
834.267	25316
834.406	25046
834.544	25209
834.682	25091
834.821	25000
834.959	25266
835.097	24890
835.235	25126
835.373	25122
835.511	24989
835.65	24859
835.788	25019
835.926	24684
836.064	24749
836.202	24810
836.34	24817
836.478	24852
836.615	24863
836.753	24985
836.891	24901
837.029	24920
837.167	24856
837.305	24730
837.443	24738
837.58	24760
837.718	24817
837.856	24856
837.993	24715
838.131	24787
838.269	24696
838.406	24692
838.544	24574
838.681	24395
838.819	24437
838.956	24125
839.094	24060
839.231	24228
839.369	24311
839.506	24475
839.643	24498
839.781	24174
839.918	23996
840.055	24129
840.193	24060
840.33	24098
840.467	24079
840.604	24068
840.742	24235
840.879	23851
841.016	23908
841.153	23779
841.29	23992
841.427	23920
841.564	23897
841.701	23954
841.838	23965
841.975	24057
842.112	23794
842.249	23843
842.385	23703
842.522	23923
842.659	23657
842.796	23585
842.933	23710
843.069	23722
843.206	23714
843.343	23695
843.479	23676
843.616	23619
843.752	23417
843.889	23364
844.025	23551
844.162	23322
844.298	23554
844.435	23425
844.571	23376
844.708	23421
844.844	23509
844.98	23452
845.117	23368
845.253	23235
845.389	23239
845.525	23406
845.661	23296
845.798	23170
845.934	23166
846.07	23044
846.206	22991
846.342	23341
846.478	23060
846.614	22900
846.75	22809
846.886	22953
847.022	22767
847.158	22889
847.294	22911
847.429	22786
847.565	22717
847.701	22968
847.837	22531
847.972	22630
848.108	22691
848.244	22557
848.379	22493
848.515	22200
848.65	22333
848.786	22413
848.921	22348
849.057	22356
849.192	22428
849.328	22512
849.463	22356
849.598	22268
849.734	22211
849.869	22135
850.004	22055
850.14	22135
850.275	22025
850.41	21949
850.545	21972
850.68	21987
850.815	22051
850.95	22044
851.085	22226
851.22	22234
851.355	22082
851.49	21941
851.625	21979
851.76	22097
851.895	21915
852.03	22032
852.165	22097
852.299	22200
852.434	22249
852.569	22010
852.703	22086
852.838	21991
852.973	22162
853.107	22200
853.242	21994
853.376	21903
853.511	21755
853.645	21739
853.78	22036
853.914	21903
854.048	21846
854.183	21915
854.317	21987
854.451	22032
854.585	21895
854.72	21850
854.854	21819
854.988	21770
855.122	21785
855.256	21720
855.39	21892
855.524	21816
855.658	21819
855.792	21835
855.926	21876
856.06	21854
856.194	21983
856.327	21903
856.461	21869
856.595	21759
856.729	21873
856.862	21934
856.996	21842
857.13	21941
857.263	21873
857.397	21903
857.53	21682
857.664	21884
857.797	21911
857.931	21850
858.064	21873
858.197	21930
858.331	21686
858.464	21732
858.597	21717
858.731	21850
858.864	21766
858.997	21663
859.13	21895
859.263	21793
859.396	21907
859.529	21648
859.662	21747
859.795	21660
859.928	21819
860.061	21975
860.194	21983
860.327	21694
860.46	21831
860.592	21831
860.725	21831
860.858	21964
860.99	21766
861.123	21629
861.256	21720
861.388	21709
861.521	22246
861.653	21587
861.786	21576
861.918	21648
862.05	21812
862.183	21755
862.315	21899
862.447	21774
862.58	21724
862.712	21519
862.844	21439
862.976	21644
863.108	21682
863.24	21774
863.372	21325
863.504	21545
863.636	21443
863.768	21481
863.9	21447
864.032	21496
864.164	21458
864.296	21481
864.428	21629
864.559	21492
864.691	21549
864.823	21378
864.954	21420
865.086	21389
865.217	21279
865.349	21355
865.48	21420
865.612	21447
865.743	21496
865.875	21408
866.006	21272
866.137	21370
866.269	21313
866.4	21408
866.531	21454
866.662	21252
866.793	21203
866.924	21348
867.055	21344
867.186	21252
867.317	21195
867.448	21108
867.579	21199
867.71	21154
867.841	21230
867.972	21294
868.103	21329
868.233	21355
868.364	21241
868.495	21306
868.625	21515
868.756	21583
868.886	21431
869.017	21348
869.147	21519
869.278	21519
869.408	21564
869.539	21454
869.669	21526
869.799	21553
869.929	21644
870.06	21557
870.19	21736
870.32	21789
870.45	21835
870.58	21880
870.71	21956
870.84	21972
870.97	21823
871.1	21739
871.23	22010
871.36	22097
871.489	21911
871.619	21941
871.749	22036
871.879	22067
872.008	22287
872.138	22128
872.267	22067
872.397	21918
872.526	21907
872.656	21930
872.785	22006
872.915	22090
873.044	22325
873.173	22074
873.303	22162
873.432	22078
873.561	22238
873.69	22135
873.819	22044
873.948	22188
874.077	22090
874.206	21994
874.335	22200
874.464	22196
874.593	22360
874.722	22356
874.851	22299
874.979	22432
875.108	22398
875.237	22375
875.365	22215
875.494	22261
875.623	22375
875.751	22299
875.88	22417
876.008	22481
876.136	22527
876.265	22729
876.393	22778
876.521	22786
876.65	22869
876.778	22755
876.906	22694
877.034	22630
877.162	22569
877.29	22569
877.418	22668
877.546	22641
877.674	22713
877.802	22523
877.93	22710
878.058	22713
878.185	22637
878.313	22706
878.441	22641
878.568	22485
878.696	22550
878.824	22641
878.951	22759
879.079	22881
879.206	22953
879.333	22930
879.461	22801
879.588	22843
879.715	22824
879.842	22911
879.97	22786
880.097	22489
880.224	22516
880.351	22489
880.478	22455
880.605	22409
880.732	22504
880.859	22641
880.986	22546
881.112	22516
881.239	22261
881.366	22246
881.493	22394
881.619	22150
881.746	22109
881.872	22013
881.999	22032
882.125	21983
882.252	22128
882.378	22036
882.505	22158
882.631	22048
882.757	21895
882.883	21884
883.01	21778
883.136	21770
883.262	21682
883.388	21606
883.514	21926
883.64	21869
883.766	21827
883.892	21538
884.018	21603
884.143	21907
884.269	21797
884.395	21507
884.52	21382
884.646	21420
884.772	21325
884.897	21401
885.023	21370
885.148	21534
885.274	21545
885.399	21549
885.524	21492
885.65	21568
885.775	21355
885.9	21466
886.025	21511
886.15	21469
886.275	21412
886.4	21340
886.525	21428
886.65	21336
886.775	21279
886.9	21488
887.025	21660
887.149	21420
887.274	21214
887.399	21195
887.523	21332
887.648	21165
887.773	20921
887.897	21222
888.021	21275
888.146	21108
888.27	21336
888.395	21272
888.519	21112
888.643	21119
888.767	21119
888.891	21062
889.015	20986
889.139	20948
889.263	21001
889.387	20986
889.511	21199
889.635	20963
889.759	20830
889.883	20937
890.006	20887
890.13	20998
890.254	20796
890.377	20781
890.501	20765
890.624	20663
890.748	20693
890.871	20655
890.995	20484
891.118	20370
891.241	20579
891.364	20499
891.488	20636
891.611	20522
891.734	20484
891.857	20492
891.98	20457
892.103	20598
892.226	20552
892.349	20374
892.471	20225
892.594	20393
892.717	20473
892.839	20461
892.962	20339
893.085	20492
893.207	20446
893.33	20374
893.452	20362
893.575	20434
893.697	20434
893.819	20412
893.941	20670
894.064	20640
894.186	20313
894.308	20408
894.43	20492
894.552	20583
894.674	20450
894.796	20263
894.918	20473
895.04	20404
895.161	20469
895.283	20385
895.405	20396
895.526	20393
895.648	20415
895.769	20415
895.891	20454
896.012	20545
896.134	20408
896.255	20396
896.376	20305
896.498	20412
896.619	20492
896.74	20503
896.861	20518
896.982	20788
897.103	21009
897.224	20762
897.345	20640
897.466	20629
897.587	20663
897.708	20796
897.828	20689
897.949	20625
898.07	20415
898.19	20632
898.311	20655
898.431	20492
898.552	20560
898.672	20697
898.792	20655
898.913	20724
899.033	20434
899.153	20320
899.273	20153
899.393	20324
899.513	20317
899.633	20339
899.753	20339
899.873	20073
899.993	20286
900.113	20256
900.232	20244
900.352	20347
900.472	20134
900.591	20142
900.711	20176
900.83	20043
900.95	20096
901.069	20210
901.189	19970
901.308	19780
901.427	19624
901.546	19685
901.665	19723
901.784	19708
901.904	19624
902.023	19487
902.141	19213
902.26	19179
902.379	19362
902.498	19080
902.617	19057
902.735	19148
902.854	19095
902.973	19095
903.091	18871
903.21	18791
903.328	18802
903.446	18719
903.565	18669
903.683	18559
903.801	18528
903.919	18547
904.038	18570
904.156	18296
904.274	18437
904.392	18365
904.51	18464
904.627	18399
904.745	18475
904.863	18547
904.981	18258
905.098	18083
905.216	18152
905.334	18038
905.451	18110
905.569	17855
905.686	18136
905.803	18064
905.921	17760
906.038	17973
906.155	17824
906.272	17737
906.389	17722
906.506	17611
906.623	17566
906.74	17619
906.857	17433
906.974	17535
907.091	17604
907.208	17615
907.324	17589
907.441	17395
907.557	17307
907.674	17368
907.79	17216
907.907	17269
908.023	17166
908.139	17318
908.256	17128
908.372	17086
908.488	17083
908.604	17048
908.72	16908
908.836	16957
908.952	16828
909.068	16984
909.184	16915
909.3	16892
909.415	16873
909.531	16877
909.647	16618
909.762	16637
909.878	16542
909.993	16531
910.108	16535
910.224	16519
910.339	16440
910.454	16497
910.57	16413
910.685	16314
910.8	16577
910.915	16641
911.03	16375
911.145	16295
911.259	16188
911.374	16200
911.489	16044
911.604	16082
911.718	15850
911.833	15899
911.947	15949
912.062	15816
912.176	15892
912.291	15941
912.405	15983
912.519	16169
912.633	16040
912.748	15945
912.862	15873
912.976	15766
913.09	15610
913.204	15648
913.318	15660
913.431	15816
913.545	15819
913.659	15774
913.772	15614
913.886	15488
914	15519
914.113	15591
914.226	15622
914.34	15663
914.453	15431
914.566	15530
914.68	15500
914.793	15439
914.906	15218
915.019	15192
915.132	15104
915.245	15085
915.358	15104
915.47	15100
915.583	15020
915.696	15272
915.809	15180
915.921	15348
916.034	15020
916.146	15032
916.259	15005
916.371	15058
916.483	15085
916.595	14986
916.708	15032
916.82	14990
916.932	14929
917.044	14906
917.156	14853
917.268	14792
917.38	14796
917.491	14708
917.603	14697
917.715	14823
917.826	14830
917.938	14754
918.049	14503
918.161	14727
918.272	14845
918.384	14895
918.495	14724
918.606	14488
918.717	14446
918.828	14537
918.939	14598
919.05	14385
919.161	14438
919.272	14324
919.383	14305
919.494	14461
919.604	14693
919.715	14514
919.826	14381
919.936	14450
920.047	14526
920.157	14419
920.267	14739
920.378	14507
920.488	14374
920.598	14537
920.708	14648
920.818	14537
920.928	14545
921.038	14746
921.148	14674
921.258	14320
921.368	14252
921.477	14225
921.587	14103
921.697	14027
921.806	14138
921.916	14031
922.025	13875
922.134	13883
922.244	13811
922.353	13807
922.462	13636
922.571	13647
922.68	13510
922.789	13369
922.898	13438
923.007	13426
923.116	13419
923.224	13403
923.333	13400
923.442	13304
923.55	13156
923.659	13343
923.767	13426
923.876	13251
923.984	13228
924.092	13187
924.201	13198
924.309	13145
924.417	13103
924.525	13057
924.633	13133
924.741	13864
924.849	12924
924.956	12989
925.064	12958
925.172	12825
925.279	12753
925.387	12852
925.494	12852
925.602	12985
925.709	12867
925.816	12779
925.924	12783
926.031	12875
926.138	12863
926.245	12897
926.352	12734
926.459	12772
926.566	12837
926.673	12776
926.779	12662
926.886	12589
926.993	12479
927.099	12452
927.206	12418
927.312	12365
927.419	12479
927.525	12365
927.631	12441
927.737	12289
927.843	12289
927.95	12129
928.056	12262
928.162	12319
928.267	12384
928.373	12852
928.479	12353
928.585	12136
928.69	12235
928.796	12178
928.901	12019
929.007	11908
929.112	12102
929.218	11999
929.323	11999
929.428	11939
929.533	12057
929.638	11904
929.743	11942
929.848	11904
929.953	11897
930.058	11843
930.163	11630
930.267	11653
930.372	11775
930.477	11646
930.581	11840
930.685	11638
930.79	11478
930.894	11490
930.998	11471
931.103	11630
931.207	11299
931.311	11193
931.415	11147
931.519	10816
931.623	10911
