Data from test_V78500241_1670.txt Node
Date: Fri Mar 25 15:53:22 CST 2022
User: usil
Spectrometer: V785-0024
Trigger mode: 0
Integration Time (sec): 4.000000E-1
Scans to average: 1
Nonlinearity correction enabled: false
Boxcar width: 0
Storing dark spectrum: false
XAxis mode: Wavelengths
Number of Pixels in Spectrum: 1024
>>>>>Begin Spectral Data<<<<<
801.071	28101
801.214	28044
801.356	27991
801.499	27892
801.641	27823
801.783	27789
801.926	27785
802.068	27755
802.211	27648
802.353	27663
802.496	27443
802.638	27355
802.78	27310
802.923	27317
803.065	27233
803.208	27298
803.35	27348
803.492	27572
803.635	27720
803.777	27378
803.919	27614
804.061	27914
804.204	27625
804.346	27477
804.488	27576
804.63	27713
804.773	27511
804.915	27652
805.057	27804
805.199	27618
805.341	27812
805.483	27770
805.626	27675
805.768	27774
805.91	27720
806.052	27838
806.194	27785
806.336	27835
806.478	27789
806.62	27903
806.762	27918
806.904	28097
807.046	28284
807.188	28196
807.33	28154
807.472	28363
807.614	28162
807.756	28162
807.898	28082
808.04	28002
808.182	27998
808.324	28116
808.465	28070
808.607	28325
808.749	28455
808.891	28592
809.033	28466
809.174	28535
809.316	28497
809.458	28478
809.6	28325
809.741	28531
809.883	28550
810.025	28748
810.166	28649
810.308	28618
810.45	28702
810.591	28641
810.733	28500
810.875	28550
811.016	28421
811.158	28401
811.299	28451
811.441	28675
811.582	28634
811.724	28527
811.865	28401
812.007	28341
812.148	28348
812.29	28440
812.431	28538
812.573	28873
812.714	28835
812.855	29006
812.997	29018
813.138	29178
813.279	28873
813.421	28888
813.562	28824
813.703	28702
813.845	28649
813.986	28440
814.127	28204
814.268	28230
814.41	28048
814.551	28143
814.692	28131
814.833	28215
814.974	28067
815.115	28131
815.256	27914
815.397	28120
815.539	28078
815.68	27941
815.821	27964
815.962	27914
816.103	27808
816.244	27869
816.385	27690
816.526	27538
816.666	27568
816.807	27344
816.948	27370
817.089	27587
817.23	27458
817.371	27359
817.512	27420
817.653	27393
817.793	27252
817.934	27473
818.075	27458
818.216	27496
818.356	27283
818.497	27245
818.638	27161
818.778	27230
818.919	27104
819.06	27169
819.2	27268
819.341	27450
819.481	27405
819.622	27477
819.762	27762
819.903	27648
820.043	27515
820.184	27633
820.324	27473
820.465	27690
820.605	27675
820.746	27515
820.886	27374
821.026	27405
821.167	27469
821.307	27667
821.447	27485
821.588	27382
821.728	27306
821.868	27100
822.008	26830
822.149	26842
822.289	26815
822.429	26602
822.569	26537
822.709	26522
822.849	26495
822.99	26476
823.13	26400
823.27	26195
823.41	26210
823.55	26183
823.69	26111
823.83	26142
823.97	26145
824.11	26016
824.25	25959
824.389	25963
824.529	26183
824.669	26115
824.809	26122
824.949	26206
825.089	26103
825.228	26077
825.368	25963
825.508	25986
825.648	26008
825.787	25913
825.927	25959
826.067	25849
826.206	25791
826.346	25925
826.485	25906
826.625	25959
826.765	26050
826.904	25913
827.044	25700
827.183	25639
827.323	25556
827.462	25605
827.601	25632
827.741	25750
827.88	25628
828.02	25487
828.159	25430
828.298	25586
828.437	25689
828.577	25525
828.716	25738
828.855	25563
828.994	25350
829.134	25350
829.273	25396
829.412	25312
829.551	25194
829.69	25327
829.829	25217
829.968	25373
830.107	25430
830.246	25285
830.385	25244
830.524	25209
830.663	25042
830.802	25065
830.941	24852
831.08	24760
831.219	24973
831.357	24981
831.496	25118
831.635	24863
831.774	24867
831.913	24661
832.051	24604
832.19	24635
832.329	24658
832.467	24475
832.606	24566
832.744	24646
832.883	24631
833.022	24738
833.16	24578
833.299	24631
833.437	24612
833.576	24627
833.714	24631
833.852	24684
833.991	24665
834.129	24669
834.267	24688
834.406	24642
834.544	24768
834.682	24665
834.821	24730
834.959	24867
835.097	24612
835.235	24795
835.373	24661
835.511	24627
835.65	24544
835.788	24388
835.926	24308
836.064	24292
836.202	24304
836.34	24429
836.478	24559
836.615	24384
836.753	24448
836.891	24551
837.029	24540
837.167	24327
837.305	24163
837.443	24281
837.58	24224
837.718	24292
837.856	24277
837.993	24296
838.131	24330
838.269	24136
838.406	24110
838.544	24178
838.681	23866
838.819	23824
838.956	23771
839.094	23813
839.231	23828
839.369	23897
839.506	24003
839.643	24034
839.781	23813
839.918	23718
840.055	23760
840.193	23718
840.33	23562
840.467	23729
840.604	23649
840.742	24041
840.879	23646
841.016	23684
841.153	23585
841.29	23748
841.427	23718
841.564	23882
841.701	23665
841.838	23615
841.975	23531
842.112	23676
842.249	23368
842.385	23452
842.522	23779
842.659	23455
842.796	23395
842.933	23334
843.069	23433
843.206	23353
843.343	23349
843.479	23455
843.616	23554
843.752	23181
843.889	23223
844.025	23410
844.162	23280
844.298	23174
844.435	23121
844.571	23071
844.708	23239
844.844	23280
844.98	23292
845.117	23372
845.253	23242
845.389	23075
845.525	23003
845.661	23132
845.798	22930
845.934	23056
846.07	22900
846.206	22828
846.342	23071
846.478	22816
846.614	22759
846.75	22653
846.886	22687
847.022	22839
847.158	22569
847.294	22729
847.429	22656
847.565	22599
847.701	22797
847.837	22352
847.972	22295
848.108	22337
848.244	22356
848.379	22173
848.515	22211
848.65	22173
848.786	22348
848.921	22265
849.057	22371
849.192	22272
849.328	22284
849.463	22177
849.598	22219
849.734	22074
849.869	22059
850.004	21956
850.14	22002
850.275	22097
850.41	21956
850.545	21960
850.68	22128
850.815	22006
850.95	21975
851.085	22207
851.22	22169
851.355	22010
851.49	21968
851.625	22048
851.76	21953
851.895	21983
852.03	21949
852.165	21972
852.299	22097
852.434	22090
852.569	22040
852.703	21983
852.838	22082
852.973	22181
853.107	22124
853.242	21911
853.376	21789
853.511	21724
853.645	21709
853.78	21911
853.914	21823
854.048	21831
854.183	21850
854.317	21922
854.451	21941
854.585	21907
854.72	21770
854.854	21857
854.988	21736
855.122	21736
855.256	21686
855.39	21812
855.524	21880
855.658	21930
855.792	21846
855.926	21865
856.06	21861
856.194	21979
856.327	21819
856.461	21667
856.595	21747
856.729	21819
856.862	21915
856.996	21968
857.13	21956
857.263	21956
857.397	21926
857.53	21915
857.664	21953
857.797	21899
857.931	21960
858.064	21884
858.197	21972
858.331	21926
858.464	21789
858.597	21694
858.731	21800
858.864	21671
858.997	21838
859.13	21812
859.263	21823
859.396	21884
859.529	21922
859.662	21762
859.795	21690
859.928	21838
860.061	21869
860.194	22013
860.327	21934
860.46	21857
860.592	21956
860.725	22078
860.858	21888
860.99	21861
861.123	21778
861.256	21774
861.388	21911
861.521	22481
861.653	21717
861.786	21701
861.918	21561
862.05	21603
862.183	21717
862.315	21903
862.447	21781
862.58	21736
862.712	21652
862.844	21420
862.976	21755
863.108	21629
863.24	22147
863.372	21477
863.504	21469
863.636	21507
863.768	21542
863.9	21641
864.032	21473
864.164	21374
864.296	21435
864.428	21755
864.559	21515
864.691	21595
864.823	21523
864.954	21492
865.086	21545
865.217	21389
865.349	21428
865.48	21340
865.612	21473
865.743	21557
865.875	21450
866.006	21431
866.137	21492
866.269	21420
866.4	21393
866.531	21386
866.662	21310
866.793	21329
866.924	21203
867.055	21389
867.186	21435
867.317	21275
867.448	21294
867.579	21283
867.71	21203
867.841	21317
867.972	21370
868.103	21340
868.233	21424
868.364	21359
868.495	21386
868.625	21477
868.756	21595
868.886	21610
869.017	21481
869.147	21667
869.278	21717
869.408	21656
869.539	21610
869.669	21728
869.799	21583
869.929	21732
870.06	21701
870.19	21831
870.32	21873
870.45	21903
870.58	21907
870.71	22154
870.84	22055
870.97	21907
871.1	22044
871.23	22162
871.36	22158
871.489	22063
871.619	22246
871.749	22211
871.879	22318
872.008	22314
872.138	22139
872.267	22246
872.397	22025
872.526	22032
872.656	21968
872.785	21998
872.915	22177
873.044	22405
873.173	22310
873.303	22306
873.432	22329
873.561	22325
873.69	22246
873.819	22314
873.948	22306
874.077	22291
874.206	22200
874.335	22230
874.464	22356
874.593	22478
874.722	22428
874.851	22478
874.979	22561
875.108	22398
875.237	22497
875.365	22276
875.494	22318
875.623	22493
875.751	22367
875.88	22421
876.008	22523
876.136	22565
876.265	22790
876.393	23079
876.521	22938
876.65	22957
876.778	22706
876.906	22752
877.034	22653
877.162	22839
877.29	22797
877.418	22824
877.546	22877
877.674	22873
877.802	22786
877.93	22793
878.058	22771
878.185	22672
878.313	22622
878.441	22710
878.568	22599
878.696	22672
878.824	22831
878.951	22797
879.079	23079
879.206	23178
879.333	22957
879.461	22877
879.588	22824
879.715	22881
879.842	23079
879.97	22923
880.097	22611
880.224	22478
880.351	22538
880.478	22733
880.605	22656
880.732	22599
880.859	22767
880.986	22497
881.112	22615
881.239	22542
881.366	22386
881.493	22295
881.619	22211
881.746	22192
881.872	22211
881.999	22223
882.125	22078
882.252	22181
882.378	22188
882.505	22238
882.631	22067
882.757	21846
882.883	21835
883.01	21865
883.136	21770
883.262	21739
883.388	21816
883.514	21903
883.64	21918
883.766	21701
883.892	21728
884.018	21732
884.143	21770
884.269	22032
884.395	21462
884.52	21378
884.646	21473
884.772	21367
884.897	21435
885.023	21599
885.148	21606
885.274	21572
885.399	21576
885.524	21492
885.65	21580
885.775	21523
885.9	21488
886.025	21724
886.15	21466
886.275	21374
886.4	21504
886.525	21599
886.65	21382
886.775	21416
886.9	21637
887.025	21641
887.149	21530
887.274	21317
887.399	21306
887.523	21256
887.648	21272
887.773	21222
887.897	21405
888.021	21230
888.146	21093
888.27	21393
888.395	21313
888.519	21272
888.643	21401
888.767	21370
888.891	21116
889.015	21135
889.139	21127
889.263	21199
889.387	21081
889.511	21256
889.635	21176
889.759	20925
889.883	21032
890.006	21085
890.13	21192
890.254	21013
890.377	20990
890.501	20842
890.624	20819
890.748	20758
890.871	20739
890.995	20568
891.118	20617
891.241	20663
891.364	20564
891.488	20754
891.611	20609
891.734	20720
891.857	20640
891.98	20598
892.103	20632
892.226	20590
892.349	20689
892.471	20442
892.594	20492
892.717	20651
892.839	20568
892.962	20511
893.085	20552
893.207	20560
893.33	20412
893.452	20332
893.575	20583
893.697	20488
893.819	20590
893.941	20769
894.064	20678
894.186	20495
894.308	20412
894.43	20499
894.552	20621
894.674	20507
894.796	20336
894.918	20465
895.04	20545
895.161	20667
895.283	20537
895.405	20389
895.526	20526
895.648	20473
895.769	20579
895.891	20568
896.012	20590
896.134	20682
896.255	20514
896.376	20461
896.498	20480
896.619	20594
896.74	20511
896.861	20552
896.982	20804
897.103	21005
897.224	20735
897.345	20693
897.466	20663
897.587	20815
897.708	20796
897.828	20849
897.949	20686
898.07	20590
898.19	20682
898.311	20720
898.431	20689
898.552	20727
898.672	20785
898.792	20731
898.913	20739
899.033	20663
899.153	20575
899.273	20381
899.393	20355
899.513	20492
899.633	20587
899.753	20495
899.873	20484
899.993	20583
900.113	20415
900.232	20385
900.352	20423
900.472	20294
900.591	20256
900.711	20229
900.83	20282
900.95	20256
901.069	20248
901.189	20134
901.308	19993
901.427	19833
901.546	19822
901.665	19818
901.784	19890
901.904	19811
902.023	19639
902.141	19388
902.26	19350
902.379	19438
902.498	19464
902.617	19373
902.735	19358
902.854	19358
902.973	19228
903.091	18905
903.21	19057
903.328	18970
903.446	18920
903.565	18741
903.683	18878
903.801	18665
903.919	18768
904.038	18665
904.156	18627
904.274	18661
904.392	18452
904.51	18517
904.627	18589
904.745	18597
904.863	18528
904.981	18330
905.098	18190
905.216	18277
905.334	18319
905.451	18258
905.569	18159
905.686	18224
905.803	18224
905.921	17984
906.038	18087
906.155	17920
906.272	18038
906.389	17992
906.506	17783
906.623	17756
906.74	17874
906.857	17665
906.974	17657
907.091	17855
907.208	17878
907.324	17718
907.441	17748
907.557	17573
907.674	17505
907.79	17429
907.907	17452
908.023	17596
908.139	17528
908.256	17376
908.372	17417
908.488	17296
908.604	17197
908.72	17197
908.836	17273
908.952	17147
909.068	17170
909.184	17353
909.3	17132
909.415	17181
909.531	17231
909.647	16953
909.762	16938
909.878	16801
909.993	16984
910.108	16809
910.224	16755
910.339	16896
910.454	16801
910.57	16729
910.685	16607
910.8	16949
910.915	16919
911.03	16656
911.145	16584
911.259	16371
911.374	16417
911.489	16493
911.604	16363
911.718	16219
911.833	16188
911.947	16154
912.062	16063
912.176	16192
912.291	16314
912.405	16287
912.519	16428
912.633	16367
912.748	16276
912.862	16135
912.976	16112
913.09	15915
913.204	15945
913.318	15949
913.431	16036
913.545	16074
913.659	16082
913.772	16040
913.886	15869
914	15842
914.113	15895
914.226	15842
914.34	15911
914.453	15770
914.566	15770
914.68	15713
914.793	15755
914.906	15462
915.019	15435
915.132	15306
915.245	15466
915.358	15473
915.47	15408
915.583	15496
915.696	15481
915.809	15603
915.921	15496
916.034	15344
916.146	15348
916.259	15332
916.371	15473
916.483	15416
916.595	15291
916.708	15249
916.82	15154
916.932	15214
917.044	15188
917.156	15283
917.268	15066
917.38	15058
917.491	15047
917.603	15062
917.715	15108
917.826	15047
917.938	15013
918.049	14929
918.161	15039
918.272	15055
918.384	15017
918.495	14982
918.606	14899
918.717	14773
918.828	14811
918.939	14887
919.05	14735
919.161	14777
919.272	14651
919.383	14613
919.494	14845
919.604	15051
919.715	14754
919.826	14724
919.936	14762
920.047	14804
920.157	14705
920.267	14963
920.378	14727
920.488	14640
920.598	14902
920.708	15074
920.818	14864
920.928	14937
921.038	15020
921.148	15131
921.258	14746
921.368	14640
921.477	14514
921.587	14446
921.697	14495
921.806	14457
921.916	14309
922.025	14195
922.134	14176
922.244	14195
922.353	14191
922.462	13970
922.571	13997
922.68	13811
922.789	13780
922.898	13830
923.007	13799
923.116	13841
923.224	13731
923.333	13761
923.442	13628
923.55	13544
923.659	13674
923.767	13712
923.876	13571
923.984	13597
924.092	13460
924.201	13544
924.309	13502
924.417	13556
924.525	13441
924.633	13529
924.741	14115
924.849	13217
924.956	13445
925.064	13228
925.172	13160
925.279	13244
925.387	13251
925.494	13217
925.602	13365
925.709	13232
925.816	13057
925.924	13053
926.031	13278
926.138	13152
926.245	13206
926.352	12970
926.459	13232
926.566	13183
926.673	13061
926.779	12951
926.886	12894
926.993	12772
927.099	12692
927.206	12749
927.312	12745
927.419	12787
927.525	12669
927.631	12741
927.737	12585
927.843	12486
927.95	12555
928.056	12559
928.162	12627
928.267	12677
928.373	13247
928.479	12604
928.585	12467
928.69	12528
928.796	12578
928.901	12475
929.007	12308
929.112	12391
929.218	12384
929.323	12346
929.428	12270
929.533	12429
929.638	12308
929.743	12266
929.848	12251
929.953	12201
930.058	12087
930.163	11923
930.267	12041
930.372	12106
930.477	11931
930.581	12171
930.685	12064
930.79	11874
930.894	11893
930.998	11783
931.103	12030
931.207	11600
931.311	11539
931.415	11497
931.519	11174
931.623	11174
