Data from test_V78500241_451.txt Node
Date: Fri Mar 25 15:44:55 CST 2022
User: usil
Spectrometer: V785-0024
Trigger mode: 0
Integration Time (sec): 4.000000E-1
Scans to average: 1
Nonlinearity correction enabled: false
Boxcar width: 0
Storing dark spectrum: false
XAxis mode: Wavelengths
Number of Pixels in Spectrum: 1024
>>>>>Begin Spectral Data<<<<<
801.071	28139
801.214	28040
801.356	27770
801.499	27930
801.641	27709
801.783	27713
801.926	27827
802.068	27625
802.211	27580
802.353	27507
802.496	27408
802.638	27348
802.78	27275
802.923	27344
803.065	27317
803.208	27275
803.35	27214
803.492	27279
803.635	27382
803.777	27192
803.919	27313
804.061	27698
804.204	27389
804.346	27363
804.488	27435
804.63	27329
804.773	27214
804.915	27332
805.057	27401
805.199	27348
805.341	27507
805.483	27454
805.626	27435
805.768	27294
805.91	27393
806.052	27580
806.194	27424
806.336	27667
806.478	27564
806.62	27507
806.762	27675
806.904	27698
807.046	27953
807.188	28010
807.33	27884
807.472	27880
807.614	27766
807.756	27804
807.898	27812
808.04	27827
808.182	27778
808.324	27800
808.465	27865
808.607	28044
808.749	28010
808.891	28040
809.033	28211
809.174	28234
809.316	28101
809.458	28200
809.6	28135
809.741	28299
809.883	28280
810.025	28356
810.166	28360
810.308	28371
810.45	28382
810.591	28177
810.733	28325
810.875	28143
811.016	28090
811.158	27934
811.299	28143
811.441	28280
811.582	28276
811.724	27998
811.865	27968
812.007	28055
812.148	28032
812.29	28112
812.431	28139
812.573	28401
812.714	28436
812.855	28675
812.997	28683
813.138	28980
813.279	28752
813.421	28691
813.562	28535
813.703	28386
813.845	28421
813.986	27994
814.127	27789
814.268	27869
814.41	27701
814.551	27614
814.692	27800
814.833	27660
814.974	27492
815.115	27774
815.256	27686
815.397	27462
815.539	27603
815.68	27447
815.821	27363
815.962	27481
816.103	27526
816.244	27408
816.385	27252
816.526	27306
816.666	26990
816.807	26944
816.948	27005
817.089	27009
817.23	27005
817.371	26960
817.512	26861
817.653	27009
817.793	26948
817.934	26826
818.075	26990
818.216	26929
818.356	27013
818.497	26758
818.638	26777
818.778	26739
818.919	26651
819.06	26648
819.2	26777
819.341	26906
819.481	26883
819.622	26979
819.762	27218
819.903	27230
820.043	27169
820.184	27089
820.324	27157
820.465	27081
820.605	27066
820.746	27074
820.886	27001
821.026	27024
821.167	26925
821.307	26967
821.447	26906
821.588	26963
821.728	26648
821.868	26522
822.008	26404
822.149	26396
822.289	26309
822.429	26084
822.569	26035
822.709	25947
822.849	26001
822.99	25765
823.13	25864
823.27	25791
823.41	25708
823.55	25563
823.69	25609
823.83	25616
823.97	25537
824.11	25533
824.25	25411
824.389	25521
824.529	25540
824.669	25381
824.809	25582
824.949	25601
825.089	25483
825.228	25460
825.368	25312
825.508	25285
825.648	25297
825.787	25259
825.927	25400
826.067	25259
826.206	25285
826.346	25278
826.485	25183
826.625	25206
826.765	25324
826.904	25274
827.044	25209
827.183	25118
827.323	24943
827.462	25053
827.601	24932
827.741	24817
827.88	25046
828.02	24856
828.159	24867
828.298	24935
828.437	25065
828.577	24890
828.716	24996
828.855	24859
828.994	24623
829.134	24658
829.273	24711
829.412	24669
829.551	24521
829.69	24715
829.829	24661
829.968	24703
830.107	24631
830.246	24585
830.385	24585
830.524	24471
830.663	24448
830.802	24452
830.941	24239
831.08	24194
831.219	24254
831.357	24410
831.496	24422
831.635	24285
831.774	24087
831.913	24114
832.051	23961
832.19	24030
832.329	23942
832.467	23920
832.606	23752
832.744	23920
832.883	23980
833.022	23893
833.16	23809
833.299	23885
833.437	23942
833.576	23901
833.714	23893
833.852	23904
833.991	23954
834.129	23965
834.267	23954
834.406	23897
834.544	23996
834.682	23783
834.821	23942
834.959	23980
835.097	23939
835.235	23961
835.373	23996
835.511	23942
835.65	23786
835.788	23665
835.926	23657
836.064	23554
836.202	23535
836.34	23779
836.478	23783
836.615	23547
836.753	23676
836.891	23817
837.029	23680
837.167	23756
837.305	23649
837.443	23558
837.58	23558
837.718	23672
837.856	23634
837.993	23444
838.131	23516
838.269	23379
838.406	23554
838.544	23356
838.681	23250
838.819	23197
838.956	22984
839.094	22957
839.231	23102
839.369	23288
839.506	23455
839.643	23227
839.781	23048
839.918	22965
840.055	23006
840.193	22892
840.33	23006
840.467	22930
840.604	22900
840.742	23330
840.879	22900
841.016	22843
841.153	22774
841.29	22972
841.427	23003
841.564	22957
841.701	22847
841.838	22953
841.975	22694
842.112	22828
842.249	22710
842.385	22596
842.522	22919
842.659	22733
842.796	22755
842.933	22691
843.069	22717
843.206	22588
843.343	22755
843.479	22733
843.616	22637
843.752	22485
843.889	22451
844.025	22603
844.162	22356
844.298	22561
844.435	22333
844.571	22409
844.708	22421
844.844	22672
844.98	22645
845.117	22527
845.253	22375
845.389	22207
845.525	22295
845.661	22230
845.798	22131
845.934	22234
846.07	22204
846.206	22090
846.342	22226
846.478	22181
846.614	21968
846.75	21899
846.886	21819
847.022	22006
847.158	21892
847.294	21785
847.429	21956
847.565	21747
847.701	22074
847.837	21648
847.972	21572
848.108	21614
848.244	21641
848.379	21485
848.515	21435
848.65	21416
848.786	21370
848.921	21447
849.057	21587
849.192	21450
849.328	21458
849.463	21488
849.598	21519
849.734	21431
849.869	21275
850.004	21226
850.14	21173
850.275	21203
850.41	21180
850.545	21157
850.68	21264
850.815	21184
850.95	21203
851.085	21428
851.22	21241
851.355	21218
851.49	21104
851.625	21192
851.76	21226
851.895	21009
852.03	21173
852.165	21119
852.299	21283
852.434	21287
852.569	21207
852.703	21165
852.838	21249
852.973	21397
853.107	21249
853.242	21135
853.376	21001
853.511	20979
853.645	21093
853.78	21062
853.914	21070
854.048	21024
854.183	21036
854.317	21077
854.451	21161
854.585	20872
854.72	20963
854.854	21036
854.988	20941
855.122	21005
855.256	20872
855.39	21001
855.524	21058
855.658	20921
855.792	21039
855.926	20960
856.06	20982
856.194	21108
856.327	21062
856.461	21028
856.595	20876
856.729	20967
856.862	21058
856.996	21024
857.13	21154
857.263	20986
857.397	21123
857.53	20819
857.664	21017
857.797	21001
857.931	21036
858.064	21119
858.197	21096
858.331	20963
858.464	20834
858.597	20952
858.731	21001
858.864	20944
858.997	20819
859.13	21047
859.263	20971
859.396	21070
859.529	20937
859.662	20823
859.795	20982
859.928	21013
860.061	21165
860.194	21146
860.327	21138
860.46	20975
860.592	21100
860.725	21104
860.858	20960
860.99	21013
861.123	20876
861.256	20967
861.388	21165
861.521	21652
861.653	20887
861.786	20785
861.918	20853
862.05	20826
862.183	20864
862.315	20861
862.447	21032
862.58	20914
862.712	20830
862.844	20644
862.976	20731
863.108	20765
863.24	21192
863.372	20606
863.504	20640
863.636	20640
863.768	20712
863.9	20636
864.032	20632
864.164	20648
864.296	20682
864.428	20727
864.559	20701
864.691	20727
864.823	20746
864.954	20583
865.086	20697
865.217	20682
865.349	20488
865.48	20705
865.612	20469
865.743	20735
865.875	20609
866.006	20655
866.137	20625
866.269	20511
866.4	20541
866.531	20495
866.662	20511
866.793	20412
866.924	20469
867.055	20602
867.186	20583
867.317	20503
867.448	20480
867.579	20492
867.71	20385
867.841	20336
867.972	20389
868.103	20552
868.233	20541
868.364	20552
868.495	20556
868.625	20640
868.756	20811
868.886	20743
869.017	20735
869.147	20842
869.278	20823
869.408	20785
869.539	20724
869.669	20788
869.799	20769
869.929	20948
870.06	20834
870.19	21116
870.32	21009
870.45	21108
870.58	21135
870.71	21291
870.84	21119
870.97	21173
871.1	21131
871.23	21302
871.36	21260
871.489	21199
871.619	21298
871.749	21397
871.879	21412
872.008	21473
872.138	21386
872.267	21374
872.397	21260
872.526	21203
872.656	21081
872.785	21173
872.915	21302
873.044	21405
873.173	21389
873.303	21310
873.432	21359
873.561	21416
873.69	21344
873.819	21374
873.948	21477
874.077	21389
874.206	21321
874.335	21363
874.464	21469
874.593	21599
874.722	21492
874.851	21519
874.979	21656
875.108	21701
875.237	21500
875.365	21637
875.494	21488
875.623	21671
875.751	21614
875.88	21515
876.008	21759
876.136	21732
876.265	21907
876.393	22097
876.521	21987
876.65	22093
876.778	22006
876.906	21983
877.034	21861
877.162	22086
877.29	22021
877.418	21926
877.546	21937
877.674	21956
877.802	22086
877.93	21869
878.058	21850
878.185	21907
878.313	21907
878.441	21903
878.568	21770
878.696	21880
878.824	22002
878.951	22093
879.079	22219
879.206	22238
879.333	22082
879.461	22036
879.588	22177
879.715	22177
879.842	22188
879.97	21972
880.097	21781
880.224	21766
880.351	21797
880.478	21903
880.605	21728
880.732	21755
880.859	21956
880.986	21583
881.112	21812
881.239	21648
881.366	21450
881.493	21428
881.619	21359
881.746	21428
881.872	21405
881.999	21260
882.125	21325
882.252	21401
882.378	21317
882.505	21370
882.631	21138
882.757	21199
882.883	21203
883.01	21036
883.136	21024
883.262	21028
883.388	20880
883.514	21001
883.64	21188
883.766	21051
883.892	20857
884.018	21001
884.143	21005
884.269	21020
884.395	20811
884.52	20830
884.646	20758
884.772	20659
884.897	20480
885.023	20750
885.148	20754
885.274	20811
885.399	20781
885.524	20731
885.65	20785
885.775	20746
885.9	20644
886.025	20853
886.15	20739
886.275	20663
886.4	20590
886.525	20613
886.65	20564
886.775	20454
886.9	20823
887.025	20777
887.149	20705
887.274	20526
887.399	20450
887.523	20434
887.648	20484
887.773	20278
887.897	20602
888.021	20484
888.146	20480
888.27	20533
888.395	20499
888.519	20454
888.643	20431
888.767	20594
888.891	20301
889.015	20267
889.139	20355
889.263	20324
889.387	20313
889.511	20469
889.635	20488
889.759	20218
889.883	20271
890.006	20412
890.13	20267
890.254	20153
890.377	20130
890.501	19963
890.624	20031
890.748	20039
890.871	19913
890.995	19860
891.118	19799
891.241	19734
891.364	19776
891.488	19982
891.611	19845
891.734	19860
891.857	19928
891.98	19826
892.103	20005
892.226	19799
892.349	19818
892.471	19727
892.594	19822
892.717	19769
892.839	19700
892.962	19826
893.085	19921
893.207	19883
893.33	19658
893.452	19681
893.575	19807
893.697	19769
893.819	19845
893.941	19963
894.064	19940
894.186	19658
894.308	19708
894.43	19868
894.552	19784
894.674	19799
894.796	19715
894.918	19693
895.04	19700
895.161	19860
895.283	19780
895.405	19788
895.526	19772
895.648	19864
895.769	19814
895.891	19913
896.012	19791
896.134	19799
896.255	19769
896.376	19784
896.498	19757
896.619	19803
896.74	19738
896.861	19898
896.982	20126
897.103	20278
897.224	20027
897.345	20084
897.466	20050
897.587	19955
897.708	20320
897.828	20024
897.949	19925
898.07	19890
898.19	19898
898.311	19997
898.431	19951
898.552	20103
898.672	20031
898.792	20103
898.913	20050
899.033	19898
899.153	19670
899.273	19628
899.393	19761
899.513	19734
899.633	19791
899.753	19765
899.873	19799
899.993	19742
900.113	19685
900.232	19799
900.352	19655
900.472	19613
900.591	19533
900.711	19480
900.83	19582
900.95	19651
901.069	19620
901.189	19491
901.308	19247
901.427	19110
901.546	19236
901.665	19232
901.784	19171
901.904	19019
902.023	18962
902.141	18677
902.26	18665
902.379	18665
902.498	18635
902.617	18627
902.735	18654
902.854	18578
902.973	18544
903.091	18346
903.21	18311
903.328	18247
903.446	18220
903.565	18095
903.683	18228
903.801	18152
903.919	18022
904.038	18068
904.156	17965
904.274	17931
904.392	17908
904.51	17828
904.627	17809
904.745	17942
904.863	17866
904.981	17729
905.098	17558
905.216	17585
905.334	17558
905.451	17573
905.569	17623
905.686	17592
905.803	17501
905.921	17307
906.038	17421
906.155	17429
906.272	17269
906.389	17330
906.506	17166
906.623	17098
906.74	17102
906.857	16930
906.974	16957
907.091	17056
907.208	17277
907.324	17094
907.441	17018
907.557	16755
907.674	16755
907.79	16733
907.907	16748
908.023	16892
908.139	16778
908.256	16809
908.372	16679
908.488	16675
908.604	16459
908.72	16565
908.836	16489
908.952	16436
909.068	16462
909.184	16596
909.3	16607
909.415	16443
909.531	16466
909.647	16219
909.762	16166
909.878	16185
909.993	16196
910.108	16101
910.224	16101
910.339	16143
910.454	16120
910.57	15899
910.685	15937
910.8	16268
910.915	16147
911.03	16090
911.145	15846
911.259	15857
911.374	15857
911.489	15747
911.604	15667
911.718	15542
911.833	15580
911.947	15416
912.062	15386
912.176	15523
912.291	15515
912.405	15519
912.519	15778
912.633	15720
912.748	15564
912.862	15469
912.976	15412
913.09	15264
913.204	15294
913.318	15389
913.431	15351
913.545	15378
913.659	15416
913.772	15359
913.886	15157
914	15218
914.113	15199
914.226	15237
914.34	15245
914.453	15028
914.566	15161
914.68	15036
914.793	15070
914.906	14823
915.019	14762
915.132	14762
915.245	14727
915.358	14708
915.47	14815
915.583	14682
915.696	14708
915.809	14781
915.921	14895
916.034	14823
916.146	14731
916.259	14655
916.371	14727
916.483	14754
916.595	14663
916.708	14610
916.82	14651
916.932	14594
917.044	14537
917.156	14518
917.268	14465
917.38	14545
917.491	14442
917.603	14465
917.715	14537
917.826	14571
917.938	14324
918.049	14286
918.161	14499
918.272	14552
918.384	14530
918.495	14408
918.606	14210
918.717	14119
918.828	14301
918.939	14286
919.05	13997
919.161	14134
919.272	14054
919.383	14161
919.494	14240
919.604	14412
919.715	14290
919.826	14111
919.936	14138
920.047	14218
920.157	14164
920.267	14404
920.378	14195
920.488	14149
920.598	14237
920.708	14488
920.818	14259
920.928	14290
921.038	14545
921.148	14275
921.258	14077
921.368	14103
921.477	13997
921.587	13830
921.697	13746
921.806	13917
921.916	13696
922.025	13658
922.134	13556
922.244	13525
922.353	13521
922.462	13373
922.571	13316
922.68	13175
922.789	13137
922.898	13213
923.007	13126
923.116	13179
923.224	13137
923.333	13103
923.442	13042
923.55	13057
923.659	13057
923.767	13137
923.876	12993
923.984	12962
924.092	12875
924.201	12890
924.309	12981
924.417	12932
924.525	12856
924.633	12932
924.741	13616
924.849	12696
924.956	12795
925.064	12654
925.172	12669
925.279	12662
925.387	12597
925.494	12757
925.602	12802
925.709	12745
925.816	12616
925.924	12536
926.031	12726
926.138	12623
926.245	12654
926.352	12532
926.459	12692
926.566	12684
926.673	12547
926.779	12372
926.886	12380
926.993	12239
927.099	12296
927.206	12178
927.312	12152
927.419	12228
927.525	12159
927.631	12205
927.737	12095
927.843	11999
927.95	11969
928.056	11977
928.162	12026
928.267	12049
928.373	12707
928.479	12076
928.585	11859
928.69	11954
928.796	12019
928.901	11954
929.007	11688
929.112	11958
929.218	11901
929.323	11840
929.428	11802
929.533	11870
929.638	11668
929.743	11775
929.848	11710
929.953	11627
930.058	11600
930.163	11387
930.267	11463
930.372	11592
930.477	11436
930.581	11672
930.685	11608
930.79	11326
930.894	11455
930.998	11383
931.103	11455
931.207	11143
931.311	11022
931.415	10854
931.519	10687
931.623	10721
