Data from test_V78500241_2464.txt Node
Date: Fri Mar 25 15:58:52 CST 2022
User: usil
Spectrometer: V785-0024
Trigger mode: 0
Integration Time (sec): 4.000000E-1
Scans to average: 1
Nonlinearity correction enabled: false
Boxcar width: 0
Storing dark spectrum: false
XAxis mode: Wavelengths
Number of Pixels in Spectrum: 1024
>>>>>Begin Spectral Data<<<<<
801.071	28744
801.214	28828
801.356	28755
801.499	28535
801.641	28485
801.783	28531
801.926	28493
802.068	28459
802.211	28527
802.353	28322
802.496	28306
802.638	28226
802.78	28181
802.923	28013
803.065	28097
803.208	28150
803.35	28204
803.492	28371
803.635	28421
803.777	28303
803.919	28398
804.061	28740
804.204	28459
804.346	28207
804.488	28169
804.63	28512
804.773	28310
804.915	28485
805.057	28523
805.199	28440
805.341	28542
805.483	28565
805.626	28523
805.768	28470
805.91	28421
806.052	28599
806.194	28474
806.336	28687
806.478	28637
806.62	28577
806.762	28942
806.904	28869
807.046	29090
807.188	28949
807.33	29014
807.472	29056
807.614	29025
807.756	28965
807.898	28858
808.04	28790
808.182	28896
808.324	28892
808.465	29006
808.607	29105
808.749	29288
808.891	29383
809.033	29490
809.174	29299
809.316	29143
809.458	29303
809.6	29254
809.741	29296
809.883	29337
810.025	29657
810.166	29592
810.308	29676
810.45	29524
810.591	29433
810.733	29322
810.875	29170
811.016	29273
811.158	29330
811.299	29360
811.441	29417
811.582	29395
811.724	29417
811.865	29136
812.007	29307
812.148	29193
812.29	29440
812.431	29459
812.573	29478
812.714	29745
812.855	29977
812.997	29760
813.138	30064
813.279	29916
813.421	29737
813.562	29748
813.703	29680
813.845	29509
813.986	29334
814.127	29075
814.268	29052
814.41	28938
814.551	29071
814.692	29113
814.833	29025
814.974	29033
815.115	29018
815.256	28873
815.397	28949
815.539	28869
815.68	28946
815.821	28679
815.962	28873
816.103	28953
816.244	28774
816.385	28710
816.526	28535
816.666	28371
816.807	28246
816.948	28261
817.089	28409
817.23	28504
817.371	28421
817.512	28265
817.653	28291
817.793	28306
817.934	28337
818.075	28363
818.216	28363
818.356	28128
818.497	28188
818.638	28124
818.778	27972
818.919	28120
819.06	28070
819.2	28223
819.341	28337
819.481	28413
819.622	28455
819.762	28717
819.903	28607
820.043	28474
820.184	28382
820.324	28618
820.465	28432
820.605	28390
820.746	28504
820.886	28196
821.026	28474
821.167	28421
821.307	28394
821.447	28382
821.588	28303
821.728	28185
821.868	27892
822.008	27911
822.149	27770
822.289	27831
822.429	27477
822.569	27473
822.709	27492
822.849	27325
822.99	27389
823.13	27302
823.27	27275
823.41	27226
823.55	27039
823.69	27131
823.83	27214
823.97	27039
824.11	26952
824.25	26906
824.389	26960
824.529	27093
824.669	27062
824.809	27157
824.949	27039
825.089	26986
825.228	27005
825.368	26762
825.508	26864
825.648	26933
825.787	26788
825.927	26975
826.067	26826
826.206	26811
826.346	26910
826.485	27024
826.625	26807
826.765	26921
826.904	26914
827.044	26674
827.183	26674
827.323	26575
827.462	26590
827.601	26682
827.741	26689
827.88	26667
828.02	26442
828.159	26484
828.298	26590
828.437	26754
828.577	26450
828.716	26606
828.855	26568
828.994	26263
829.134	26317
829.273	26404
829.412	26248
829.551	26290
829.69	26309
829.829	26168
829.968	26294
830.107	26351
830.246	26278
830.385	26149
830.524	26115
830.663	26168
830.802	26001
830.941	25788
831.08	25822
831.219	25913
831.357	25947
831.496	26100
831.635	25776
831.774	25811
831.913	25753
832.051	25704
832.19	25712
832.329	25750
832.467	25624
832.606	25548
832.744	25502
832.883	25578
833.022	25483
833.16	25548
833.299	25529
833.437	25605
833.576	25639
833.714	25708
833.852	25597
833.991	25616
834.129	25712
834.267	25666
834.406	25715
834.544	25632
834.682	25674
834.821	25453
834.959	25849
835.097	25476
835.235	25628
835.373	25635
835.511	25506
835.65	25453
835.788	25430
835.926	25308
836.064	25168
836.202	25240
836.34	25350
836.478	25540
836.615	25365
836.753	25460
836.891	25529
837.029	25438
837.167	25293
837.305	25358
837.443	25202
837.58	25194
837.718	25282
837.856	25403
837.993	25164
838.131	25160
838.269	25091
838.406	25103
838.544	25050
838.681	24947
838.819	24878
838.956	24719
839.094	24612
839.231	24783
839.369	24890
839.506	25141
839.643	24886
839.781	24768
839.918	24719
840.055	24646
840.193	24719
840.33	24650
840.467	24582
840.604	24658
840.742	24890
840.879	24391
841.016	24475
841.153	24486
841.29	24707
841.427	24559
841.564	24597
841.701	24654
841.838	24490
841.975	24570
842.112	24422
842.249	24471
842.385	24388
842.522	24635
842.659	24475
842.796	24399
842.933	24292
843.069	24060
843.206	24388
843.343	24407
843.479	24346
843.616	24330
843.752	24258
843.889	24167
844.025	24251
844.162	24117
844.298	24296
844.435	24068
844.571	24022
844.708	24136
844.844	24254
844.98	24304
845.117	24174
845.253	24102
845.389	24011
845.525	24007
845.661	23946
845.798	23752
845.934	23923
846.07	23840
846.206	23794
846.342	23969
846.478	23722
846.614	23832
846.75	23425
846.886	23547
847.022	23592
847.158	23630
847.294	23562
847.429	23619
847.565	23581
847.701	23817
847.837	23341
847.972	23250
848.108	23292
848.244	23246
848.379	23277
848.515	23220
848.65	23189
848.786	23136
848.921	23208
849.057	23303
849.192	23239
849.328	23124
849.463	23105
849.598	23083
849.734	23041
849.869	23010
850.004	23090
850.14	23006
850.275	22968
850.41	22843
850.545	22908
850.68	22938
850.815	22930
850.95	22972
851.085	23235
851.22	23010
851.355	23029
851.49	23109
851.625	22839
851.76	22892
851.895	22847
852.03	22869
852.165	22968
852.299	23018
852.434	23083
852.569	22892
852.703	22873
852.838	22892
852.973	23071
853.107	23086
853.242	23025
853.376	22782
853.511	22603
853.645	22660
853.78	22831
853.914	22717
854.048	22710
854.183	22771
854.317	22679
854.451	22953
854.585	22812
854.72	22691
854.854	22828
854.988	22645
855.122	22763
855.256	22607
855.39	22778
855.524	22729
855.658	22828
855.792	22790
855.926	22717
856.06	22759
856.194	22729
856.327	22710
856.461	22717
856.595	22736
856.729	22733
856.862	22820
856.996	22725
857.13	22793
857.263	22854
857.397	22740
857.53	22740
857.664	22767
857.797	22733
857.931	22885
858.064	22843
858.197	22953
858.331	22733
858.464	22793
858.597	22702
858.731	22710
858.864	22771
858.997	22584
859.13	22710
859.263	22816
859.396	22767
859.529	22740
859.662	22691
859.795	22626
859.928	22755
860.061	22828
860.194	22961
860.327	22839
860.46	22687
860.592	22850
860.725	22862
860.858	22873
860.99	22771
861.123	22759
861.256	22664
861.388	22717
861.521	23566
861.653	22557
861.786	22504
861.918	22622
862.05	22698
862.183	22713
862.315	22656
862.447	22736
862.58	22664
862.712	22481
862.844	22459
862.976	22527
863.108	22561
863.24	22862
863.372	22341
863.504	22470
863.636	22405
863.768	22580
863.9	22424
864.032	22390
864.164	22500
864.296	22523
864.428	22546
864.559	22523
864.691	22466
864.823	22462
864.954	22417
865.086	22325
865.217	22352
865.349	22215
865.48	22344
865.612	22322
865.743	22413
865.875	22382
866.006	22386
866.137	22375
866.269	22207
866.4	22333
866.531	22257
866.662	22131
866.793	22112
866.924	22188
867.055	22177
867.186	22310
867.317	22169
867.448	22207
867.579	22268
867.71	22150
867.841	22192
867.972	22204
868.103	22363
868.233	22329
868.364	22253
868.495	22390
868.625	22569
868.756	22683
868.886	22485
869.017	22443
869.147	22519
869.278	22542
869.408	22379
869.539	22500
869.669	22519
869.799	22508
869.929	22683
870.06	22550
870.19	22694
870.32	22873
870.45	22820
870.58	22919
870.71	23079
870.84	22949
870.97	22831
871.1	22793
871.23	23079
871.36	23090
871.489	23048
871.619	22938
871.749	23056
871.879	23006
872.008	23258
872.138	23083
872.267	23090
872.397	23022
872.526	22961
872.656	22987
872.785	22968
872.915	23155
873.044	23200
873.173	23094
873.303	23090
873.432	23121
873.561	23334
873.69	23155
873.819	23083
873.948	23181
874.077	23086
874.206	23105
874.335	23086
874.464	23162
874.593	23463
874.722	23239
874.851	23364
874.979	23436
875.108	23345
875.237	23341
875.365	23250
875.494	23303
875.623	23383
875.751	23250
875.88	23311
876.008	23474
876.136	23497
876.265	23729
876.393	23916
876.521	23813
876.65	23741
876.778	23710
876.906	23737
877.034	23642
877.162	23554
877.29	23600
877.418	23634
877.546	23630
877.674	23722
877.802	23672
877.93	23707
878.058	23585
878.185	23520
878.313	23562
878.441	23745
878.568	23444
878.696	23478
878.824	23699
878.951	23756
879.079	23950
879.206	23851
879.333	23840
879.461	23665
879.588	23684
879.715	23923
879.842	23847
879.97	23619
880.097	23516
880.224	23539
880.351	23440
880.478	23471
880.605	23398
880.732	23490
880.859	23779
880.986	23395
881.112	23608
881.239	23364
881.366	23132
881.493	23151
881.619	23098
881.746	23083
881.872	22999
881.999	22946
882.125	22953
882.252	23132
882.378	22965
882.505	23124
882.631	22847
882.757	22710
882.883	22858
883.01	22790
883.136	22588
883.262	22577
883.388	22523
883.514	22668
883.64	22713
883.766	22618
883.892	22512
884.018	22497
884.143	22611
884.269	22706
884.395	22424
884.52	22371
884.646	22230
884.772	22306
884.897	22295
885.023	22356
885.148	22455
885.274	22440
885.399	22284
885.524	22386
885.65	22356
885.775	22375
885.9	22337
886.025	22417
886.15	22424
886.275	22310
886.4	22196
886.525	22333
886.65	22162
886.775	22154
886.9	22363
887.025	22615
887.149	22405
887.274	22097
887.399	22093
887.523	22093
887.648	21991
887.773	21953
887.897	22139
888.021	22036
888.146	21983
888.27	22253
888.395	22166
888.519	22029
888.643	22078
888.767	22246
888.891	21915
889.015	21778
889.139	22013
889.263	21808
889.387	21964
889.511	22032
889.635	22044
889.759	21762
889.883	21804
890.006	21899
890.13	21911
890.254	21781
890.377	21903
890.501	21648
890.624	21507
890.748	21580
890.871	21545
890.995	21439
891.118	21298
891.241	21378
891.364	21321
891.488	21424
891.611	21428
891.734	21542
891.857	21424
891.98	21458
892.103	21447
892.226	21370
892.349	21252
892.471	21180
892.594	21408
892.717	21382
892.839	21214
892.962	21161
893.085	21298
893.207	21310
893.33	21058
893.452	21173
893.575	21291
893.697	21260
893.819	21382
893.941	21534
894.064	21599
894.186	21252
894.308	21214
894.43	21336
894.552	21443
894.674	21382
894.796	21157
894.918	21150
895.04	21245
895.161	21340
895.283	21252
895.405	21268
895.526	21344
895.648	21249
895.769	21332
895.891	21272
896.012	21496
896.134	21279
896.255	21275
896.376	21241
896.498	21256
896.619	21249
896.74	21214
896.861	21310
896.982	21618
897.103	21724
897.224	21485
897.345	21450
897.466	21447
897.587	21488
897.708	21515
897.828	21553
897.949	21454
898.07	21287
898.19	21370
898.311	21679
898.431	21416
898.552	21443
898.672	21329
898.792	21401
898.913	21469
899.033	21386
899.153	21249
899.273	21192
899.393	21199
899.513	21306
899.633	21138
899.753	21214
899.873	21093
899.993	21146
900.113	21081
900.232	21207
900.352	21100
900.472	21013
900.591	21020
900.711	20914
900.83	20925
900.95	21112
901.069	20971
901.189	20750
901.308	20663
901.427	20495
901.546	20499
901.665	20579
901.784	20488
901.904	20374
902.023	20244
902.141	20077
902.26	20081
902.379	20115
902.498	20016
902.617	19944
902.735	20084
902.854	19982
902.973	19868
903.091	19651
903.21	19628
903.328	19674
903.446	19552
903.565	19441
903.683	19597
903.801	19282
903.919	19400
904.038	19491
904.156	19285
904.274	19236
904.392	19206
904.51	19255
904.627	19282
904.745	19312
904.863	19259
904.981	18962
905.098	18943
905.216	18954
905.334	19015
905.451	18882
905.569	18821
905.686	18924
905.803	18897
905.921	18688
906.038	18814
906.155	18722
906.272	18486
906.389	18547
906.506	18517
906.623	18486
906.74	18410
906.857	18365
906.974	18456
907.091	18475
907.208	18551
907.324	18414
907.441	18292
907.557	18174
907.674	18216
907.79	18178
907.907	18102
908.023	18163
908.139	18152
908.256	17988
908.372	17980
908.488	18140
908.604	17935
908.72	17870
908.836	17870
908.952	17760
909.068	17794
909.184	17931
909.3	17821
909.415	17805
909.531	17828
909.647	17505
909.762	17596
909.878	17535
909.993	17558
910.108	17417
910.224	17486
910.339	17501
910.454	17292
910.57	17349
910.685	17299
910.8	17497
910.915	17467
911.03	17349
911.145	17140
911.259	17113
911.374	17102
911.489	17018
911.604	16915
911.718	16934
911.833	16904
911.947	16778
912.062	16672
912.176	16877
912.291	16987
912.405	16915
912.519	17022
912.633	17010
912.748	16885
912.862	16774
912.976	16679
913.09	16508
913.204	16603
913.318	16702
913.431	16721
913.545	16755
913.659	16843
913.772	16618
913.886	16455
914	16386
914.113	16550
914.226	16424
914.34	16527
914.453	16375
914.566	16440
914.68	16367
914.793	16272
914.906	16135
915.019	15964
915.132	15915
915.245	16002
915.358	16071
915.47	16025
915.583	16082
915.696	15956
915.809	16078
915.921	16192
916.034	15994
916.146	15945
916.259	15895
916.371	15941
916.483	16017
916.595	15926
916.708	15876
916.82	15736
916.932	15732
917.044	15812
917.156	15808
917.268	15743
917.38	15610
917.491	15580
917.603	15736
917.715	15686
917.826	15663
917.938	15545
918.049	15545
918.161	15682
918.272	15743
918.384	15728
918.495	15564
918.606	15317
918.717	15298
918.828	15401
918.939	15298
919.05	15230
919.161	15393
919.272	15275
919.383	15184
919.494	15424
919.604	15576
919.715	15389
919.826	15310
919.936	15313
920.047	15401
920.157	15370
920.267	15435
920.378	15386
920.488	15306
920.598	15534
920.708	15622
920.818	15523
920.928	15435
921.038	15618
921.148	15553
921.258	15237
921.368	15207
921.477	15081
921.587	14956
921.697	14956
921.806	14986
921.916	14990
922.025	14682
922.134	14739
922.244	14613
922.353	14667
922.462	14651
922.571	14556
922.68	14336
922.789	14355
922.898	14351
923.007	14343
923.116	14385
923.224	14358
923.333	14221
923.442	14244
923.55	14142
923.659	14191
923.767	14195
923.876	14046
923.984	14115
924.092	14035
924.201	13947
924.309	14016
924.417	13890
924.525	13944
924.633	13989
924.741	14762
924.849	13723
924.956	13932
925.064	13708
925.172	13723
925.279	13620
925.387	13685
925.494	13700
925.602	13852
925.709	13693
925.816	13491
925.924	13651
926.031	13727
926.138	13616
926.245	13609
926.352	13483
926.459	13510
926.566	13609
926.673	13521
926.779	13441
926.886	13419
926.993	13327
927.099	13270
927.206	13137
927.312	13160
927.419	13263
927.525	13236
927.631	13278
927.737	13164
927.843	13042
927.95	12905
928.056	13008
928.162	13008
928.267	13042
928.373	13643
928.479	13107
928.585	12928
928.69	12977
928.796	13004
928.901	12825
929.007	12840
929.112	12894
929.218	12806
929.323	12772
929.428	12810
929.533	12905
929.638	12623
929.743	12669
929.848	12711
929.953	12597
930.058	12597
930.163	12365
930.267	12456
930.372	12525
930.477	12357
930.581	12525
930.685	12460
930.79	12365
930.894	12315
930.998	12213
931.103	12365
931.207	12072
931.311	11984
931.415	11935
931.519	11688
931.623	11646
