Data from test_V78500241_1527.txt Node
Date: Fri Mar 25 15:52:22 CST 2022
User: usil
Spectrometer: V785-0024
Trigger mode: 0
Integration Time (sec): 4.000000E-1
Scans to average: 1
Nonlinearity correction enabled: false
Boxcar width: 0
Storing dark spectrum: false
XAxis mode: Wavelengths
Number of Pixels in Spectrum: 1024
>>>>>Begin Spectral Data<<<<<
801.071	28196
801.214	28040
801.356	27838
801.499	27770
801.641	27622
801.783	27652
801.926	27675
802.068	27713
802.211	27580
802.353	27675
802.496	27424
802.638	27370
802.78	27378
802.923	27348
803.065	27249
803.208	27340
803.35	27462
803.492	27557
803.635	27580
803.777	27336
803.919	27530
804.061	27755
804.204	27610
804.346	27622
804.488	27370
804.63	27488
804.773	27568
804.915	27728
805.057	27838
805.199	27580
805.341	27762
805.483	27766
805.626	27709
805.768	27823
805.91	27747
806.052	27759
806.194	27739
806.336	27911
806.478	27812
806.62	27770
806.762	27907
806.904	28070
807.046	28211
807.188	28150
807.33	28124
807.472	28249
807.614	28078
807.756	28185
807.898	28055
808.04	28048
808.182	27899
808.324	28032
808.465	28055
808.607	28230
808.749	28535
808.891	28535
809.033	28573
809.174	28512
809.316	28459
809.458	28459
809.6	28447
809.741	28531
809.883	28596
810.025	28790
810.166	28656
810.308	28649
810.45	28672
810.591	28565
810.733	28440
810.875	28322
811.016	28291
811.158	28455
811.299	28455
811.441	28527
811.582	28717
811.724	28352
811.865	28405
812.007	28360
812.148	28356
812.29	28379
812.431	28401
812.573	28801
812.714	28828
812.855	28888
812.997	28881
813.138	29079
813.279	29155
813.421	28755
813.562	28869
813.703	28790
813.845	28569
813.986	28341
814.127	28131
814.268	28226
814.41	28158
814.551	28211
814.692	28211
814.833	27983
814.974	27972
815.115	28147
815.256	28036
815.397	28013
815.539	28002
815.68	27835
815.821	27743
815.962	27991
816.103	27774
816.244	27876
816.385	27663
816.526	27530
816.666	27526
816.807	27431
816.948	27450
817.089	27576
817.23	27500
817.371	27462
817.512	27530
817.653	27500
817.793	27408
817.934	27310
818.075	27496
818.216	27511
818.356	27302
818.497	27157
818.638	27154
818.778	27116
818.919	27032
819.06	27302
819.2	27401
819.341	27439
819.481	27405
819.622	27580
819.762	27637
819.903	27675
820.043	27511
820.184	27637
820.324	27412
820.465	27656
820.605	27466
820.746	27526
820.886	27397
821.026	27526
821.167	27416
821.307	27431
821.447	27507
821.588	27306
821.728	27214
821.868	27108
822.008	26861
822.149	26918
822.289	26876
822.429	26537
822.569	26655
822.709	26602
822.849	26396
822.99	26408
823.13	26355
823.27	26488
823.41	26267
823.55	26062
823.69	26278
823.83	26244
823.97	26324
824.11	26012
824.25	25917
824.389	26084
824.529	26065
824.669	25989
824.809	26073
824.949	26115
825.089	26168
825.228	26031
825.368	25894
825.508	25944
825.648	25879
825.787	25925
825.927	25955
826.067	25833
826.206	25890
826.346	25890
826.485	25868
826.625	25887
826.765	26012
826.904	25959
827.044	25715
827.183	25578
827.323	25548
827.462	25689
827.601	25540
827.741	25571
827.88	25674
828.02	25377
828.159	25548
828.298	25727
828.437	25674
828.577	25533
828.716	25651
828.855	25487
828.994	25282
829.134	25285
829.273	25377
829.412	25168
829.551	25278
829.69	25244
829.829	25278
829.968	25304
830.107	25441
830.246	25266
830.385	25259
830.524	25251
830.663	25129
830.802	25072
830.941	24981
831.08	24890
831.219	24939
831.357	24966
831.496	25046
831.635	24928
831.774	24901
831.913	24852
832.051	24741
832.19	24688
832.329	24726
832.467	24509
832.606	24578
832.744	24502
832.883	24544
833.022	24616
833.16	24684
833.299	24517
833.437	24620
833.576	24608
833.714	24635
833.852	24658
833.991	24707
834.129	24711
834.267	24711
834.406	24639
834.544	24707
834.682	24604
834.821	24711
834.959	24848
835.097	24627
835.235	24681
835.373	24627
835.511	24635
835.65	24536
835.788	24483
835.926	24334
836.064	24247
836.202	24369
836.34	24388
836.478	24604
836.615	24441
836.753	24555
836.891	24574
837.029	24418
837.167	24452
837.305	24270
837.443	24395
837.58	24437
837.718	24350
837.856	24277
837.993	24292
838.131	24308
838.269	24224
838.406	24365
838.544	24178
838.681	23935
838.819	23889
838.956	23866
839.094	23817
839.231	23821
839.369	24015
839.506	24232
839.643	23954
839.781	23722
839.918	23695
840.055	23783
840.193	23794
840.33	23748
840.467	23726
840.604	23752
840.742	23965
840.879	23501
841.016	23668
841.153	23554
841.29	23737
841.427	23843
841.564	23771
841.701	23707
841.838	23661
841.975	23551
842.112	23642
842.249	23589
842.385	23417
842.522	23722
842.659	23528
842.796	23402
842.933	23493
843.069	23395
843.206	23402
843.343	23471
843.479	23414
843.616	23573
843.752	23132
843.889	23231
844.025	23402
844.162	23334
844.298	23246
844.435	23220
844.571	23181
844.708	23197
844.844	23402
844.98	23349
845.117	23341
845.253	23098
845.389	23132
845.525	23025
845.661	23060
845.798	22942
845.934	22987
846.07	22892
846.206	22946
846.342	23060
846.478	22862
846.614	22748
846.75	22588
846.886	22630
847.022	22721
847.158	22668
847.294	22710
847.429	22736
847.565	22679
847.701	22915
847.837	22379
847.972	22367
848.108	22504
848.244	22485
848.379	22379
848.515	22287
848.65	22303
848.786	22261
848.921	22344
849.057	22223
849.192	22280
849.328	22360
849.463	22207
849.598	22268
849.734	22173
849.869	22097
850.004	22029
850.14	22017
850.275	22169
850.41	21930
850.545	21972
850.68	22006
850.815	21876
850.95	22044
851.085	22257
851.22	22116
851.355	22036
851.49	21964
851.625	21964
851.76	21987
851.895	21854
852.03	21994
852.165	21968
852.299	22124
852.434	22207
852.569	22135
852.703	21949
852.838	22040
852.973	22253
853.107	22215
853.242	21956
853.376	21762
853.511	21797
853.645	21918
853.78	22055
853.914	21766
854.048	21907
854.183	21808
854.317	21835
854.451	22055
854.585	21751
854.72	21930
854.854	21968
854.988	21850
855.122	21888
855.256	21705
855.39	21804
855.524	21884
855.658	21934
855.792	21937
855.926	21831
856.06	21739
856.194	21888
856.327	21713
856.461	21789
856.595	21808
856.729	21804
856.862	22010
856.996	22021
857.13	21895
857.263	21987
857.397	21960
857.53	21774
857.664	21816
857.797	21808
857.931	21994
858.064	21736
858.197	21953
858.331	21701
858.464	21789
858.597	21713
858.731	21770
858.864	21660
858.997	21751
859.13	21907
859.263	21728
859.396	21960
859.529	21808
859.662	21793
859.795	21903
859.928	21934
860.061	21922
860.194	22097
860.327	21846
860.46	21880
860.592	21968
860.725	22051
860.858	21892
860.99	21838
861.123	21713
861.256	21778
861.388	21854
861.521	22390
861.653	21625
861.786	21720
861.918	21732
862.05	21778
862.183	21785
862.315	21884
862.447	21842
862.58	21789
862.712	21515
862.844	21557
862.976	21625
863.108	21603
863.24	22006
863.372	21485
863.504	21652
863.636	21477
863.768	21717
863.9	21545
864.032	21500
864.164	21488
864.296	21606
864.428	21629
864.559	21686
864.691	21591
864.823	21625
864.954	21545
865.086	21500
865.217	21420
865.349	21306
865.48	21488
865.612	21542
865.743	21526
865.875	21443
866.006	21431
866.137	21580
866.269	21485
866.4	21428
866.531	21325
866.662	21386
866.793	21329
866.924	21355
867.055	21485
867.186	21488
867.317	21252
867.448	21287
867.579	21256
867.71	21340
867.841	21218
867.972	21313
868.103	21355
868.233	21420
868.364	21332
868.495	21530
868.625	21625
868.756	21743
868.886	21500
869.017	21591
869.147	21781
869.278	21728
869.408	21720
869.539	21622
869.669	21595
869.799	21747
869.929	21774
870.06	21759
870.19	21994
870.32	21918
870.45	21907
870.58	21964
870.71	22124
870.84	22128
870.97	22002
871.1	21930
871.23	22120
871.36	22192
871.489	22040
871.619	22044
871.749	22249
871.879	22295
872.008	22348
872.138	22284
872.267	22200
872.397	22097
872.526	22059
872.656	21994
872.785	21953
872.915	22230
873.044	22322
873.173	22303
873.303	22185
873.432	22291
873.561	22413
873.69	22238
873.819	22257
873.948	22276
874.077	22295
874.206	22181
874.335	22295
874.464	22382
874.593	22546
874.722	22466
874.851	22580
874.979	22538
875.108	22607
875.237	22474
875.365	22462
875.494	22424
875.623	22462
875.751	22417
875.88	22474
876.008	22523
876.136	22603
876.265	22763
876.393	22957
876.521	22896
876.65	22991
876.778	22908
876.906	22828
877.034	22820
877.162	22820
877.29	22755
877.418	22793
877.546	22759
877.674	22797
877.802	22683
877.93	22892
878.058	22687
878.185	22668
878.313	22820
878.441	22736
878.568	22721
878.696	22763
878.824	22877
878.951	22949
879.079	22976
879.206	23109
879.333	22930
879.461	22881
879.588	22927
879.715	23113
879.842	23060
879.97	22892
880.097	22603
880.224	22710
880.351	22664
880.478	22679
880.605	22546
880.732	22588
880.859	22927
880.986	22668
881.112	22653
881.239	22588
881.366	22363
881.493	22379
881.619	22284
881.746	22249
881.872	22230
881.999	22109
882.125	22105
882.252	22230
882.378	22223
882.505	22265
882.631	21960
882.757	21915
882.883	21968
883.01	21812
883.136	21724
883.262	21705
883.388	21762
883.514	21781
883.64	21964
883.766	21747
883.892	21690
884.018	21637
884.143	21774
884.269	21915
884.395	21473
884.52	21652
884.646	21496
884.772	21435
884.897	21340
885.023	21561
885.148	21599
885.274	21557
885.399	21686
885.524	21656
885.65	21553
885.775	21469
885.9	21428
886.025	21591
886.15	21652
886.275	21439
886.4	21443
886.525	21549
886.65	21473
886.775	21408
886.9	21610
887.025	21660
887.149	21507
887.274	21336
887.399	21207
887.523	21355
887.648	21203
887.773	21211
887.897	21386
888.021	21306
888.146	21329
888.27	21481
888.395	21363
888.519	21416
888.643	21332
888.767	21386
888.891	21119
889.015	21123
889.139	21104
889.263	21001
889.387	21157
889.511	21275
889.635	21165
889.759	21032
889.883	21066
890.006	21081
890.13	21116
890.254	21081
890.377	21074
890.501	20887
890.624	20739
890.748	20868
890.871	20765
890.995	20636
891.118	20575
891.241	20678
891.364	20773
891.488	20705
891.611	20655
891.734	20648
891.857	20746
891.98	20613
892.103	20781
892.226	20602
892.349	20518
892.471	20419
892.594	20450
892.717	20537
892.839	20621
892.962	20625
893.085	20530
893.207	20545
893.33	20412
893.452	20530
893.575	20693
893.697	20530
893.819	20632
893.941	20769
894.064	20655
894.186	20457
894.308	20438
894.43	20587
894.552	20689
894.674	20587
894.796	20560
894.918	20400
895.04	20446
895.161	20648
895.283	20556
895.405	20476
895.526	20431
895.648	20571
895.769	20587
895.891	20495
896.012	20594
896.134	20526
896.255	20396
896.376	20476
896.498	20621
896.619	20621
896.74	20587
896.861	20609
896.982	20750
897.103	20944
897.224	20834
897.345	20804
897.466	20724
897.587	20769
897.708	20899
897.828	20788
897.949	20602
898.07	20613
898.19	20701
898.311	20769
898.431	20640
898.552	20712
898.672	20830
898.792	20727
898.913	20727
899.033	20651
899.153	20545
899.273	20347
899.393	20541
899.513	20526
899.633	20507
899.753	20568
899.873	20511
899.993	20423
900.113	20362
900.232	20434
900.352	20511
900.472	20225
900.591	20256
900.711	20218
900.83	20122
900.95	20362
901.069	20374
901.189	20134
901.308	19879
901.427	19814
901.546	19871
901.665	19913
901.784	19830
901.904	19578
902.023	19601
902.141	19483
902.26	19369
902.379	19514
902.498	19339
902.617	19312
902.735	19365
902.854	19362
902.973	19247
903.091	18985
903.21	19072
903.328	19012
903.446	18913
903.565	18745
903.683	18863
903.801	18821
903.919	18703
904.038	18730
904.156	18593
904.274	18677
904.392	18528
904.51	18395
904.627	18502
904.745	18544
904.863	18620
904.981	18380
905.098	18296
905.216	18167
905.334	18258
905.451	18232
905.569	18277
905.686	18300
905.803	18205
905.921	18045
906.038	18098
906.155	18114
906.272	17977
906.389	18053
906.506	17832
906.623	17687
906.74	17748
906.857	17608
906.974	17687
907.091	17821
907.208	17790
907.324	17863
907.441	17657
907.557	17471
907.674	17471
907.79	17345
907.907	17406
908.023	17410
908.139	17611
908.256	17402
908.372	17337
908.488	17444
908.604	17296
908.72	17231
908.836	17220
908.952	17162
909.068	17151
909.184	17356
909.3	17246
909.415	17216
909.531	17124
909.647	16896
909.762	16793
909.878	16809
909.993	16938
910.108	16858
910.224	16793
910.339	16892
910.454	16698
910.57	16744
910.685	16607
910.8	16953
910.915	16824
911.03	16679
911.145	16504
911.259	16493
911.374	16424
911.489	16489
911.604	16421
911.718	16219
911.833	16207
911.947	16036
912.062	16048
912.176	16234
912.291	16257
912.405	16371
912.519	16390
912.633	16424
912.748	16363
912.862	16192
912.976	16097
913.09	15945
913.204	16109
913.318	15994
913.431	16090
913.545	16207
913.659	16162
913.772	15998
913.886	15941
914	15838
914.113	15884
914.226	15869
914.34	15774
914.453	15793
914.566	15911
914.68	15739
914.793	15622
914.906	15511
915.019	15466
915.132	15397
915.245	15428
915.358	15534
915.47	15454
915.583	15378
915.696	15435
915.809	15500
915.921	15507
916.034	15340
916.146	15340
916.259	15294
916.371	15374
916.483	15302
916.595	15291
916.708	15279
916.82	15161
916.932	15218
917.044	15180
917.156	15214
917.268	15146
917.38	15233
917.491	15112
917.603	15142
917.715	15119
917.826	15279
917.938	14975
918.049	14979
918.161	15074
918.272	15074
918.384	15176
918.495	15032
918.606	14868
918.717	14636
918.828	14864
918.939	14906
919.05	14686
919.161	14834
919.272	14629
919.383	14651
919.494	14754
919.604	15055
919.715	14781
919.826	14743
919.936	14826
920.047	14800
920.157	14864
920.267	14998
920.378	14819
920.488	14769
920.598	14998
920.708	15074
920.818	14941
920.928	15017
921.038	15077
921.148	15013
921.258	14697
921.368	14678
921.477	14602
921.587	14492
921.697	14450
921.806	14446
921.916	14385
922.025	14225
922.134	14157
922.244	14210
922.353	14195
922.462	14054
922.571	13974
922.68	13788
922.789	13803
922.898	13731
923.007	13677
923.116	13871
923.224	13776
923.333	13791
923.442	13689
923.55	13590
923.659	13620
923.767	13712
923.876	13537
923.984	13742
924.092	13529
924.201	13514
924.309	13594
924.417	13597
924.525	13457
924.633	13510
924.741	14358
924.849	13251
924.956	13445
925.064	13301
925.172	13114
925.279	13221
925.387	13301
925.494	13206
925.602	13400
925.709	13209
925.816	13114
925.924	13095
926.031	13129
926.138	13072
926.245	13129
926.352	13084
926.459	13171
926.566	13187
926.673	13046
926.779	13000
926.886	12939
926.993	12821
927.099	12745
927.206	12738
927.312	12711
927.419	12825
927.525	12783
927.631	12810
927.737	12635
927.843	12623
927.95	12506
928.056	12646
928.162	12589
928.267	12639
928.373	13244
928.479	12673
928.585	12464
928.69	12498
928.796	12570
928.901	12471
929.007	12319
929.112	12441
929.218	12376
929.323	12213
929.428	12262
929.533	12456
929.638	12251
929.743	12201
929.848	12213
929.953	12311
930.058	12152
930.163	11969
930.267	11980
930.372	12133
930.477	11931
930.581	12136
930.685	12064
930.79	11927
930.894	11920
930.998	11840
931.103	12106
931.207	11573
931.311	11543
931.415	11410
931.519	11299
931.623	11181
