Data from test_V78500241_174.txt Node
Date: Fri Mar 25 15:43:00 CST 2022
User: usil
Spectrometer: V785-0024
Trigger mode: 0
Integration Time (sec): 4.000000E-1
Scans to average: 1
Nonlinearity correction enabled: false
Boxcar width: 0
Storing dark spectrum: false
XAxis mode: Wavelengths
Number of Pixels in Spectrum: 1024
>>>>>Begin Spectral Data<<<<<
801.071	28611
801.214	28626
801.356	28447
801.499	28325
801.641	28086
801.783	28109
801.926	28318
802.068	28124
802.211	28048
802.353	28109
802.496	27785
802.638	27705
802.78	27739
802.923	27553
803.065	27743
803.208	27762
803.35	27770
803.492	27918
803.635	27884
803.777	27728
803.919	27827
804.061	28128
804.204	27945
804.346	27812
804.488	27698
804.63	27831
804.773	27641
804.915	27812
805.057	27899
805.199	27934
805.341	27831
805.483	27975
805.626	27953
805.768	27869
805.91	27869
806.052	27934
806.194	27926
806.336	28109
806.478	27911
806.62	27926
806.762	28036
806.904	28120
807.046	28379
807.188	28276
807.33	28253
807.472	28329
807.614	28200
807.756	28200
807.898	28063
808.04	28086
808.182	28021
808.324	27991
808.465	28093
808.607	28246
808.749	28417
808.891	28478
809.033	28538
809.174	28592
809.316	28466
809.458	28459
809.6	28310
809.741	28561
809.883	28565
810.025	28706
810.166	28656
810.308	28626
810.45	28596
810.591	28432
810.733	28424
810.875	28497
811.016	28188
811.158	28382
811.299	28409
811.441	28740
811.582	28489
811.724	28363
811.865	28363
812.007	28333
812.148	28318
812.29	28413
812.431	28440
812.573	28538
812.714	28740
812.855	28820
812.997	28968
813.138	29140
813.279	28919
813.421	28786
813.562	28744
813.703	28573
813.845	28519
813.986	28185
814.127	27968
814.268	28044
814.41	28006
814.551	27949
814.692	28070
814.833	27972
814.974	27873
815.115	27987
815.256	27892
815.397	27827
815.539	27808
815.68	27675
815.821	27606
815.962	27717
816.103	27781
816.244	27656
816.385	27401
816.526	27450
816.666	27214
816.807	27119
816.948	27214
817.089	27154
817.23	27055
817.371	27150
817.512	27028
817.653	27085
817.793	27066
817.934	26956
818.075	27127
818.216	27020
818.356	26921
818.497	27043
818.638	26697
818.778	26883
818.919	26773
819.06	26796
819.2	26777
819.341	27112
819.481	27009
819.622	26998
819.762	27344
819.903	27332
820.043	27176
820.184	27146
820.324	27146
820.465	27131
820.605	27165
820.746	26948
820.886	26853
821.026	27154
821.167	26948
821.307	27116
821.447	26956
821.588	26944
821.728	26598
821.868	26587
822.008	26579
822.149	26396
822.289	26370
822.429	26183
822.569	26122
822.709	26191
822.849	25856
822.99	25852
823.13	25852
823.27	25719
823.41	25712
823.55	25666
823.69	25670
823.83	25788
823.97	25605
824.11	25388
824.25	25468
824.389	25464
824.529	25495
824.669	25457
824.809	25616
824.949	25590
825.089	25533
825.228	25457
825.368	25236
825.508	25377
825.648	25320
825.787	25316
825.927	25324
826.067	25282
826.206	25289
826.346	25301
826.485	25377
826.625	25217
826.765	25324
826.904	25194
827.044	25076
827.183	24973
827.323	24928
827.462	25015
827.601	24954
827.741	24875
827.88	24924
828.02	24875
828.159	24848
828.298	24875
828.437	24871
828.577	24852
828.716	25008
828.855	24783
828.994	24627
829.134	24627
829.273	24711
829.412	24544
829.551	24536
829.69	24620
829.829	24578
829.968	24566
830.107	24646
830.246	24582
830.385	24574
830.524	24391
830.663	24327
830.802	24270
830.941	24209
831.08	24258
831.219	24213
831.357	24243
831.496	24391
831.635	24167
831.774	24022
831.913	24053
832.051	23984
832.19	23942
832.329	23882
832.467	23813
832.606	23866
832.744	23893
832.883	23714
833.022	23783
833.16	23672
833.299	23828
833.437	23786
833.576	23874
833.714	23756
833.852	23840
833.991	23821
834.129	23897
834.267	23923
834.406	23893
834.544	23783
834.682	23843
834.821	23611
834.959	23882
835.097	23707
835.235	23832
835.373	23729
835.511	23775
835.65	23646
835.788	23543
835.926	23539
836.064	23463
836.202	23562
836.34	23573
836.478	23729
836.615	23802
836.753	23714
836.891	23802
837.029	23623
837.167	23554
837.305	23497
837.443	23509
837.58	23341
837.718	23615
837.856	23421
837.993	23433
838.131	23410
838.269	23242
838.406	23406
838.544	23280
838.681	23083
838.819	23041
838.956	22801
839.094	22759
839.231	22885
839.369	23044
839.506	23174
839.643	23220
839.781	22824
839.918	22774
840.055	22733
840.193	22858
840.33	22733
840.467	22755
840.604	22892
840.742	22968
840.879	22622
841.016	22668
841.153	22733
841.29	22858
841.427	22740
841.564	22805
841.701	22710
841.838	22733
841.975	22584
842.112	22618
842.249	22596
842.385	22436
842.522	22653
842.659	22580
842.796	22451
842.933	22535
843.069	22295
843.206	22310
843.343	22512
843.479	22436
843.616	22421
843.752	22154
843.889	22295
844.025	22527
844.162	22082
844.298	22166
844.435	22192
844.571	22196
844.708	22173
844.844	22344
844.98	22356
845.117	22303
845.253	22109
845.389	21979
845.525	22093
845.661	21994
845.798	21743
845.934	22036
846.07	21915
846.206	21888
846.342	22048
846.478	21941
846.614	21694
846.75	21675
846.886	21705
847.022	21660
847.158	21671
847.294	21622
847.429	21705
847.565	21599
847.701	21846
847.837	21336
847.972	21272
848.108	21469
848.244	21507
848.379	21272
848.515	21294
848.65	21211
848.786	21275
848.921	21173
849.057	21222
849.192	21302
849.328	21222
849.463	21256
849.598	21135
849.734	21093
849.869	20990
850.004	20906
850.14	21009
850.275	20921
850.41	20807
850.545	20891
850.68	20857
850.815	20941
850.95	21013
851.085	21104
851.22	20982
851.355	20971
851.49	20872
851.625	20929
851.76	20853
851.895	20781
852.03	20819
852.165	20910
852.299	20941
852.434	20891
852.569	20941
852.703	20819
852.838	20948
852.973	21058
853.107	21093
853.242	20918
853.376	20682
853.511	20590
853.645	20739
853.78	20891
853.914	20819
854.048	20746
854.183	20655
854.317	20743
854.451	20921
854.585	20792
854.72	20640
854.854	20800
854.988	20602
855.122	20686
855.256	20663
855.39	20697
855.524	20864
855.658	20724
855.792	20842
855.926	20590
856.06	20701
856.194	20735
856.327	20727
856.461	20568
856.595	20674
856.729	20708
856.862	20834
856.996	20617
857.13	20765
857.263	20712
857.397	20804
857.53	20682
857.664	20727
857.797	20807
857.931	20735
858.064	20796
858.197	20716
858.331	20750
858.464	20533
858.597	20469
858.731	20549
858.864	20598
858.997	20568
859.13	20617
859.263	20705
859.396	20674
859.529	20549
859.662	20495
859.795	20579
859.928	20617
860.061	20872
860.194	20807
860.327	20583
860.46	20667
860.592	20716
860.725	20864
860.858	20788
860.99	20739
861.123	20492
861.256	20518
861.388	20594
861.521	21378
861.653	20469
861.786	20511
861.918	20514
862.05	20625
862.183	20705
862.315	20819
862.447	20663
862.58	20636
862.712	20396
862.844	20419
862.976	20408
863.108	20495
863.24	20705
863.372	20442
863.504	20328
863.636	20370
863.768	20442
863.9	20370
864.032	20278
864.164	20313
864.296	20286
864.428	20408
864.559	20301
864.691	20385
864.823	20332
864.954	20362
865.086	20309
865.217	20202
865.349	20214
865.48	20244
865.612	20225
865.743	20381
865.875	20278
866.006	20202
866.137	20218
866.269	20290
866.4	20218
866.531	20244
866.662	20229
866.793	20183
866.924	20206
867.055	20031
867.186	20107
867.317	20069
867.448	20092
867.579	20031
867.71	20103
867.841	20058
867.972	20183
868.103	20244
868.233	20176
868.364	20183
868.495	20282
868.625	20457
868.756	20385
868.886	20332
869.017	20358
869.147	20488
869.278	20552
869.408	20427
869.539	20370
869.669	20431
869.799	20465
869.929	20499
870.06	20549
870.19	20739
870.32	20800
870.45	20693
870.58	20811
870.71	20918
870.84	20861
870.97	20746
871.1	20743
871.23	20944
871.36	20948
871.489	20998
871.619	20925
871.749	21028
871.879	21070
872.008	21203
872.138	20982
872.267	20902
872.397	20891
872.526	20834
872.656	20861
872.785	20804
872.915	20925
873.044	21173
873.173	21013
873.303	21146
873.432	21100
873.561	21188
873.69	21116
873.819	21036
873.948	21173
874.077	21032
874.206	20902
874.335	21089
874.464	21176
874.593	21310
874.722	21131
874.851	21340
874.979	21332
875.108	21241
875.237	21340
875.365	21154
875.494	21218
875.623	21397
875.751	21150
875.88	21370
876.008	21313
876.136	21473
876.265	21656
876.393	21804
876.521	21850
876.65	21690
876.778	21701
876.906	21595
877.034	21603
877.162	21583
877.29	21534
877.418	21747
877.546	21671
877.674	21682
877.802	21656
877.93	21762
878.058	21587
878.185	21507
878.313	21641
878.441	21648
878.568	21511
878.696	21644
878.824	21694
878.951	21709
879.079	21747
879.206	21975
879.333	21759
879.461	21728
879.588	21675
879.715	21785
879.842	21937
879.97	21747
880.097	21526
880.224	21443
880.351	21382
880.478	21458
880.605	21397
880.732	21504
880.859	21660
880.986	21492
881.112	21523
881.239	21245
881.366	21348
881.493	21116
881.619	21154
881.746	21135
881.872	21116
881.999	20998
882.125	20979
882.252	21119
882.378	20944
882.505	21180
882.631	20986
882.757	20849
882.883	20708
883.01	20815
883.136	20705
883.262	20602
883.388	20651
883.514	20918
883.64	20861
883.766	20830
883.892	20594
884.018	20480
884.143	20872
884.269	20857
884.395	20571
884.52	20514
884.646	20370
884.772	20370
884.897	20332
885.023	20457
885.148	20533
885.274	20511
885.399	20579
885.524	20492
885.65	20358
885.775	20389
885.9	20434
886.025	20438
886.15	20450
886.275	20385
886.4	20313
886.525	20351
886.65	20377
886.775	20298
886.9	20446
887.025	20473
887.149	20282
887.274	20248
887.399	20107
887.523	20199
887.648	20145
887.773	20100
887.897	20298
888.021	20218
888.146	20107
888.27	20240
888.395	20240
888.519	20172
888.643	20294
888.767	20282
888.891	20077
889.015	19936
889.139	20081
889.263	19932
889.387	20157
889.511	20275
889.635	20062
889.759	19959
889.883	19947
890.006	19890
890.13	20138
890.254	19894
890.377	19890
890.501	19597
890.624	19643
890.748	19715
890.871	19571
890.995	19582
891.118	19590
891.241	19537
891.364	19521
891.488	19651
891.611	19575
891.734	19582
891.857	19495
891.98	19571
892.103	19613
892.226	19590
892.349	19441
892.471	19415
892.594	19449
892.717	19499
892.839	19537
892.962	19480
893.085	19521
893.207	19529
893.33	19407
893.452	19324
893.575	19449
893.697	19400
893.819	19651
893.941	19746
894.064	19582
894.186	19403
894.308	19327
894.43	19567
894.552	19662
894.674	19525
894.796	19388
894.918	19430
895.04	19373
895.161	19590
895.283	19468
895.405	19365
895.526	19464
895.648	19411
895.769	19422
895.891	19540
896.012	19533
896.134	19647
896.255	19635
896.376	19506
896.498	19521
896.619	19601
896.74	19628
896.861	19544
896.982	19909
897.103	19917
897.224	19864
897.345	19890
897.466	19822
897.587	19620
897.708	19833
897.828	19803
897.949	19807
898.07	19575
898.19	19632
898.311	19670
898.431	19643
898.552	19677
898.672	19784
898.792	19700
898.913	19681
899.033	19544
899.153	19426
899.273	19407
899.393	19388
899.513	19464
899.633	19434
899.753	19559
899.873	19263
899.993	19514
900.113	19289
900.232	19388
900.352	19339
900.472	19377
900.591	19156
900.711	19209
900.83	19232
900.95	19362
901.069	19377
901.189	19236
901.308	18951
901.427	18905
901.546	18776
901.665	18802
901.784	18871
901.904	18677
902.023	18540
902.141	18429
902.26	18346
902.379	18486
902.498	18323
902.617	18308
902.735	18262
902.854	18251
902.973	18174
903.091	18019
903.21	17912
903.328	17920
903.446	17920
903.565	17779
903.683	17737
903.801	17722
903.919	17821
904.038	17668
904.156	17596
904.274	17638
904.392	17551
904.51	17600
904.627	17532
904.745	17615
904.863	17512
904.981	17368
905.098	17231
905.216	17200
905.334	17296
905.451	17220
905.569	17117
905.686	17162
905.803	17254
905.921	17025
906.038	17052
906.155	17037
906.272	16889
906.389	16889
906.506	16755
906.623	16706
906.74	16786
906.857	16637
906.974	16611
907.091	16904
907.208	16839
907.324	16809
907.441	16706
907.557	16356
907.674	16459
907.79	16318
907.907	16424
908.023	16390
908.139	16367
908.256	16440
908.372	16344
908.488	16287
908.604	16147
908.72	16093
908.836	16067
908.952	16124
909.068	16207
909.184	16154
909.3	16086
909.415	16101
909.531	16112
909.647	15884
909.762	15816
909.878	15838
909.993	15812
910.108	15804
910.224	15789
910.339	15766
910.454	15701
910.57	15713
910.685	15606
910.8	15842
910.915	15766
911.03	15553
911.145	15458
911.259	15466
911.374	15416
911.489	15302
911.604	15241
911.718	15169
911.833	15161
911.947	15203
912.062	15119
912.176	15135
912.291	15348
912.405	15211
912.519	15336
912.633	15363
912.748	15203
912.862	15070
912.976	14963
913.09	14921
913.204	14876
913.318	14948
913.431	15203
913.545	15032
913.659	15070
913.772	14944
913.886	14891
914	14804
914.113	14868
914.226	14914
914.34	14830
914.453	14785
914.566	14781
914.68	14632
914.793	14716
914.906	14606
915.019	14415
915.132	14381
915.245	14400
915.358	14393
915.47	14438
915.583	14412
915.696	14412
915.809	14587
915.921	14579
916.034	14396
916.146	14400
916.259	14358
916.371	14404
916.483	14301
916.595	14332
916.708	14218
916.82	14278
916.932	14259
917.044	14298
917.156	14237
917.268	14065
917.38	14115
917.491	14107
917.603	14054
917.715	14202
917.826	14199
917.938	14031
918.049	13974
918.161	14077
918.272	14115
918.384	14206
918.495	14149
918.606	13906
918.717	13871
918.828	13868
918.939	13811
919.05	13681
919.161	13849
919.272	13643
919.383	13696
919.494	13928
919.604	14084
919.715	13803
919.826	13681
919.936	13830
920.047	13883
920.157	13837
920.267	13959
920.378	13871
920.488	13715
920.598	13982
920.708	14100
920.818	13936
920.928	13970
921.038	14069
921.148	14073
921.258	13769
921.368	13704
921.477	13605
921.587	13567
921.697	13529
921.806	13628
921.916	13407
922.025	13236
922.134	13293
922.244	13152
922.353	13282
922.462	13069
922.571	13076
922.68	12837
922.789	12821
922.898	12875
923.007	12776
923.116	12833
923.224	12932
923.333	12783
923.442	12753
923.55	12654
923.659	12726
923.767	12810
923.876	12589
923.984	12692
924.092	12513
924.201	12654
924.309	12582
924.417	12578
924.525	12620
924.633	12502
924.741	13255
924.849	12270
924.956	12388
925.064	12384
925.172	12243
925.279	12273
925.387	12213
925.494	12281
925.602	12426
925.709	12391
925.816	12232
925.924	12277
926.031	12311
926.138	12330
926.245	12369
926.352	12258
926.459	12220
926.566	12342
926.673	12186
926.779	12057
926.886	12106
926.993	11897
927.099	11866
927.206	11847
927.312	11813
927.419	11847
927.525	11901
927.631	11863
927.737	11764
927.843	11824
927.95	11623
928.056	11748
928.162	11722
928.267	11790
928.373	12365
928.479	11741
928.585	11532
928.69	11756
928.796	11767
928.901	11573
929.007	11406
929.112	11528
929.218	11592
929.323	11414
929.428	11429
929.533	11524
929.638	11372
929.743	11364
929.848	11532
929.953	11368
930.058	11337
930.163	11235
930.267	11166
930.372	11292
930.477	11155
930.581	11250
930.685	11208
930.79	11048
930.894	11052
930.998	11048
931.103	11140
931.207	10759
931.311	10725
931.415	10649
931.519	10508
931.623	10352
