Data from test_V78500241_378.txt Node
Date: Fri Mar 25 15:44:25 CST 2022
User: usil
Spectrometer: V785-0024
Trigger mode: 0
Integration Time (sec): 4.000000E-1
Scans to average: 1
Nonlinearity correction enabled: false
Boxcar width: 0
Storing dark spectrum: false
XAxis mode: Wavelengths
Number of Pixels in Spectrum: 1024
>>>>>Begin Spectral Data<<<<<
801.071	29630
801.214	29619
801.356	29258
801.499	29345
801.641	29356
801.783	29189
801.926	29375
802.068	29379
802.211	29064
802.353	28942
802.496	28904
802.638	28930
802.78	28820
802.923	28885
803.065	28801
803.208	28759
803.35	28881
803.492	28961
803.635	29079
803.777	28881
803.919	29121
804.061	29387
804.204	29143
804.346	29079
804.488	28999
804.63	29029
804.773	29018
804.915	29212
805.057	29067
805.199	29185
805.341	29155
805.483	29242
805.626	29193
805.768	29083
805.91	29098
806.052	29181
806.194	29117
806.336	29395
806.478	29181
806.62	29223
806.762	29337
806.904	29463
807.046	29695
807.188	29589
807.33	29570
807.472	29668
807.614	29695
807.756	29592
807.898	29387
808.04	29486
808.182	29375
808.324	29448
808.465	29395
808.607	29802
808.749	29866
808.891	29946
809.033	30117
809.174	29878
809.316	29836
809.458	29813
809.6	29851
809.741	29977
809.883	29874
810.025	30209
810.166	30098
810.308	30273
810.45	30273
810.591	30152
810.733	30026
810.875	29885
811.016	29722
811.158	29783
811.299	30060
811.441	30091
811.582	30038
811.724	29745
811.865	29726
812.007	29783
812.148	29805
812.29	29904
812.431	29916
812.573	30220
812.714	30133
812.855	30334
812.997	30540
813.138	30658
813.279	30437
813.421	30361
813.562	30342
813.703	30194
813.845	30106
813.986	29798
814.127	29634
814.268	29516
814.41	29668
814.551	29459
814.692	29547
814.833	29421
814.974	29501
815.115	29436
815.256	29402
815.397	29315
815.539	29368
815.68	29375
815.821	29326
815.962	29425
816.103	29292
816.244	29231
816.385	29075
816.526	29140
816.666	28923
816.807	28888
816.948	28698
817.089	28847
817.23	28888
817.371	28805
817.512	28831
817.653	28885
817.793	28748
817.934	28831
818.075	28729
818.216	28869
818.356	28736
818.497	28656
818.638	28485
818.778	28516
818.919	28440
819.06	28527
819.2	28660
819.341	28683
819.481	28759
819.622	28968
819.762	29075
819.903	29033
820.043	29014
820.184	28896
820.324	28873
820.465	29048
820.605	28980
820.746	28797
820.886	28729
821.026	28812
821.167	28660
821.307	28862
821.447	28641
821.588	28580
821.728	28440
821.868	28428
822.008	28185
822.149	28272
822.289	28204
822.429	27926
822.569	27934
822.709	27846
822.849	27743
822.99	27694
823.13	27576
823.27	27755
823.41	27504
823.55	27359
823.69	27485
823.83	27466
823.97	27378
824.11	27275
824.25	27245
824.389	27142
824.529	27462
824.669	27393
824.809	27363
824.949	27412
825.089	27355
825.228	27515
825.368	27211
825.508	27085
825.648	27142
825.787	27291
825.927	27104
826.067	27142
826.206	27169
826.346	27169
826.485	27108
826.625	27047
826.765	27237
826.904	27135
827.044	26944
827.183	26887
827.323	26857
827.462	26887
827.601	26769
827.741	26724
827.88	26811
828.02	26735
828.159	26750
828.298	26899
828.437	26902
828.577	26743
828.716	26925
828.855	26750
828.994	26602
829.134	26549
829.273	26492
829.412	26408
829.551	26415
829.69	26503
829.829	26598
829.968	26545
830.107	26590
830.246	26480
830.385	26396
830.524	26427
830.663	26294
830.802	26111
830.941	26077
831.08	26008
831.219	26088
831.357	26199
831.496	26229
831.635	25970
831.774	25807
831.913	25906
832.051	25894
832.19	25894
832.329	25868
832.467	25837
832.606	25734
832.744	25639
832.883	25849
833.022	25575
833.16	25753
833.299	25788
833.437	25830
833.576	25811
833.714	25746
833.852	25700
833.991	25837
834.129	25883
834.267	25822
834.406	25750
834.544	25643
834.682	25689
834.821	25818
834.959	25864
835.097	25693
835.235	25655
835.373	25685
835.511	25723
835.65	25491
835.788	25586
835.926	25449
836.064	25403
836.202	25411
836.34	25479
836.478	25537
836.615	25563
836.753	25514
836.891	25468
837.029	25567
837.167	25483
837.305	25434
837.443	25453
837.58	25312
837.718	25453
837.856	25365
837.993	25263
838.131	25354
838.269	25213
838.406	25263
838.544	25168
838.681	25126
838.819	24920
838.956	24753
839.094	24848
839.231	24772
839.369	24989
839.506	25164
839.643	24901
839.781	24650
839.918	24806
840.055	24749
840.193	24669
840.33	24665
840.467	24604
840.604	24779
840.742	24981
840.879	24623
841.016	24570
841.153	24593
841.29	24798
841.427	24730
841.564	24623
841.701	24730
841.838	24559
841.975	24502
842.112	24467
842.249	24578
842.385	24437
842.522	24574
842.659	24429
842.796	24319
842.933	24323
843.069	24308
843.206	24330
843.343	24448
843.479	24376
843.616	24277
843.752	24167
843.889	24053
844.025	24266
844.162	24205
844.298	24213
844.435	24186
844.571	23999
844.708	24041
844.844	24251
844.98	24106
845.117	24140
845.253	24041
845.389	23946
845.525	23969
845.661	23996
845.798	23908
845.934	23920
846.07	23851
846.206	23882
846.342	24018
846.478	23866
846.614	23615
846.75	23345
846.886	23535
847.022	23726
847.158	23509
847.294	23577
847.429	23436
847.565	23539
847.701	23661
847.837	23273
847.972	23204
848.108	23467
848.244	23421
848.379	23200
848.515	23025
848.65	23159
848.786	23166
848.921	23166
849.057	23159
849.192	23212
849.328	23200
849.463	23113
849.598	23064
849.734	22991
849.869	23006
850.004	22866
850.14	22991
850.275	22862
850.41	22850
850.545	22736
850.68	22854
850.815	22839
850.95	22862
851.085	23006
851.22	22980
851.355	22885
851.49	22702
851.625	22710
851.76	22839
851.895	22850
852.03	22698
852.165	22877
852.299	22915
852.434	22858
852.569	22896
852.703	22862
852.838	22915
852.973	22942
853.107	22991
853.242	22702
853.376	22622
853.511	22672
853.645	22637
853.78	22744
853.914	22733
854.048	22569
854.183	22721
854.317	22691
854.451	22797
854.585	22679
854.72	22721
854.854	22641
854.988	22466
855.122	22603
855.256	22531
855.39	22622
855.524	22622
855.658	22687
855.792	22675
855.926	22698
856.06	22694
856.194	22668
856.327	22668
856.461	22615
856.595	22596
856.729	22744
856.862	22793
856.996	22759
857.13	22679
857.263	22687
857.397	22687
857.53	22611
857.664	22592
857.797	22778
857.931	22740
858.064	22641
858.197	22831
858.331	22493
858.464	22470
858.597	22615
858.731	22577
858.864	22554
858.997	22596
859.13	22630
859.263	22656
859.396	22721
859.529	22535
859.662	22580
859.795	22531
859.928	22618
860.061	22733
860.194	22759
860.327	22531
860.46	22569
860.592	22797
860.725	22843
860.858	22733
860.99	22622
861.123	22531
861.256	22565
861.388	22580
861.521	23261
861.653	22432
861.786	22386
861.918	22341
862.05	22622
862.183	22474
862.315	22706
862.447	22634
862.58	22573
862.712	22344
862.844	22314
862.976	22371
863.108	22470
863.24	22778
863.372	22147
863.504	22226
863.636	22280
863.768	22322
863.9	22086
864.032	22325
864.164	22287
864.296	22257
864.428	22432
864.559	22322
864.691	22402
864.823	22257
864.954	22272
865.086	22257
865.217	22181
865.349	22188
865.48	22139
865.612	22169
865.743	22325
865.875	22131
866.006	22101
866.137	22169
866.269	22135
866.4	22162
866.531	22192
866.662	22086
866.793	22097
866.924	22010
867.055	22169
867.186	21968
867.317	22120
867.448	21979
867.579	22112
867.71	22006
867.841	21983
867.972	22143
868.103	22112
868.233	22048
868.364	22101
868.495	22063
868.625	22306
868.756	22443
868.886	22299
869.017	22306
869.147	22382
869.278	22447
869.408	22287
869.539	22181
869.669	22325
869.799	22375
869.929	22348
870.06	22428
870.19	22550
870.32	22596
870.45	22523
870.58	22683
870.71	22691
870.84	22824
870.97	22736
871.1	22653
871.23	22736
871.36	22881
871.489	22843
871.619	22820
871.749	22782
871.879	22896
872.008	23067
872.138	22911
872.267	22953
872.397	22816
872.526	22736
872.656	22786
872.785	22793
872.915	23010
873.044	22850
873.173	22957
873.303	22995
873.432	22900
873.561	22930
873.69	22984
873.819	22915
873.948	23105
874.077	22961
874.206	22900
874.335	22923
874.464	22991
874.593	23227
874.722	23258
874.851	23322
874.979	23159
875.108	23098
875.237	23124
875.365	23041
875.494	23159
875.623	23235
875.751	23090
875.88	23170
876.008	23341
876.136	23296
876.265	23493
876.393	23668
876.521	23558
876.65	23551
876.778	23520
876.906	23433
877.034	23440
877.162	23490
877.29	23372
877.418	23395
877.546	23512
877.674	23471
877.802	23414
877.93	23497
878.058	23436
878.185	23448
878.313	23547
878.441	23501
878.568	23410
878.696	23254
878.824	23630
878.951	23490
879.079	23672
879.206	23809
879.333	23600
879.461	23539
879.588	23596
879.715	23672
879.842	23687
879.97	23524
880.097	23220
880.224	23402
880.351	23345
880.478	23296
880.605	23265
880.732	23227
880.859	23551
880.986	23280
881.112	23364
881.239	23223
881.366	22938
881.493	22980
881.619	22873
881.746	22930
881.872	22843
881.999	22812
882.125	22889
882.252	22889
882.378	22873
882.505	22854
882.631	22740
882.757	22596
882.883	22626
883.01	22584
883.136	22713
883.262	22367
883.388	22348
883.514	22474
883.64	22596
883.766	22493
883.892	22325
884.018	22394
884.143	22470
884.269	22580
884.395	22234
884.52	22131
884.646	22196
884.772	22090
884.897	22109
885.023	22234
885.148	22257
885.274	22325
885.399	22246
885.524	22169
885.65	22143
885.775	22295
885.9	22070
886.025	22356
886.15	22143
886.275	22219
886.4	22078
886.525	22135
886.65	22078
886.775	22147
886.9	22265
887.025	22428
887.149	22135
887.274	21953
887.399	21838
887.523	21987
887.648	21880
887.773	21797
887.897	21922
888.021	21956
888.146	21865
888.27	21922
888.395	21975
888.519	21850
888.643	21941
888.767	22017
888.891	21831
889.015	21751
889.139	21808
889.263	21682
889.387	21846
889.511	21941
889.635	21675
889.759	21625
889.883	21705
890.006	21759
890.13	21599
890.254	21572
890.377	21606
890.501	21420
890.624	21454
890.748	21401
890.871	21275
890.995	21207
891.118	21142
891.241	21230
891.364	21180
891.488	21329
891.611	21222
891.734	21256
891.857	21287
891.98	21237
892.103	21329
892.226	21268
892.349	21169
892.471	21077
892.594	21207
892.717	21100
892.839	21020
892.962	20998
893.085	21275
893.207	21142
893.33	21077
893.452	20979
893.575	21161
893.697	20960
893.819	21298
893.941	21344
894.064	21173
894.186	21199
894.308	21085
894.43	21161
894.552	21351
894.674	21150
894.796	21017
894.918	21104
895.04	21108
895.161	21157
895.283	21100
895.405	21104
895.526	21119
895.648	21089
895.769	21119
895.891	21165
896.012	21230
896.134	21119
896.255	21127
896.376	21062
896.498	21154
896.619	21260
896.74	21009
896.861	21173
896.982	21412
897.103	21606
897.224	21519
897.345	21291
897.466	21291
897.587	21321
897.708	21500
897.828	21344
897.949	21283
898.07	21173
898.19	21317
898.311	21291
898.431	21222
898.552	21329
898.672	21279
898.792	21469
898.913	21214
899.033	21131
899.153	21116
899.273	20994
899.393	21089
899.513	21062
899.633	21001
899.753	21070
899.873	20963
899.993	21039
900.113	21058
900.232	20960
900.352	20883
900.472	20853
900.591	20765
900.711	20807
900.83	20727
900.95	20876
901.069	20971
901.189	20648
901.308	20419
901.427	20317
901.546	20431
901.665	20408
901.784	20366
901.904	20206
902.023	20126
902.141	20039
902.26	19940
902.379	20016
902.498	19814
902.617	19799
902.735	19837
902.854	19769
902.973	19776
903.091	19544
903.21	19540
903.328	19521
903.446	19343
903.565	19411
903.683	19411
903.801	19244
903.919	19259
904.038	19194
904.156	19133
904.274	19080
904.392	19031
904.51	19015
904.627	19095
904.745	19000
904.863	19107
904.981	18821
905.098	18719
905.216	18753
905.334	18688
905.451	18757
905.569	18646
905.686	18650
905.803	18665
905.921	18585
906.038	18650
906.155	18475
906.272	18327
906.389	18414
906.506	18273
906.623	18239
906.74	18213
906.857	18095
906.974	18121
907.091	18296
907.208	18319
907.324	18125
907.441	18167
907.557	18011
907.674	17904
907.79	17878
907.907	17855
908.023	17824
908.139	17870
908.256	17916
908.372	17775
908.488	17790
908.604	17619
908.72	17520
908.836	17608
908.952	17524
909.068	17630
909.184	17627
909.3	17539
909.415	17589
909.531	17596
909.647	17307
909.762	17402
909.878	17330
909.993	17220
910.108	17299
910.224	17246
910.339	17284
910.454	17166
910.57	17083
910.685	17025
910.8	17261
910.915	17174
911.03	17060
911.145	16946
911.259	16980
911.374	16980
911.489	16805
911.604	16752
911.718	16687
911.833	16668
911.947	16508
912.062	16497
912.176	16630
912.291	16649
912.405	16645
912.519	16820
912.633	16717
912.748	16630
912.862	16634
912.976	16519
913.09	16276
913.204	16322
913.318	16390
913.431	16394
913.545	16424
913.659	16538
913.772	16436
913.886	16265
914	16226
914.113	16238
914.226	16322
914.34	16242
914.453	16059
914.566	16230
914.68	16120
914.793	16109
914.906	15850
915.019	15812
915.132	15755
915.245	15732
915.358	15838
915.47	15865
915.583	15762
915.696	15850
915.809	15972
915.921	15945
916.034	15759
916.146	15724
916.259	15618
916.371	15770
916.483	15595
916.595	15606
916.708	15599
916.82	15675
916.932	15599
917.044	15572
917.156	15488
917.268	15382
917.38	15401
917.491	15374
917.603	15447
917.715	15545
917.826	15469
917.938	15313
918.049	15272
918.161	15332
918.272	15447
918.384	15462
918.495	15458
918.606	15230
918.717	15081
918.828	15222
918.939	15154
919.05	15001
919.161	15097
919.272	14861
919.383	14960
919.494	15218
919.604	15473
919.715	15127
919.826	15062
919.936	15070
920.047	15218
920.157	15112
920.267	15260
920.378	15104
920.488	14998
920.598	15249
920.708	15420
920.818	15306
920.928	15180
921.038	15325
921.148	15313
921.258	15085
921.368	15066
921.477	14868
921.587	14739
921.697	14610
921.806	14819
921.916	14708
922.025	14423
922.134	14495
922.244	14358
922.353	14461
922.462	14324
922.571	14214
922.68	14123
922.789	14043
922.898	14081
923.007	14062
923.116	14092
923.224	14081
923.333	14008
923.442	13913
923.55	13826
923.659	13902
923.767	13932
923.876	13765
923.984	13845
924.092	13753
924.201	13902
924.309	13795
924.417	13772
924.525	13761
924.633	13727
924.741	14659
924.849	13506
924.956	13696
925.064	13491
925.172	13377
925.279	13438
925.387	13468
925.494	13392
925.602	13575
925.709	13422
925.816	13445
925.924	13392
926.031	13483
926.138	13453
926.245	13419
926.352	13266
926.459	13487
926.566	13472
926.673	13289
926.779	13168
926.886	13206
926.993	13065
927.099	13031
927.206	12905
927.312	12951
927.419	13038
927.525	12962
927.631	12947
927.737	12894
927.843	12905
927.95	12726
928.056	12833
928.162	12825
928.267	12844
928.373	13392
928.479	12867
928.585	12654
928.69	12806
928.796	12798
928.901	12627
929.007	12566
929.112	12650
929.218	12616
929.323	12544
929.428	12555
929.533	12673
929.638	12426
929.743	12506
929.848	12441
929.953	12452
930.058	12361
930.163	12148
930.267	12266
930.372	12361
930.477	12213
930.581	12403
930.685	12171
930.79	12079
930.894	12205
930.998	11996
931.103	12136
931.207	11840
931.311	11752
931.415	11543
931.519	11410
931.623	11417
