Data from test_V78500241_966.txt Node
Date: Fri Mar 25 15:48:29 CST 2022
User: usil
Spectrometer: V785-0024
Trigger mode: 0
Integration Time (sec): 4.000000E-1
Scans to average: 1
Nonlinearity correction enabled: false
Boxcar width: 0
Storing dark spectrum: false
XAxis mode: Wavelengths
Number of Pixels in Spectrum: 1024
>>>>>Begin Spectral Data<<<<<
801.071	28432
801.214	28375
801.356	28211
801.499	27983
801.641	27911
801.783	28002
801.926	27975
802.068	27907
802.211	27876
802.353	27926
802.496	27663
802.638	27690
802.78	27736
802.923	27561
803.065	27473
803.208	27568
803.35	27553
803.492	27679
803.635	27781
803.777	27675
803.919	27762
804.061	28105
804.204	27914
804.346	27755
804.488	27648
804.63	27793
804.773	27751
804.915	27903
805.057	27865
805.199	27911
805.341	27892
805.483	27987
805.626	27876
805.768	27854
805.91	27941
806.052	27861
806.194	27953
806.336	28192
806.478	28120
806.62	28070
806.762	28082
806.904	28234
807.046	28535
807.188	28394
807.33	28386
807.472	28394
807.614	28375
807.756	28375
807.898	28356
808.04	28200
808.182	28158
808.324	28120
808.465	28409
808.607	28451
808.749	28702
808.891	28694
809.033	28866
809.174	28736
809.316	28531
809.458	28573
809.6	28588
809.741	28637
809.883	28843
810.025	28919
810.166	28908
810.308	28911
810.45	29018
810.591	28908
810.733	28778
810.875	28588
811.016	28580
811.158	28577
811.299	28805
811.441	28938
811.582	28866
811.724	28797
811.865	28584
812.007	28615
812.148	28630
812.29	28607
812.431	28896
812.573	28987
812.714	29212
812.855	29181
812.997	29353
813.138	29448
813.279	29174
813.421	29242
813.562	29121
813.703	28972
813.845	28900
813.986	28691
814.127	28500
814.268	28386
814.41	28390
814.551	28344
814.692	28455
814.833	28413
814.974	28185
815.115	28398
815.256	28185
815.397	28249
815.539	28329
815.68	28200
815.821	28112
815.962	28124
816.103	28124
816.244	28002
816.385	28025
816.526	27899
816.666	27842
816.807	27671
816.948	27766
817.089	27991
817.23	27888
817.371	27515
817.512	27641
817.653	27553
817.793	27663
817.934	27724
818.075	27648
818.216	27637
818.356	27762
818.497	27481
818.638	27507
818.778	27458
818.919	27450
819.06	27545
819.2	27698
819.341	27705
819.481	27663
819.622	27899
819.762	28025
819.903	27914
820.043	27819
820.184	27804
820.324	27857
820.465	27854
820.605	27911
820.746	27724
820.886	27762
821.026	27812
821.167	27759
821.307	27972
821.447	27743
821.588	27675
821.728	27530
821.868	27348
822.008	27218
822.149	27135
822.289	27218
822.429	26876
822.569	26872
822.709	26819
822.849	26765
822.99	26750
823.13	26644
823.27	26587
823.41	26404
823.55	26434
823.69	26511
823.83	26427
823.97	26476
824.11	26214
824.25	26290
824.389	26351
824.529	26294
824.669	26275
824.809	26393
824.949	26453
825.089	26294
825.228	26423
825.368	26210
825.508	26309
825.648	26187
825.787	26233
825.927	26225
826.067	26263
826.206	26153
826.346	26183
826.485	26248
826.625	26237
826.765	26339
826.904	26263
827.044	25974
827.183	26031
827.323	25757
827.462	25970
827.601	25871
827.741	25997
827.88	25940
828.02	25738
828.159	25966
828.298	25807
828.437	26039
828.577	25951
828.716	26005
828.855	25856
828.994	25719
829.134	25655
829.273	25772
829.412	25567
829.551	25499
829.69	25441
829.829	25700
829.968	25712
830.107	25620
830.246	25674
830.385	25662
830.524	25502
830.663	25350
830.802	25392
830.941	25304
831.08	25259
831.219	25350
831.357	25266
831.496	25392
831.635	25217
831.774	25072
831.913	25171
832.051	24882
832.19	25031
832.329	25050
832.467	24886
832.606	24886
832.744	24894
832.883	24821
833.022	24764
833.16	24806
833.299	24897
833.437	24856
833.576	24943
833.714	24890
833.852	24989
833.991	25053
834.129	25103
834.267	25034
834.406	24992
834.544	24973
834.682	24989
834.821	24871
834.959	25008
835.097	24871
835.235	24977
835.373	24962
835.511	24837
835.65	24856
835.788	24916
835.926	24623
836.064	24498
836.202	24528
836.34	24715
836.478	24848
836.615	24810
836.753	24726
836.891	24817
837.029	24764
837.167	24696
837.305	24688
837.443	24715
837.58	24608
837.718	24772
837.856	24760
837.993	24540
838.131	24517
838.269	24498
838.406	24673
838.544	24486
838.681	24235
838.819	24247
838.956	24167
839.094	24155
839.231	24068
839.369	24254
839.506	24570
839.643	24262
839.781	24030
839.918	24064
840.055	24076
840.193	24064
840.33	23942
840.467	24152
840.604	24095
840.742	24300
840.879	23798
841.016	23999
841.153	23771
841.29	24045
841.427	23859
841.564	24022
841.701	24003
841.838	23901
841.975	23775
842.112	23939
842.249	23733
842.385	23752
842.522	23923
842.659	23771
842.796	23726
842.933	23855
843.069	23547
843.206	23714
843.343	23687
843.479	23783
843.616	23729
843.752	23478
843.889	23459
844.025	23509
844.162	23440
844.298	23562
844.435	23326
844.571	23417
844.708	23463
844.844	23573
844.98	23703
845.117	23630
845.253	23459
845.389	23284
845.525	23326
845.661	23391
845.798	23200
845.934	23383
846.07	23246
846.206	23273
846.342	23341
846.478	23250
846.614	23052
846.75	22965
846.886	22873
847.022	23025
847.158	22942
847.294	23064
847.429	22938
847.565	22908
847.701	23162
847.837	22694
847.972	22683
848.108	22763
848.244	22778
848.379	22538
848.515	22519
848.65	22535
848.786	22489
848.921	22596
849.057	22599
849.192	22740
849.328	22634
849.463	22611
849.598	22497
849.734	22386
849.869	22421
850.004	22268
850.14	22303
850.275	22398
850.41	22147
850.545	22295
850.68	22204
850.815	22390
850.95	22413
851.085	22352
851.22	22314
851.355	22318
851.49	22295
851.625	22238
851.76	22287
851.895	22116
852.03	22223
852.165	22356
852.299	22367
852.434	22299
852.569	22299
852.703	22246
852.838	22291
852.973	22421
853.107	22394
853.242	22360
853.376	22105
853.511	21956
853.645	22128
853.78	22230
853.914	22169
854.048	21972
854.183	22044
854.317	22177
854.451	22200
854.585	22139
854.72	22147
854.854	22158
854.988	22147
855.122	22010
855.256	22010
855.39	22181
855.524	22040
855.658	22192
855.792	22105
855.926	22048
856.06	22173
856.194	22207
856.327	22090
856.461	21968
856.595	22128
856.729	22090
856.862	22162
856.996	22204
857.13	22124
857.263	22226
857.397	22116
857.53	22105
857.664	22162
857.797	22204
857.931	22139
858.064	22158
858.197	22173
858.331	22173
858.464	21949
858.597	22017
858.731	22185
858.864	21968
858.997	22002
859.13	22162
859.263	22128
859.396	22173
859.529	22150
859.662	22002
859.795	22109
859.928	22162
860.061	22059
860.194	22242
860.327	22188
860.46	22112
860.592	22162
860.725	22447
860.858	22185
860.99	22272
861.123	22006
861.256	21994
861.388	22048
861.521	22847
861.653	22017
861.786	21876
861.918	21926
862.05	21865
862.183	22051
862.315	22059
862.447	22086
862.58	21991
862.712	21907
862.844	21732
862.976	22010
863.108	21781
863.24	22188
863.372	21781
863.504	21835
863.636	21888
863.768	21724
863.9	21861
864.032	21736
864.164	21846
864.296	21816
864.428	21918
864.559	21869
864.691	21888
864.823	21770
864.954	21762
865.086	21709
865.217	21720
865.349	21496
865.48	21831
865.612	21694
865.743	21793
865.875	21857
866.006	21698
866.137	21736
866.269	21770
866.4	21709
866.531	21549
866.662	21515
866.793	21637
866.924	21743
867.055	21633
867.186	21622
867.317	21557
867.448	21572
867.579	21622
867.71	21606
867.841	21622
867.972	21545
868.103	21656
868.233	21648
868.364	21656
868.495	21622
868.625	21778
868.756	21998
868.886	21751
869.017	21911
869.147	21979
869.278	21937
869.408	21983
869.539	21899
869.669	21934
869.799	21930
869.929	22082
870.06	21956
870.19	22276
870.32	22090
870.45	22219
870.58	22348
870.71	22352
870.84	22322
870.97	22295
871.1	22226
871.23	22337
871.36	22481
871.489	22375
871.619	22466
871.749	22470
871.879	22341
872.008	22656
872.138	22443
872.267	22375
872.397	22314
872.526	22310
872.656	22421
872.785	22196
872.915	22550
873.044	22405
873.173	22573
873.303	22417
873.432	22497
873.561	22554
873.69	22535
873.819	22478
873.948	22656
874.077	22538
874.206	22451
874.335	22428
874.464	22523
874.593	22786
874.722	22573
874.851	22744
874.979	22683
875.108	22809
875.237	22596
875.365	22535
875.494	22656
875.623	22748
875.751	22664
875.88	22664
876.008	22946
876.136	22930
876.265	23079
876.393	23216
876.521	23143
876.65	23166
876.778	23056
876.906	23086
877.034	23102
877.162	22938
877.29	22968
877.418	23014
877.546	23128
877.674	23037
877.802	23113
877.93	22957
878.058	22984
878.185	22938
878.313	22873
878.441	23132
878.568	22820
878.696	22904
878.824	23064
878.951	23060
879.079	23178
879.206	23395
879.333	23265
879.461	23128
879.588	23041
879.715	23231
879.842	23273
879.97	23037
880.097	22828
880.224	22885
880.351	22885
880.478	22858
880.605	22759
880.732	22877
880.859	23022
880.986	22869
881.112	22908
881.239	22748
881.366	22565
881.493	22497
881.619	22485
881.746	22527
881.872	22462
881.999	22500
882.125	22276
882.252	22447
882.378	22337
882.505	22508
882.631	22139
882.757	22147
882.883	22169
883.01	22215
883.136	21975
883.262	22074
883.388	21907
883.514	22173
883.64	22219
883.766	22044
883.892	21892
884.018	21941
884.143	22067
884.269	22147
884.395	21907
884.52	21736
884.646	21808
884.772	21679
884.897	21656
885.023	21766
885.148	21842
885.274	21915
885.399	21880
885.524	21804
885.65	21876
885.775	21800
885.9	21797
886.025	21766
886.15	21743
886.275	21663
886.4	21637
886.525	21781
886.65	21591
886.775	21599
886.9	21884
887.025	21873
887.149	21633
887.274	21599
887.399	21435
887.523	21599
887.648	21507
887.773	21481
887.897	21667
888.021	21591
888.146	21534
888.27	21549
888.395	21610
888.519	21622
888.643	21587
888.767	21469
888.891	21321
889.015	21344
889.139	21386
889.263	21355
889.387	21454
889.511	21481
889.635	21405
889.759	21291
889.883	21192
890.006	21351
890.13	21348
890.254	21325
890.377	21146
890.501	21062
890.624	20956
890.748	21157
890.871	21047
890.995	20792
891.118	20750
891.241	20906
891.364	20963
891.488	20994
891.611	20910
891.734	20902
891.857	20868
891.98	20952
892.103	20872
892.226	20838
892.349	20804
892.471	20632
892.594	20697
892.717	20853
892.839	20686
892.962	20686
893.085	20655
893.207	20834
893.33	20659
893.452	20594
893.575	20807
893.697	20731
893.819	20811
893.941	20914
894.064	20929
894.186	20644
894.308	20621
894.43	20899
894.552	20925
894.674	20849
894.796	20663
894.918	20587
895.04	20826
895.161	20697
895.283	20815
895.405	20724
895.526	20735
895.648	20697
895.769	20720
895.891	20872
896.012	20800
896.134	20819
896.255	20773
896.376	20655
896.498	20655
896.619	20785
896.74	20834
896.861	20849
896.982	21074
897.103	21195
897.224	20982
897.345	20960
897.466	20895
897.587	20963
897.708	21005
897.828	20933
897.949	20929
898.07	20773
898.19	20986
898.311	21081
898.431	21051
898.552	20960
898.672	20944
898.792	21009
898.913	20944
899.033	20845
899.153	20834
899.273	20606
899.393	20674
899.513	20716
899.633	20651
899.753	20765
899.873	20602
899.993	20613
900.113	20636
900.232	20648
900.352	20705
900.472	20511
900.591	20442
900.711	20476
900.83	20298
900.95	20450
901.069	20655
901.189	20374
901.308	20024
901.427	20077
901.546	20050
901.665	20043
901.784	19978
901.904	19875
902.023	19753
902.141	19632
902.26	19651
902.379	19635
902.498	19518
902.617	19495
902.735	19499
902.854	19483
902.973	19502
903.091	19080
903.21	19152
903.328	19190
903.446	19274
903.565	19012
903.683	19046
903.801	18989
903.919	19027
904.038	18867
904.156	18741
904.274	18970
904.392	18768
904.51	18825
904.627	18837
904.745	18779
904.863	18875
904.981	18620
905.098	18448
905.216	18426
905.334	18494
905.451	18604
905.569	18460
905.686	18475
905.803	18391
905.921	18205
906.038	18300
906.155	18201
906.272	18091
906.389	18167
906.506	17980
906.623	17992
906.74	18038
906.857	17908
906.974	17927
907.091	17988
907.208	18007
907.324	17923
907.441	17920
907.557	17745
907.674	17687
907.79	17760
907.907	17592
908.023	17649
908.139	17687
908.256	17676
908.372	17532
908.488	17474
908.604	17372
908.72	17280
908.836	17497
908.952	17326
909.068	17410
909.184	17520
909.3	17345
909.415	17444
909.531	17326
909.647	17174
909.762	17071
909.878	17124
909.993	17136
910.108	17083
910.224	16968
910.339	17022
910.454	16961
910.57	16915
910.685	16748
910.8	17079
910.915	17006
911.03	16877
911.145	16733
911.259	16679
911.374	16565
911.489	16516
911.604	16535
911.718	16402
911.833	16348
911.947	16257
912.062	16341
912.176	16417
912.291	16440
912.405	16382
912.519	16561
912.633	16637
912.748	16523
912.862	16421
912.976	16207
913.09	16169
913.204	16147
913.318	16207
913.431	16352
913.545	16268
913.659	16329
913.772	16177
913.886	16021
914	15998
914.113	16097
914.226	16067
914.34	16074
914.453	15827
914.566	16002
914.68	15892
914.793	15884
914.906	15671
915.019	15515
915.132	15523
915.245	15580
915.358	15580
915.47	15656
915.583	15625
915.696	15606
915.809	15701
915.921	15701
916.034	15534
916.146	15458
916.259	15511
916.371	15530
916.483	15511
916.595	15447
916.708	15435
916.82	15386
916.932	15378
917.044	15370
917.156	15332
917.268	15252
917.38	15237
917.491	15218
917.603	15211
917.715	15233
917.826	15256
917.938	15192
918.049	15070
918.161	15176
918.272	15294
918.384	15306
918.495	15195
918.606	15001
918.717	14902
918.828	15135
918.939	14986
919.05	14971
919.161	14979
919.272	14876
919.383	14804
919.494	14998
919.604	15199
919.715	14994
919.826	14876
919.936	14910
920.047	15077
920.157	14880
920.267	15093
920.378	14971
920.488	14929
920.598	15074
920.708	15131
920.818	15100
920.928	15085
921.038	15207
921.148	15188
921.258	14883
921.368	14735
921.477	14712
921.587	14667
921.697	14530
921.806	14636
921.916	14495
922.025	14324
922.134	14355
922.244	14199
922.353	14396
922.462	14328
922.571	14107
922.68	14035
922.789	13978
922.898	13936
923.007	13860
923.116	13986
923.224	13978
923.333	13871
923.442	13772
923.55	13837
923.659	13841
923.767	13826
923.876	13704
923.984	13822
924.092	13685
924.201	13750
924.309	13731
924.417	13670
924.525	13632
924.633	13613
924.741	14507
924.849	13362
924.956	13521
925.064	13460
925.172	13293
925.279	13324
925.387	13308
925.494	13308
925.602	13441
925.709	13350
925.816	13270
925.924	13266
926.031	13438
926.138	13312
926.245	13266
926.352	13091
926.459	13403
926.566	13308
926.673	13236
926.779	13015
926.886	12989
926.993	12920
927.099	13000
927.206	12890
927.312	12806
927.419	12966
927.525	12882
927.631	12932
927.737	12734
927.843	12734
927.95	12620
928.056	12669
928.162	12722
928.267	12757
928.373	13259
928.479	12764
928.585	12460
928.69	12696
928.796	12700
928.901	12604
929.007	12304
929.112	12506
929.218	12536
929.323	12426
929.428	12521
929.533	12631
929.638	12334
929.743	12369
929.848	12467
929.953	12388
930.058	12277
930.163	12136
930.267	12026
930.372	12201
930.477	12041
930.581	12292
930.685	12144
930.79	11996
930.894	11988
930.998	11950
931.103	12087
931.207	11847
931.311	11657
931.415	11589
931.519	11376
931.623	11410
