Data from test_V78500241_866.txt Node
Date: Fri Mar 25 15:47:48 CST 2022
User: usil
Spectrometer: V785-0024
Trigger mode: 0
Integration Time (sec): 4.000000E-1
Scans to average: 1
Nonlinearity correction enabled: false
Boxcar width: 0
Storing dark spectrum: false
XAxis mode: Wavelengths
Number of Pixels in Spectrum: 1024
>>>>>Begin Spectral Data<<<<<
801.071	27511
801.214	27405
801.356	27199
801.499	27180
801.641	26902
801.783	26921
801.926	27112
802.068	26994
802.211	26948
802.353	26975
802.496	26712
802.638	26682
802.78	26682
802.923	26648
803.065	26568
803.208	26636
803.35	26693
803.492	26667
803.635	26792
803.777	26746
803.919	26781
804.061	27062
804.204	26864
804.346	26720
804.488	26769
804.63	26644
804.773	26724
804.915	26872
805.057	26925
805.199	26796
805.341	26937
805.483	27005
805.626	26921
805.768	26944
805.91	26891
806.052	26914
806.194	26792
806.336	27108
806.478	27017
806.62	26868
806.762	26975
806.904	27195
807.046	27447
807.188	27340
807.33	27348
807.472	27408
807.614	27283
807.756	27336
807.898	27233
808.04	27294
808.182	27100
808.324	27211
808.465	27310
808.607	27416
808.749	27553
808.891	27603
809.033	27739
809.174	27641
809.316	27500
809.458	27576
809.6	27462
809.741	27709
809.883	27667
810.025	27736
810.166	27804
810.308	27903
810.45	27838
810.591	27698
810.733	27694
810.875	27492
811.016	27439
811.158	27618
811.299	27701
811.441	27774
811.582	27717
811.724	27561
811.865	27481
812.007	27629
812.148	27511
812.29	27671
812.431	27614
812.573	27736
812.714	28048
812.855	28109
812.997	28120
813.138	28306
813.279	28185
813.421	28128
813.562	28063
813.703	27922
813.845	27778
813.986	27553
814.127	27283
814.268	27252
814.41	27370
814.551	27169
814.692	27222
814.833	27085
814.974	27150
815.115	27150
815.256	27001
815.397	27051
815.539	27188
815.68	26960
815.821	26971
815.962	26971
816.103	27100
816.244	27055
816.385	26929
816.526	26777
816.666	26522
816.807	26511
816.948	26541
817.089	26724
817.23	26450
817.371	26473
817.512	26514
817.653	26609
817.793	26415
817.934	26621
818.075	26507
818.216	26568
818.356	26537
818.497	26442
818.638	26214
818.778	26229
818.919	26206
819.06	26484
819.2	26396
819.341	26484
819.481	26381
819.622	26594
819.762	26777
819.903	26735
820.043	26758
820.184	26606
820.324	26632
820.465	26545
820.605	26594
820.746	26598
820.886	26503
821.026	26659
821.167	26427
821.307	26594
821.447	26427
821.588	26423
821.728	26157
821.868	26134
822.008	26031
822.149	25978
822.289	25925
822.429	25715
822.569	25613
822.709	25635
822.849	25491
822.99	25506
823.13	25468
823.27	25422
823.41	25270
823.55	25194
823.69	25217
823.83	25392
823.97	25289
824.11	25103
824.25	25080
824.389	25156
824.529	25164
824.669	25118
824.809	25160
824.949	25042
825.089	25228
825.228	25141
825.368	24977
825.508	25015
825.648	24970
825.787	24966
825.927	24932
826.067	24989
826.206	24970
826.346	25019
826.485	25076
826.625	24981
826.765	25076
826.904	25012
827.044	24764
827.183	24852
827.323	24665
827.462	24681
827.601	24635
827.741	24642
827.88	24665
828.02	24707
828.159	24631
828.298	24787
828.437	24856
828.577	24566
828.716	24886
828.855	24593
828.994	24426
829.134	24369
829.273	24452
829.412	24407
829.551	24311
829.69	24445
829.829	24505
829.968	24429
830.107	24521
830.246	24437
830.385	24285
830.524	24292
830.663	24232
830.802	24125
830.941	23973
831.08	23923
831.219	24076
831.357	24155
831.496	24197
831.635	24030
831.774	23916
831.913	23824
832.051	23870
832.19	23668
832.329	23863
832.467	23707
832.606	23634
832.744	23600
832.883	23687
833.022	23691
833.16	23756
833.299	23733
833.437	23649
833.576	23627
833.714	23764
833.852	23726
833.991	23779
834.129	23661
834.267	23935
834.406	23680
834.544	23691
834.682	23779
834.821	23710
834.959	23802
835.097	23562
835.235	23714
835.373	23726
835.511	23767
835.65	23528
835.788	23600
835.926	23497
836.064	23387
836.202	23341
836.34	23570
836.478	23726
836.615	23596
836.753	23604
836.891	23657
837.029	23562
837.167	23376
837.305	23395
837.443	23444
837.58	23516
837.718	23455
837.856	23440
837.993	23322
838.131	23417
838.269	23284
838.406	23334
838.544	23220
838.681	23086
838.819	23067
838.956	22824
839.094	22904
839.231	22896
839.369	23052
839.506	23296
839.643	23010
839.781	22896
839.918	22828
840.055	22858
840.193	22942
840.33	22831
840.467	22755
840.604	22767
840.742	23010
840.879	22771
841.016	22786
841.153	22759
841.29	22934
841.427	22721
841.564	22805
841.701	22847
841.838	22710
841.975	22698
842.112	22717
842.249	22660
842.385	22531
842.522	22744
842.659	22550
842.796	22569
842.933	22588
843.069	22493
843.206	22436
843.343	22607
843.479	22561
843.616	22519
843.752	22402
843.889	22314
844.025	22489
844.162	22299
844.298	22497
844.435	22291
844.571	22169
844.708	22257
844.844	22459
844.98	22314
845.117	22512
845.253	22238
845.389	22200
845.525	22192
845.661	22150
845.798	21979
845.934	22086
846.07	22025
846.206	21972
846.342	22093
846.478	22051
846.614	21804
846.75	21690
846.886	21800
847.022	21903
847.158	21717
847.294	21880
847.429	21774
847.565	21819
847.701	22063
847.837	21576
847.972	21325
848.108	21599
848.244	21428
848.379	21412
848.515	21447
848.65	21405
848.786	21500
848.921	21504
849.057	21481
849.192	21408
849.328	21317
849.463	21397
849.598	21344
849.734	21195
849.869	21169
850.004	21146
850.14	21211
850.275	21135
850.41	21119
850.545	21077
850.68	21150
850.815	21032
850.95	21009
851.085	21302
851.22	21268
851.355	21176
851.49	21161
851.625	21188
851.76	21150
851.895	21047
852.03	21081
852.165	21066
852.299	21249
852.434	21214
852.569	21180
852.703	21180
852.838	21325
852.973	21192
853.107	21241
853.242	21017
853.376	21032
853.511	20845
853.645	20986
853.78	21024
853.914	20956
854.048	20895
854.183	20864
854.317	20944
854.451	21070
854.585	20872
854.72	21013
854.854	21009
854.988	20937
855.122	20948
855.256	20765
855.39	20967
855.524	21093
855.658	21024
855.792	21043
855.926	20979
856.06	21001
856.194	21119
856.327	21009
856.461	20876
856.595	20868
856.729	20883
856.862	21123
856.996	21028
857.13	21028
857.263	21005
857.397	21020
857.53	20906
857.664	20975
857.797	21036
857.931	21043
858.064	21005
858.197	21077
858.331	20918
858.464	20906
858.597	20815
858.731	20872
858.864	20960
858.997	20815
859.13	20982
859.263	20861
859.396	21028
859.529	20967
859.662	20963
859.795	20918
859.928	21058
860.061	21047
860.194	21249
860.327	21028
860.46	20910
860.592	21077
860.725	21135
860.858	21161
860.99	21070
861.123	20933
861.256	20819
861.388	20902
861.521	21462
861.653	20891
861.786	20899
861.918	20861
862.05	20887
862.183	20842
862.315	20864
862.447	20830
862.58	20857
862.712	20686
862.844	20697
862.976	20769
863.108	20727
863.24	21085
863.372	20651
863.504	20686
863.636	20667
863.768	20705
863.9	20659
864.032	20537
864.164	20769
864.296	20788
864.428	20796
864.559	20613
864.691	20868
864.823	20651
864.954	20659
865.086	20609
865.217	20545
865.349	20522
865.48	20552
865.612	20705
865.743	20670
865.875	20621
866.006	20564
866.137	20571
866.269	20560
866.4	20663
866.531	20431
866.662	20533
866.793	20552
866.924	20564
867.055	20579
867.186	20514
867.317	20442
867.448	20469
867.579	20450
867.71	20454
867.841	20423
867.972	20476
868.103	20522
868.233	20469
868.364	20488
868.495	20488
868.625	20693
868.756	20887
868.886	20670
869.017	20640
869.147	20902
869.278	20941
869.408	20758
869.539	20762
869.669	20788
869.799	20792
869.929	20853
870.06	20944
870.19	21058
870.32	21043
870.45	21074
870.58	21047
870.71	21279
870.84	21226
870.97	21093
871.1	21123
871.23	21420
871.36	21287
871.489	21321
871.619	21428
871.749	21405
871.879	21340
872.008	21557
872.138	21359
872.267	21374
872.397	21218
872.526	21260
872.656	21237
872.785	20937
872.915	21507
873.044	21340
873.173	21351
873.303	21428
873.432	21568
873.561	21496
873.69	21428
873.819	21180
873.948	21488
874.077	21378
874.206	21370
874.335	21408
874.464	21538
874.593	21564
874.722	21553
874.851	21656
874.979	21568
875.108	21625
875.237	21603
875.365	21439
875.494	21545
875.623	21770
875.751	21553
875.88	21652
876.008	21717
876.136	21819
876.265	22017
876.393	22223
876.521	22078
876.65	22032
876.778	21941
876.906	21930
877.034	21918
877.162	22051
877.29	21835
877.418	22036
877.546	21983
877.674	22074
877.802	21945
877.93	21930
878.058	21964
878.185	21804
878.313	21869
878.441	21823
878.568	21838
878.696	21884
878.824	22120
878.951	22044
879.079	22135
879.206	22287
879.333	22070
879.461	22040
879.588	22063
879.715	22090
879.842	22272
879.97	22109
880.097	21774
880.224	21903
880.351	21762
880.478	21816
880.605	21781
880.732	21816
880.859	21972
880.986	21831
881.112	21690
881.239	21694
881.366	21599
881.493	21462
881.619	21302
881.746	21363
881.872	21447
881.999	21355
882.125	21340
882.252	21317
882.378	21294
882.505	21500
882.631	21150
882.757	21096
882.883	21165
883.01	21135
883.136	20994
883.262	20918
883.388	20876
883.514	21119
883.64	21096
883.766	20998
883.892	20804
884.018	20902
884.143	21028
884.269	21123
884.395	20792
884.52	20663
884.646	20705
884.772	20727
884.897	20552
885.023	20663
885.148	20674
885.274	20914
885.399	20830
885.524	20636
885.65	20743
885.775	20758
885.9	20724
886.025	20811
886.15	20769
886.275	20651
886.4	20773
886.525	20689
886.65	20552
886.775	20499
886.9	20845
887.025	20815
887.149	20720
887.274	20533
887.399	20659
887.523	20412
887.648	20400
887.773	20355
887.897	20602
888.021	20560
888.146	20530
888.27	20568
888.395	20518
888.519	20609
888.643	20495
888.767	20419
888.891	20381
889.015	20233
889.139	20351
889.263	20347
889.387	20396
889.511	20480
889.635	20343
889.759	20278
889.883	20374
890.006	20343
890.13	20339
890.254	20096
890.377	20142
890.501	20119
890.624	19940
890.748	20084
890.871	19970
890.995	19883
891.118	19894
891.241	19833
891.364	19925
891.488	20107
891.611	20050
891.734	19928
891.857	19967
891.98	19894
892.103	19845
892.226	19887
892.349	19658
892.471	19635
892.594	19765
892.717	19708
892.839	19814
892.962	19833
893.085	19742
893.207	19772
893.33	19651
893.452	19818
893.575	19822
893.697	19807
893.819	19856
893.941	19967
894.064	19807
894.186	19738
894.308	19670
894.43	19826
894.552	19947
894.674	19879
894.796	19814
894.918	19807
895.04	19757
895.161	19852
895.283	19833
895.405	19582
895.526	19738
895.648	19803
895.769	19898
895.891	19902
896.012	19860
896.134	19708
896.255	19860
896.376	19750
896.498	19833
896.619	19780
896.74	19761
896.861	19837
896.982	20024
897.103	20225
897.224	20176
897.345	19951
897.466	19970
897.587	20062
897.708	20138
897.828	19967
897.949	19997
898.07	19772
898.19	19932
898.311	20069
898.431	19883
898.552	20012
898.672	20031
898.792	20035
898.913	20103
899.033	20024
899.153	19932
899.273	19712
899.393	19814
899.513	19849
899.633	19890
899.753	19811
899.873	19784
899.993	19811
900.113	19788
900.232	19677
900.352	19590
900.472	19670
900.591	19586
900.711	19590
900.83	19445
900.95	19540
901.069	19620
901.189	19464
901.308	19297
901.427	19099
901.546	19099
901.665	19183
901.784	19247
901.904	18966
902.023	18905
902.141	18749
902.26	18661
902.379	18711
902.498	18646
902.617	18703
902.735	18764
902.854	18665
902.973	18547
903.091	18391
903.21	18369
903.328	18407
903.446	18186
903.565	18121
903.683	18045
903.801	18091
903.919	18148
904.038	17996
904.156	17901
904.274	17977
904.392	17859
904.51	17935
904.627	17958
904.745	17878
904.863	17847
904.981	17821
905.098	17600
905.216	17638
905.334	17577
905.451	17646
905.569	17532
905.686	17672
905.803	17532
905.921	17410
906.038	17402
906.155	17379
906.272	17277
906.389	17391
906.506	17098
906.623	17178
906.74	17197
906.857	17014
906.974	17022
907.091	17277
907.208	17265
907.324	17136
907.441	16965
907.557	16843
907.674	16824
907.79	16801
907.907	16782
908.023	16839
908.139	16835
908.256	16877
908.372	16725
908.488	16702
908.604	16573
908.72	16558
908.836	16577
908.952	16577
909.068	16637
909.184	16679
909.3	16459
909.415	16569
909.531	16493
909.647	16394
909.762	16337
909.878	16200
909.993	16211
910.108	16280
910.224	16204
910.339	16314
910.454	16280
910.57	16067
910.685	16051
910.8	16257
910.915	16219
911.03	16021
911.145	15907
911.259	15953
911.374	15823
911.489	15842
911.604	15717
911.718	15698
911.833	15595
911.947	15511
912.062	15466
912.176	15751
912.291	15701
912.405	15553
912.519	15812
912.633	15869
912.748	15618
912.862	15561
912.976	15481
913.09	15260
913.204	15443
913.318	15424
913.431	15462
913.545	15458
913.659	15447
913.772	15389
913.886	15252
914	15207
914.113	15325
914.226	15317
914.34	15268
914.453	15199
914.566	15279
914.68	15169
914.793	15089
914.906	14948
915.019	14838
915.132	14804
915.245	14861
915.358	14982
915.47	14849
915.583	14777
915.696	15001
915.809	15020
915.921	14967
916.034	14819
916.146	14701
916.259	14750
916.371	14868
916.483	14777
916.595	14731
916.708	14670
916.82	14701
916.932	14640
917.044	14644
917.156	14602
917.268	14560
917.38	14571
917.491	14461
917.603	14552
917.715	14602
917.826	14518
917.938	14514
918.049	14400
918.161	14450
918.272	14575
918.384	14598
918.495	14431
918.606	14294
918.717	14180
918.828	14275
918.939	14301
919.05	14172
919.161	14237
919.272	14043
919.383	14119
919.494	14309
919.604	14507
919.715	14294
919.826	14225
919.936	14195
920.047	14328
920.157	14324
920.267	14514
920.378	14336
920.488	14271
920.598	14404
920.708	14579
920.818	14309
920.928	14415
921.038	14522
921.148	14514
921.258	14214
921.368	14187
921.477	14039
921.587	13974
921.697	13890
921.806	14001
921.916	13841
922.025	13757
922.134	13655
922.244	13613
922.353	13696
922.462	13476
922.571	13460
922.68	13343
922.789	13266
922.898	13293
923.007	13266
923.116	13251
923.224	13343
923.333	13270
923.442	13202
923.55	13110
923.659	13171
923.767	13095
923.876	13107
923.984	13126
924.092	13076
924.201	13061
924.309	13008
924.417	12993
924.525	12962
924.633	12932
924.741	13921
924.849	12798
924.956	12954
925.064	12772
925.172	12692
925.279	12623
925.387	12730
925.494	12772
925.602	12848
925.709	12738
925.816	12544
925.924	12650
926.031	12825
926.138	12768
926.245	12779
926.352	12574
926.459	12757
926.566	12768
926.673	12547
926.779	12498
926.886	12547
926.993	12266
927.099	12353
927.206	12277
927.312	12159
927.419	12300
927.525	12266
927.631	12308
927.737	12205
927.843	12186
927.95	11977
928.056	12171
928.162	12140
928.267	12224
928.373	12684
928.479	12171
928.585	11878
928.69	12064
928.796	12110
928.901	11946
929.007	11836
929.112	11950
929.218	11893
929.323	11878
929.428	11889
929.533	12003
929.638	11805
929.743	11832
929.848	11897
929.953	11805
930.058	11688
930.163	11528
930.267	11577
930.372	11657
930.477	11497
930.581	11756
930.685	11672
930.79	11433
930.894	11463
930.998	11414
931.103	11562
931.207	11246
931.311	11132
931.415	10999
931.519	10839
931.623	10850
