Data from test_V78500241_3522.txt Node
Date: Fri Mar 25 16:06:11 CST 2022
User: usil
Spectrometer: V785-0024
Trigger mode: 0
Integration Time (sec): 4.000000E-1
Scans to average: 1
Nonlinearity correction enabled: false
Boxcar width: 0
Storing dark spectrum: false
XAxis mode: Wavelengths
Number of Pixels in Spectrum: 1024
>>>>>Begin Spectral Data<<<<<
801.071	28965
801.214	28809
801.356	28626
801.499	28672
801.641	28436
801.783	28409
801.926	28561
802.068	28508
802.211	28508
802.353	28508
802.496	28215
802.638	28303
802.78	28268
802.923	28101
803.065	28120
803.208	28063
803.35	28249
803.492	28356
803.635	28588
803.777	28291
803.919	28599
804.061	28790
804.204	28413
804.346	28367
804.488	28284
804.63	28474
804.773	28596
804.915	28577
805.057	28744
805.199	28546
805.341	28523
805.483	28656
805.626	28615
805.768	28618
805.91	28687
806.052	28649
806.194	28500
806.336	28805
806.478	28618
806.62	28702
806.762	28778
806.904	28953
807.046	29174
807.188	29147
807.33	28995
807.472	29102
807.614	29136
807.756	29162
807.898	28965
808.04	28759
808.182	28812
808.324	28930
808.465	28972
808.607	29147
808.749	29318
808.891	29425
809.033	29516
809.174	29455
809.316	29368
809.458	29334
809.6	29353
809.741	29284
809.883	29474
810.025	29608
810.166	29570
810.308	29653
810.45	29668
810.591	29471
810.733	29478
810.875	29254
811.016	29200
811.158	29303
811.299	29589
811.441	29520
811.582	29433
811.724	29372
811.865	29353
812.007	29448
812.148	29433
812.29	29478
812.431	29535
812.573	29657
812.714	29722
812.855	29927
812.997	29965
813.138	30106
813.279	30026
813.421	29809
813.562	29893
813.703	29551
813.845	29615
813.986	29235
814.127	29067
814.268	29132
814.41	29052
814.551	29105
814.692	29185
814.833	29044
814.974	29056
815.115	29178
815.256	29140
815.397	28847
815.539	28934
815.68	28968
815.821	28759
815.962	29067
816.103	28934
816.244	28767
816.385	28767
816.526	28858
816.666	28394
816.807	28356
816.948	28561
817.089	28481
817.23	28573
817.371	28428
817.512	28318
817.653	28382
817.793	28314
817.934	28409
818.075	28405
818.216	28542
818.356	28390
818.497	28211
818.638	28158
818.778	28147
818.919	28196
819.06	28154
819.2	28303
819.341	28352
819.481	28337
819.622	28542
819.762	28733
819.903	28725
820.043	28618
820.184	28535
820.324	28493
820.465	28615
820.605	28459
820.746	28527
820.886	28436
821.026	28531
821.167	28516
821.307	28538
821.447	28360
821.588	28344
821.728	28280
821.868	27991
822.008	27949
822.149	27941
822.289	27899
822.429	27663
822.569	27633
822.709	27663
822.849	27447
822.99	27462
823.13	27424
823.27	27317
823.41	27108
823.55	27039
823.69	27176
823.83	27188
823.97	27081
824.11	27051
824.25	27020
824.389	26921
824.529	27268
824.669	27112
824.809	27233
824.949	27135
825.089	27123
825.228	27039
825.368	26952
825.508	26876
825.648	27001
825.787	26948
825.927	27062
826.067	26921
826.206	26956
826.346	27017
826.485	27043
826.625	27013
826.765	27055
826.904	27066
827.044	26667
827.183	26648
827.323	26701
827.462	26629
827.601	26613
827.741	26708
827.88	26796
828.02	26640
828.159	26644
828.298	26663
828.437	26842
828.577	26636
828.716	26785
828.855	26309
828.994	26183
829.134	26400
829.273	26343
829.412	26317
829.551	26305
829.69	26294
829.829	26385
829.968	26533
830.107	26298
830.246	26305
830.385	26218
830.524	26218
830.663	26176
830.802	26039
830.941	25936
831.08	25883
831.219	26100
831.357	25906
831.496	26187
831.635	25970
831.774	26050
831.913	25841
832.051	25795
832.19	25727
832.329	25685
832.467	25681
832.606	25556
832.744	25499
832.883	25586
833.022	25666
833.16	25567
833.299	25578
833.437	25765
833.576	25696
833.714	25655
833.852	25708
833.991	25765
834.129	25708
834.267	25830
834.406	25753
834.544	25734
834.682	25655
834.821	25704
834.959	25917
835.097	25567
835.235	25750
835.373	25696
835.511	25696
835.65	25518
835.788	25613
835.926	25373
836.064	25206
836.202	25308
836.34	25521
836.478	25693
836.615	25563
836.753	25556
836.891	25563
837.029	25476
837.167	25548
837.305	25419
837.443	25384
837.58	25377
837.718	25384
837.856	25339
837.993	25316
838.131	25362
838.269	25065
838.406	25202
838.544	25019
838.681	25088
838.819	24939
838.956	24821
839.094	24916
839.231	24886
839.369	25000
839.506	25114
839.643	25050
839.781	24916
839.918	24719
840.055	24768
840.193	24715
840.33	24681
840.467	24536
840.604	24608
840.742	24852
840.879	24563
841.016	24719
841.153	24578
841.29	24582
841.427	24719
841.564	24623
841.701	24711
841.838	24631
841.975	24544
842.112	24544
842.249	24452
842.385	24498
842.522	24627
842.659	24486
842.796	24426
842.933	24418
843.069	24448
843.206	24437
843.343	24391
843.479	24361
843.616	24353
843.752	24258
843.889	24281
844.025	24467
844.162	24228
844.298	24300
844.435	24152
844.571	24262
844.708	24224
844.844	24308
844.98	24350
845.117	24334
845.253	24064
845.389	24079
845.525	24087
845.661	24034
845.798	23870
845.934	23996
846.07	23954
846.206	23984
846.342	24049
846.478	24038
846.614	23756
846.75	23642
846.886	23722
847.022	23863
847.158	23646
847.294	23596
847.429	23649
847.565	23649
847.701	23847
847.837	23440
847.972	23337
848.108	23383
848.244	23539
848.379	23387
848.515	23299
848.65	23174
848.786	23379
848.921	23284
849.057	23311
849.192	23421
849.328	23277
849.463	23128
849.598	23204
849.734	23231
849.869	23117
850.004	22953
850.14	23060
850.275	23025
850.41	22866
850.545	23003
850.68	22911
850.815	23132
850.95	22961
851.085	23360
851.22	23041
851.355	22987
851.49	23064
851.625	22968
851.76	23037
851.895	23018
852.03	22915
852.165	22987
852.299	23140
852.434	23014
852.569	23025
852.703	22968
852.838	23033
852.973	23193
853.107	23166
853.242	22915
853.376	22930
853.511	22641
853.645	22679
853.78	22919
853.914	22820
854.048	22900
854.183	22957
854.317	22839
854.451	23003
854.585	22771
854.72	22778
854.854	22881
854.988	22915
855.122	22809
855.256	22637
855.39	22816
855.524	22881
855.658	22995
855.792	22805
855.926	22923
856.06	22847
856.194	23029
856.327	22717
856.461	22816
856.595	22782
856.729	22831
856.862	23033
856.996	22881
857.13	23022
857.263	22908
857.397	22942
857.53	22812
857.664	22900
857.797	22854
857.931	23006
858.064	22858
858.197	22942
858.331	22774
858.464	22816
858.597	22778
858.731	22850
858.864	22831
858.997	22938
859.13	22904
859.263	22862
859.396	23041
859.529	22885
859.662	22877
859.795	22885
859.928	22843
860.061	22957
860.194	22987
860.327	22934
860.46	22809
860.592	22919
860.725	22923
860.858	22934
860.99	22763
861.123	22672
861.256	22835
861.388	22919
861.521	23684
861.653	22721
861.786	22702
861.918	22546
862.05	22641
862.183	22729
862.315	22771
862.447	22847
862.58	22782
862.712	22550
862.844	22481
862.976	22660
863.108	22603
863.24	22850
863.372	22538
863.504	22603
863.636	22683
863.768	22527
863.9	22596
864.032	22379
864.164	22516
864.296	22538
864.428	22618
864.559	22641
864.691	22664
864.823	22634
864.954	22512
865.086	22474
865.217	22443
865.349	22409
865.48	22394
865.612	22413
865.743	22512
865.875	22512
866.006	22451
866.137	22367
866.269	22470
866.4	22390
866.531	22398
866.662	22188
866.793	22375
866.924	22421
867.055	22253
867.186	22497
867.317	22382
867.448	22257
867.579	22371
867.71	22143
867.841	22299
867.972	22314
868.103	22291
868.233	22371
868.364	22375
868.495	22466
868.625	22584
868.756	22687
868.886	22455
869.017	22618
869.147	22694
869.278	22668
869.408	22599
869.539	22550
869.669	22660
869.799	22649
869.929	22790
870.06	22672
870.19	22999
870.32	22881
870.45	22774
870.58	22869
870.71	23064
870.84	23086
870.97	23067
871.1	23003
871.23	23212
871.36	23197
871.489	23250
871.619	23273
871.749	23048
871.879	23159
872.008	23345
872.138	23185
872.267	23254
872.397	23060
872.526	22995
872.656	23041
872.785	23067
872.915	23204
873.044	23235
873.173	23288
873.303	23197
873.432	23269
873.561	23318
873.69	23235
873.819	23185
873.948	23239
874.077	23193
874.206	23064
874.335	23292
874.464	23372
874.593	23429
874.722	23459
874.851	23444
874.979	23467
875.108	23501
875.237	23425
875.365	23307
875.494	23410
875.623	23615
875.751	23455
875.88	23459
876.008	23615
876.136	23589
876.265	23832
876.393	23828
876.521	23923
876.65	23969
876.778	23843
876.906	23920
877.034	23790
877.162	23672
877.29	23748
877.418	23878
877.546	23863
877.674	23764
877.802	23802
877.93	23710
878.058	23699
878.185	23714
878.313	23771
878.441	23615
878.568	23722
878.696	23642
878.824	23809
878.951	23828
879.079	24064
879.206	24015
879.333	23950
879.461	23752
879.588	23821
879.715	23992
879.842	24060
879.97	23729
880.097	23505
880.224	23547
880.351	23710
880.478	23684
880.605	23577
880.732	23455
880.859	23878
880.986	23653
881.112	23604
881.239	23425
881.366	23315
881.493	23151
881.619	23117
881.746	23178
881.872	23258
881.999	23128
882.125	23022
882.252	23220
882.378	23075
882.505	23269
882.631	22938
882.757	22869
882.883	22915
883.01	22812
883.136	22881
883.262	22706
883.388	22645
883.514	22847
883.64	22923
883.766	22729
883.892	22455
884.018	22626
884.143	22755
884.269	22847
884.395	22409
884.52	22276
884.646	22523
884.772	22432
884.897	22341
885.023	22451
885.148	22561
885.274	22592
885.399	22531
885.524	22424
885.65	22519
885.775	22508
885.9	22424
886.025	22588
886.15	22550
886.275	22546
886.4	22421
886.525	22409
886.65	22390
886.775	22386
886.9	22489
887.025	22538
887.149	22341
887.274	22280
887.399	22242
887.523	22204
887.648	22173
887.773	22135
887.897	22295
888.021	22196
888.146	22112
888.27	22246
888.395	22234
888.519	22162
888.643	22306
888.767	22226
888.891	22078
889.015	22051
889.139	22044
889.263	22063
889.387	22029
889.511	22223
889.635	22059
889.759	21949
889.883	21998
890.006	22021
890.13	22044
890.254	21835
890.377	21846
890.501	21717
890.624	21724
890.748	21747
890.871	21606
890.995	21435
891.118	21462
891.241	21500
891.364	21492
891.488	21660
891.611	21625
891.734	21561
891.857	21591
891.98	21466
892.103	21564
892.226	21538
892.349	21420
892.471	21272
892.594	21500
892.717	21515
892.839	21317
892.962	21321
893.085	21507
893.207	21477
893.33	21317
893.452	21348
893.575	21393
893.697	21420
893.819	21473
893.941	21637
894.064	21580
894.186	21370
894.308	21272
894.43	21348
894.552	21504
894.674	21492
894.796	21203
894.918	21332
895.04	21336
895.161	21408
895.283	21462
895.405	21298
895.526	21374
895.648	21416
895.769	21435
895.891	21408
896.012	21416
896.134	21412
896.255	21488
896.376	21272
896.498	21359
896.619	21420
896.74	21287
896.861	21523
896.982	21720
897.103	21827
897.224	21644
897.345	21583
897.466	21618
897.587	21618
897.708	21675
897.828	21568
897.949	21481
898.07	21317
898.19	21466
898.311	21633
898.431	21519
898.552	21568
898.672	21663
898.792	21667
898.913	21580
899.033	21542
899.153	21287
899.273	21283
899.393	21401
899.513	21431
899.633	21344
899.753	21218
899.873	21252
899.993	21306
900.113	21150
900.232	21218
900.352	21157
900.472	21154
900.591	21009
900.711	21066
900.83	21062
900.95	21211
901.069	21222
901.189	20838
901.308	20724
901.427	20587
901.546	20644
901.665	20564
901.784	20689
901.904	20511
902.023	20404
902.141	20229
902.26	20183
902.379	20271
902.498	20145
902.617	20122
902.735	20221
902.854	20199
902.973	19967
903.091	19788
903.21	19791
903.328	19811
903.446	19620
903.565	19449
903.683	19712
903.801	19518
903.919	19616
904.038	19521
904.156	19362
904.274	19411
904.392	19270
904.51	19339
904.627	19377
904.745	19343
904.863	19312
904.981	19175
905.098	18886
905.216	18996
905.334	19072
905.451	19050
905.569	19027
905.686	19042
905.803	18935
905.921	18806
906.038	18726
906.155	18802
906.272	18608
906.389	18719
906.506	18585
906.623	18517
906.74	18486
906.857	18407
906.974	18342
907.091	18448
907.208	18601
907.324	18604
907.441	18456
907.557	18277
907.674	18167
907.79	18273
907.907	18133
908.023	18239
908.139	18125
908.256	18232
908.372	18114
908.488	18148
908.604	17935
908.72	17828
908.836	17961
908.952	17866
909.068	17920
909.184	18091
909.3	17897
909.415	17874
909.531	17863
909.647	17684
909.762	17672
909.878	17649
909.993	17756
910.108	17551
910.224	17535
910.339	17592
910.454	17486
910.57	17417
910.685	17208
910.8	17512
910.915	17638
911.03	17474
911.145	17189
911.259	17166
911.374	17303
911.489	17086
911.604	17132
911.718	16911
911.833	16919
911.947	16930
912.062	16782
912.176	17006
912.291	17014
912.405	17067
912.519	17079
912.633	17067
912.748	16927
912.862	16927
912.976	16835
913.09	16675
913.204	16721
913.318	16778
913.431	16839
913.545	16820
913.659	16908
913.772	16645
913.886	16611
914	16596
914.113	16637
914.226	16656
914.34	16580
914.453	16512
914.566	16531
914.68	16432
914.793	16478
914.906	16226
915.019	16055
915.132	16082
915.245	16162
915.358	16116
915.47	16166
915.583	16040
915.696	16120
915.809	16219
915.921	16135
916.034	15960
916.146	16048
916.259	16017
916.371	16010
916.483	16029
916.595	15884
916.708	15907
916.82	15918
916.932	15918
917.044	15812
917.156	15812
917.268	15762
917.38	15800
917.491	15709
917.603	15762
917.715	15778
917.826	15793
917.938	15656
918.049	15595
918.161	15622
918.272	15747
918.384	15717
918.495	15717
918.606	15485
918.717	15447
918.828	15473
918.939	15614
919.05	15355
919.161	15272
919.272	15294
919.383	15329
919.494	15538
919.604	15584
919.715	15386
919.826	15355
919.936	15428
920.047	15515
920.157	15450
920.267	15580
920.378	15393
920.488	15378
920.598	15469
920.708	15705
920.818	15545
920.928	15496
921.038	15686
921.148	15644
921.258	15431
921.368	15298
921.477	15165
921.587	14990
921.697	15055
921.806	15157
921.916	14975
922.025	14880
922.134	14655
922.244	14716
922.353	14765
922.462	14549
922.571	14560
922.68	14495
922.789	14366
922.898	14385
923.007	14313
923.116	14404
923.224	14374
923.333	14374
923.442	14256
923.55	14248
923.659	14309
923.767	14214
923.876	14214
923.984	14248
924.092	14084
924.201	14218
924.309	14142
924.417	14081
924.525	14005
924.633	13986
924.741	14982
924.849	13807
924.956	13978
925.064	13852
925.172	13719
925.279	13776
925.387	13693
925.494	13700
925.602	13852
925.709	13795
925.816	13586
925.924	13643
926.031	13814
926.138	13628
926.245	13742
926.352	13586
926.459	13681
926.566	13807
926.673	13510
926.779	13514
926.886	13472
926.993	13320
927.099	13335
927.206	13278
927.312	13213
927.419	13369
927.525	13331
927.631	13331
927.737	13164
927.843	13129
927.95	13133
928.056	13149
928.162	13095
928.267	13141
928.373	13731
928.479	13217
928.585	12966
928.69	13031
928.796	13149
928.901	12932
929.007	12981
929.112	12890
929.218	12852
929.323	12734
929.428	12772
929.533	12871
929.638	12776
929.743	12715
929.848	12825
929.953	12798
930.058	12483
930.163	12498
930.267	12604
930.372	12684
930.477	12342
930.581	12646
930.685	12471
930.79	12357
930.894	12448
930.998	12311
931.103	12426
931.207	12121
931.311	11946
931.415	11912
931.519	11707
931.623	11672
