Data from test_V78500241_1197.txt Node
Date: Fri Mar 25 15:50:05 CST 2022
User: usil
Spectrometer: V785-0024
Trigger mode: 0
Integration Time (sec): 4.000000E-1
Scans to average: 1
Nonlinearity correction enabled: false
Boxcar width: 0
Storing dark spectrum: false
XAxis mode: Wavelengths
Number of Pixels in Spectrum: 1024
>>>>>Begin Spectral Data<<<<<
801.071	28691
801.214	28596
801.356	28470
801.499	28341
801.641	28280
801.783	28265
801.926	28295
802.068	28249
802.211	28116
802.353	27956
802.496	27899
802.638	27953
802.78	27838
802.923	27797
803.065	27705
803.208	27808
803.35	27888
803.492	28074
803.635	28097
803.777	27903
803.919	28162
804.061	28405
804.204	28211
804.346	27941
804.488	27953
804.63	28185
804.773	28013
804.915	28017
805.057	28226
805.199	28173
805.341	28242
805.483	28265
805.626	28367
805.768	28177
805.91	28306
806.052	28371
806.194	28226
806.336	28508
806.478	28234
806.62	28200
806.762	28329
806.904	28573
807.046	28881
807.188	28698
807.33	28793
807.472	28790
807.614	28702
807.756	28622
807.898	28470
808.04	28459
808.182	28546
808.324	28656
808.465	28710
808.607	28782
808.749	28972
808.891	28919
809.033	29121
809.174	29117
809.316	28919
809.458	28961
809.6	29041
809.741	29178
809.883	29212
810.025	29307
810.166	29360
810.308	29246
810.45	29231
810.591	29090
810.733	28987
810.875	28908
811.016	28847
811.158	28824
811.299	29086
811.441	29155
811.582	29121
811.724	28980
811.865	28869
812.007	28995
812.148	28961
812.29	29003
812.431	29159
812.573	29284
812.714	29452
812.855	29436
812.997	29577
813.138	29874
813.279	29646
813.421	29467
813.562	29543
813.703	29433
813.845	29250
813.986	29010
814.127	28755
814.268	28763
814.41	28881
814.551	28786
814.692	28816
814.833	28565
814.974	28683
815.115	28729
815.256	28542
815.397	28622
815.539	28497
815.68	28519
815.821	28447
815.962	28523
816.103	28523
816.244	28379
816.385	28211
816.526	28295
816.666	28013
816.807	28154
816.948	28059
817.089	28215
817.23	28097
817.371	28067
817.512	28025
817.653	28002
817.793	27907
817.934	28063
818.075	28082
818.216	27998
818.356	27964
818.497	27903
818.638	27743
818.778	27705
818.919	27873
819.06	27922
819.2	27926
819.341	27918
819.481	28139
819.622	28230
819.762	28497
819.903	28424
820.043	28230
820.184	28143
820.324	28147
820.465	28177
820.605	28188
820.746	28044
820.886	27899
821.026	28299
821.167	28101
821.307	28116
821.447	28025
821.588	27956
821.728	27926
821.868	27724
822.008	27477
822.149	27526
822.289	27519
822.429	27233
822.569	27256
822.709	27150
822.849	27108
822.99	27131
823.13	26963
823.27	27051
823.41	26773
823.55	26762
823.69	26807
823.83	26746
823.97	26788
824.11	26606
824.25	26762
824.389	26689
824.529	26746
824.669	26724
824.809	26781
824.949	26792
825.089	26773
825.228	26648
825.368	26507
825.508	26476
825.648	26587
825.787	26564
825.927	26533
826.067	26484
826.206	26488
826.346	26617
826.485	26674
826.625	26518
826.765	26746
826.904	26526
827.044	26343
827.183	26457
827.323	26263
827.462	26434
827.601	26309
827.741	26157
827.88	26313
828.02	26195
828.159	26168
828.298	26317
828.437	26328
828.577	26176
828.716	26290
828.855	26214
828.994	26016
829.134	26020
829.273	25936
829.412	26130
829.551	25871
829.69	26008
829.829	26145
829.968	26024
830.107	25951
830.246	25944
830.385	25871
830.524	25704
830.663	25788
830.802	25662
830.941	25601
831.08	25438
831.219	25578
831.357	25613
831.496	25696
831.635	25518
831.774	25445
831.913	25518
832.051	25411
832.19	25430
832.329	25403
832.467	25179
832.606	25244
832.744	25202
832.883	25251
833.022	25103
833.16	25236
833.299	25297
833.437	25312
833.576	25362
833.714	25343
833.852	25392
833.991	25487
834.129	25392
834.267	25407
834.406	25346
834.544	25426
834.682	25388
834.821	25270
834.959	25529
835.097	25145
835.235	25369
835.373	25244
835.511	25240
835.65	25213
835.788	25156
835.926	25080
836.064	24837
836.202	24954
836.34	25202
836.478	25236
836.615	24977
836.753	25133
836.891	25213
837.029	25175
837.167	25031
837.305	25023
837.443	25107
837.58	25015
837.718	25031
837.856	25012
837.993	24932
838.131	24856
838.269	24806
838.406	24745
838.544	24779
838.681	24589
838.819	24494
838.956	24452
839.094	24502
839.231	24486
839.369	24597
839.506	24741
839.643	24646
839.781	24498
839.918	24380
840.055	24391
840.193	24464
840.33	24521
840.467	24429
840.604	24311
840.742	24536
840.879	24171
841.016	24224
841.153	24338
841.29	24467
841.427	24369
841.564	24353
841.701	24350
841.838	24194
841.975	24205
842.112	24273
842.249	24167
842.385	24117
842.522	24213
842.659	24235
842.796	23931
842.933	24072
843.069	24144
843.206	24114
843.343	24171
843.479	24083
843.616	24125
843.752	23855
843.889	23885
844.025	24022
844.162	23946
844.298	23969
844.435	23901
844.571	23764
844.708	23817
844.844	24095
844.98	24007
845.117	23954
845.253	23855
845.389	23748
845.525	23813
845.661	23752
845.798	23604
845.934	23665
846.07	23600
846.206	23756
846.342	23733
846.478	23596
846.614	23421
846.75	23368
846.886	23322
847.022	23433
847.158	23410
847.294	23406
847.429	23414
847.565	23341
847.701	23531
847.837	23075
847.972	23041
848.108	23212
848.244	23090
848.379	22862
848.515	22953
848.65	22984
848.786	22896
848.921	22961
849.057	23022
849.192	22957
849.328	22843
849.463	22793
849.598	22900
849.734	22736
849.869	22877
850.004	22603
850.14	22736
850.275	22713
850.41	22584
850.545	22599
850.68	22561
850.815	22752
850.95	22679
851.085	22900
851.22	22835
851.355	22675
851.49	22740
851.625	22599
851.76	22489
851.895	22550
852.03	22485
852.165	22588
852.299	22736
852.434	22744
852.569	22717
852.703	22691
852.838	22706
852.973	22911
853.107	22778
853.242	22557
853.376	22535
853.511	22318
853.645	22417
853.78	22588
853.914	22470
854.048	22367
854.183	22485
854.317	22516
854.451	22630
854.585	22493
854.72	22462
854.854	22649
854.988	22421
855.122	22379
855.256	22310
855.39	22363
855.524	22580
855.658	22561
855.792	22390
855.926	22512
856.06	22557
856.194	22675
856.327	22402
856.461	22394
856.595	22379
856.729	22459
856.862	22538
856.996	22500
857.13	22500
857.263	22523
857.397	22466
857.53	22622
857.664	22474
857.797	22577
857.931	22687
858.064	22462
858.197	22679
858.331	22489
858.464	22432
858.597	22344
858.731	22462
858.864	22344
858.997	22405
859.13	22459
859.263	22428
859.396	22577
859.529	22371
859.662	22474
859.795	22333
859.928	22512
860.061	22577
860.194	22733
860.327	22516
860.46	22512
860.592	22573
860.725	22679
860.858	22577
860.99	22341
861.123	22478
861.256	22443
861.388	22398
861.521	23113
861.653	22413
861.786	22310
861.918	22363
862.05	22287
862.183	22325
862.315	22447
862.447	22443
862.58	22497
862.712	22265
862.844	22070
862.976	22177
863.108	22322
863.24	22805
863.372	22116
863.504	22093
863.636	22059
863.768	22268
863.9	22196
864.032	22185
864.164	22105
864.296	22185
864.428	22177
864.559	22280
864.691	22207
864.823	22150
864.954	22154
865.086	22306
865.217	22196
865.349	21972
865.48	22135
865.612	22090
865.743	22150
865.875	22116
866.006	22021
866.137	22101
866.269	22124
866.4	21968
866.531	21960
866.662	22006
866.793	22074
866.924	21979
867.055	21972
867.186	22002
867.317	21918
867.448	21835
867.579	21972
867.71	21808
867.841	21793
867.972	22002
868.103	21911
868.233	21983
868.364	22021
868.495	22226
868.625	22268
868.756	22265
868.886	22196
869.017	22204
869.147	22276
869.278	22276
869.408	22314
869.539	22215
869.669	22341
869.799	22314
869.929	22493
870.06	22344
870.19	22466
870.32	22538
870.45	22554
870.58	22573
870.71	22767
870.84	22641
870.97	22687
871.1	22622
871.23	22801
871.36	22858
871.489	22592
871.619	22805
871.749	22854
871.879	22854
872.008	23037
872.138	22873
872.267	22778
872.397	22725
872.526	22679
872.656	22653
872.785	22653
872.915	22923
873.044	22889
873.173	22885
873.303	22820
873.432	22968
873.561	22877
873.69	22976
873.819	22896
873.948	22911
874.077	22816
874.206	22816
874.335	22847
874.464	22900
874.593	23010
874.722	22972
874.851	23083
874.979	23124
875.108	22957
875.237	23064
875.365	22881
875.494	22968
875.623	23044
875.751	22953
875.88	23048
876.008	23105
876.136	23136
876.265	23474
876.393	23630
876.521	23539
876.65	23493
876.778	23402
876.906	23467
877.034	23402
877.162	23501
877.29	23303
877.418	23280
877.546	23448
877.674	23341
877.802	23387
877.93	23395
878.058	23315
878.185	23231
878.313	23429
878.441	23303
878.568	23258
878.696	23341
878.824	23410
878.951	23360
879.079	23566
879.206	23581
879.333	23543
879.461	23474
879.588	23425
879.715	23493
879.842	23779
879.97	23596
880.097	23166
880.224	23242
880.351	23303
880.478	23284
880.605	23208
880.732	23166
880.859	23425
880.986	23208
881.112	23189
881.239	23033
881.366	22904
881.493	22923
881.619	22717
881.746	22847
881.872	22748
881.999	22820
882.125	22607
882.252	22748
882.378	22725
882.505	22904
882.631	22668
882.757	22485
882.883	22634
883.01	22436
883.136	22348
883.262	22367
883.388	22299
883.514	22527
883.64	22485
883.766	22443
883.892	22265
884.018	22261
884.143	22344
884.269	22459
884.395	22128
884.52	22150
884.646	22055
884.772	22013
884.897	21953
885.023	22082
885.148	22128
885.274	22207
885.399	22105
885.524	21972
885.65	22120
885.775	22021
885.9	22112
886.025	22124
886.15	21949
886.275	22116
886.4	21964
886.525	22040
886.65	21975
886.775	21934
886.9	22200
887.025	22284
887.149	22112
887.274	21854
887.399	21850
887.523	21838
887.648	21850
887.773	21789
887.897	21907
888.021	21835
888.146	21785
888.27	22040
888.395	22051
888.519	21800
888.643	21846
888.767	21835
888.891	21762
889.015	21622
889.139	21743
889.263	21515
889.387	21739
889.511	21873
889.635	21690
889.759	21538
889.883	21542
890.006	21671
890.13	21720
890.254	21690
890.377	21568
890.501	21359
890.624	21344
890.748	21564
890.871	21245
890.995	21051
891.118	21127
891.241	21150
891.364	21188
891.488	21313
891.611	21283
891.734	21123
891.857	21275
891.98	21176
892.103	21260
892.226	21150
892.349	21135
892.471	21009
892.594	21077
892.717	21085
892.839	21032
892.962	21112
893.085	21058
893.207	21127
893.33	20975
893.452	21081
893.575	21192
893.697	21081
893.819	21226
893.941	21207
894.064	21249
894.186	21055
894.308	21070
894.43	21150
894.552	21207
894.674	21188
894.796	20990
894.918	21093
895.04	20986
895.161	21028
895.283	21089
895.405	21009
895.526	21036
895.648	20929
895.769	21055
895.891	21131
896.012	21161
896.134	21116
896.255	21043
896.376	21058
896.498	20944
896.619	21081
896.74	21020
896.861	20986
896.982	21241
897.103	21325
897.224	21264
897.345	21264
897.466	21195
897.587	21180
897.708	21367
897.828	21226
897.949	21222
898.07	21085
898.19	21176
898.311	21184
898.431	21161
898.552	21127
898.672	21275
898.792	21325
898.913	21298
899.033	21127
899.153	21036
899.273	20979
899.393	20975
899.513	21051
899.633	20952
899.753	20944
899.873	20838
899.993	21085
900.113	20819
900.232	20834
900.352	20906
900.472	20826
900.591	20674
900.711	20727
900.83	20617
900.95	20773
901.069	20758
901.189	20568
901.308	20408
901.427	20252
901.546	20332
901.665	20427
901.784	20332
901.904	20176
902.023	20161
902.141	19928
902.26	19868
902.379	19890
902.498	19613
902.617	19830
902.735	19913
902.854	19731
902.973	19670
903.091	19590
903.21	19571
903.328	19426
903.446	19377
903.565	19274
903.683	19320
903.801	19118
903.919	19270
904.038	19133
904.156	18996
904.274	19110
904.392	19023
904.51	19004
904.627	19004
904.745	19133
904.863	19122
904.981	18707
905.098	18684
905.216	18719
905.334	18795
905.451	18753
905.569	18593
905.686	18715
905.803	18764
905.921	18521
906.038	18585
906.155	18433
906.272	18445
906.389	18350
906.506	18167
906.623	18228
906.74	18178
906.857	18091
906.974	18159
907.091	18235
907.208	18346
907.324	18171
907.441	18026
907.557	17904
907.674	17999
907.79	17859
907.907	17847
908.023	18015
908.139	18015
908.256	17920
908.372	17710
908.488	17741
908.604	17634
908.72	17592
908.836	17790
908.952	17573
909.068	17600
909.184	17760
909.3	17680
909.415	17657
909.531	17611
909.647	17436
909.762	17376
909.878	17318
909.993	17334
910.108	17421
910.224	17212
910.339	17356
910.454	17189
910.57	17113
910.685	17109
910.8	17429
910.915	17258
911.03	17056
911.145	16850
911.259	16946
911.374	16911
911.489	16824
911.604	16744
911.718	16596
911.833	16592
911.947	16550
912.062	16531
912.176	16698
912.291	16641
912.405	16573
912.519	16873
912.633	16797
912.748	16782
912.862	16653
912.976	16360
913.09	16360
913.204	16341
913.318	16500
913.431	16535
913.545	16531
913.659	16497
913.772	16402
913.886	16344
914	16242
914.113	16299
914.226	16363
914.34	16356
914.453	16131
914.566	16253
914.68	16188
914.793	16162
914.906	15827
915.019	15804
915.132	15751
915.245	15789
915.358	15812
915.47	15892
915.583	15842
915.696	15766
915.809	16021
915.921	16010
916.034	15831
916.146	15728
916.259	15717
916.371	15823
916.483	15751
916.595	15667
916.708	15759
916.82	15705
916.932	15568
917.044	15629
917.156	15660
917.268	15618
917.38	15492
917.491	15469
917.603	15420
917.715	15485
917.826	15511
917.938	15279
918.049	15218
918.161	15355
918.272	15538
918.384	15439
918.495	15302
918.606	15302
918.717	15176
918.828	15245
918.939	15298
919.05	15119
919.161	15146
919.272	15036
919.383	14963
919.494	15378
919.604	15382
919.715	15291
919.826	15001
919.936	15116
920.047	15165
920.157	15169
920.267	15325
920.378	15100
920.488	15066
920.598	15329
920.708	15477
920.818	15401
920.928	15135
921.038	15469
921.148	15351
921.258	15104
921.368	14990
921.477	14902
921.587	14925
921.697	14754
921.806	14902
921.916	14693
922.025	14552
922.134	14590
922.244	14492
922.353	14511
922.462	14454
922.571	14267
922.68	14233
922.789	14214
922.898	14252
923.007	14107
923.116	14183
923.224	14164
923.333	14058
923.442	14008
923.55	13951
923.659	13978
923.767	14084
923.876	13902
923.984	13986
924.092	13852
924.201	13967
924.309	13875
924.417	13974
924.525	13799
924.633	13852
924.741	14583
924.849	13556
924.956	13658
925.064	13639
925.172	13582
925.279	13449
925.387	13510
925.494	13491
925.602	13636
925.709	13616
925.816	13358
925.924	13384
926.031	13586
926.138	13445
926.245	13548
926.352	13438
926.459	13483
926.566	13567
926.673	13343
926.779	13217
926.886	13221
926.993	13152
927.099	13061
927.206	12970
927.312	12981
927.419	13103
927.525	13076
927.631	13072
927.737	12996
927.843	12939
927.95	12837
928.056	12871
928.162	12871
928.267	12897
928.373	13495
928.479	13019
928.585	12726
928.69	12920
928.796	12844
928.901	12585
929.007	12585
929.112	12722
929.218	12810
929.323	12654
929.428	12608
929.533	12681
929.638	12597
929.743	12509
929.848	12559
929.953	12521
930.058	12445
930.163	12247
930.267	12266
930.372	12391
930.477	12350
930.581	12460
930.685	12327
930.79	12125
930.894	12201
930.998	12095
931.103	12216
931.207	11859
931.311	11798
931.415	11748
931.519	11512
931.623	11516
