Data from test_V78500241_1147.txt Node
Date: Fri Mar 25 15:49:44 CST 2022
User: usil
Spectrometer: V785-0024
Trigger mode: 0
Integration Time (sec): 4.000000E-1
Scans to average: 1
Nonlinearity correction enabled: false
Boxcar width: 0
Storing dark spectrum: false
XAxis mode: Wavelengths
Number of Pixels in Spectrum: 1024
>>>>>Begin Spectral Data<<<<<
801.071	28656
801.214	28637
801.356	28284
801.499	28158
801.641	28013
801.783	27991
801.926	28147
802.068	27918
802.211	28093
802.353	27861
802.496	27869
802.638	27766
802.78	27819
802.923	27766
803.065	27724
803.208	27705
803.35	27713
803.492	27975
803.635	27960
803.777	27812
803.919	27857
804.061	28314
804.204	28139
804.346	27819
804.488	27785
804.63	28002
804.773	27857
804.915	27922
805.057	28063
805.199	27819
805.341	28173
805.483	28169
805.626	28082
805.768	27937
805.91	28112
806.052	28090
806.194	27949
806.336	28200
806.478	28139
806.62	28166
806.762	28325
806.904	28459
807.046	28721
807.188	28664
807.33	28577
807.472	28675
807.614	28698
807.756	28497
807.898	28512
808.04	28424
808.182	28523
808.324	28592
808.465	28577
808.607	28797
808.749	28839
808.891	28919
809.033	28835
809.174	28957
809.316	28793
809.458	28778
809.6	28854
809.741	28949
809.883	29018
810.025	29200
810.166	29105
810.308	29178
810.45	29102
810.591	29102
810.733	28904
810.875	28850
811.016	28900
811.158	28626
811.299	28984
811.441	29018
811.582	28904
811.724	28843
811.865	28930
812.007	28702
812.148	28862
812.29	28858
812.431	29166
812.573	29136
812.714	29265
812.855	29429
812.997	29543
813.138	29672
813.279	29478
813.421	29395
813.562	29391
813.703	29212
813.845	28991
813.986	28930
814.127	28702
814.268	28516
814.41	28744
814.551	28596
814.692	28550
814.833	28550
814.974	28474
815.115	28679
815.256	28485
815.397	28409
815.539	28493
815.68	28379
815.821	28424
815.962	28538
816.103	28291
816.244	28249
816.385	28097
816.526	28135
816.666	28097
816.807	27857
816.948	28002
817.089	27968
817.23	27880
817.371	27941
817.512	27816
817.653	27888
817.793	27804
817.934	27892
818.075	27892
818.216	27918
818.356	27766
818.497	27755
818.638	27606
818.778	27671
818.919	27682
819.06	27701
819.2	27804
819.341	27968
819.481	27953
819.622	28032
819.762	28192
819.903	28177
820.043	28105
820.184	28051
820.324	28063
820.465	28063
820.605	27987
820.746	27960
820.886	27983
821.026	27964
821.167	28006
821.307	27941
821.447	27895
821.588	27835
821.728	27743
821.868	27618
822.008	27481
822.149	27473
822.289	27393
822.429	27108
822.569	27036
822.709	27043
822.849	26823
822.99	26921
823.13	26880
823.27	26823
823.41	26575
823.55	26571
823.69	26800
823.83	26724
823.97	26640
824.11	26438
824.25	26511
824.389	26522
824.529	26682
824.669	26587
824.809	26693
824.949	26549
825.089	26530
825.228	26590
825.368	26377
825.508	26347
825.648	26457
825.787	26556
825.927	26552
826.067	26339
826.206	26522
826.346	26438
826.485	26511
826.625	26419
826.765	26575
826.904	26450
827.044	26172
827.183	26130
827.323	26092
827.462	26282
827.601	26153
827.741	26046
827.88	26237
828.02	25993
828.159	25970
828.298	26206
828.437	26176
828.577	26130
828.716	26130
828.855	25993
828.994	25727
829.134	25746
829.273	25784
829.412	25712
829.551	25765
829.69	25833
829.829	25860
829.968	25894
830.107	25868
830.246	25776
830.385	25632
830.524	25803
830.663	25651
830.802	25540
830.941	25525
831.08	25350
831.219	25479
831.357	25415
831.496	25693
831.635	25232
831.774	25426
831.913	25381
832.051	25141
832.19	25118
832.329	25217
832.467	25080
832.606	25038
832.744	25012
832.883	25080
833.022	25141
833.16	25145
833.299	25187
833.437	25206
833.576	25255
833.714	25008
833.852	25282
833.991	25171
834.129	25255
834.267	25270
834.406	25183
834.544	25152
834.682	25194
834.821	25084
834.959	25388
835.097	25217
835.235	25023
835.373	25095
835.511	25141
835.65	25031
835.788	25057
835.926	24981
836.064	24829
836.202	24779
836.34	24837
836.478	25084
836.615	24951
836.753	24943
836.891	24996
837.029	25023
837.167	24897
837.305	24787
837.443	24840
837.58	24768
837.718	24878
837.856	24817
837.993	24795
838.131	24715
838.269	24745
838.406	24627
838.544	24661
838.681	24521
838.819	24327
838.956	24391
839.094	24251
839.231	24342
839.369	24441
839.506	24486
839.643	24441
839.781	24197
839.918	24258
840.055	24190
840.193	24060
840.33	24190
840.467	24209
840.604	24273
840.742	24475
840.879	23969
841.016	24110
841.153	24049
841.29	24281
841.427	24144
841.564	24110
841.701	24258
841.838	24144
841.975	24030
842.112	24125
842.249	24026
842.385	23942
842.522	24106
842.659	24095
842.796	23764
842.933	23931
843.069	23889
843.206	23790
843.343	23984
843.479	23942
843.616	24068
843.752	23726
843.889	23672
844.025	23863
844.162	23611
844.298	23832
844.435	23672
844.571	23615
844.708	23649
844.844	23824
844.98	23935
845.117	23821
845.253	23570
845.389	23608
845.525	23687
845.661	23566
845.798	23539
845.934	23471
846.07	23414
846.206	23478
846.342	23417
846.478	23474
846.614	23341
846.75	23143
846.886	23166
847.022	23208
847.158	23102
847.294	23098
847.429	23117
847.565	23071
847.701	23334
847.837	22877
847.972	22968
848.108	23003
848.244	22843
848.379	22740
848.515	22698
848.65	22713
848.786	22763
848.921	22748
849.057	22797
849.192	22843
849.328	22721
849.463	22626
849.598	22664
849.734	22569
849.869	22637
850.004	22493
850.14	22478
850.275	22527
850.41	22470
850.545	22421
850.68	22440
850.815	22474
850.95	22489
851.085	22729
851.22	22542
851.355	22447
851.49	22462
851.625	22421
851.76	22478
851.895	22542
852.03	22405
852.165	22470
852.299	22470
852.434	22561
852.569	22546
852.703	22516
852.838	22554
852.973	22542
853.107	22561
853.242	22360
853.376	22325
853.511	22261
853.645	22223
853.78	22303
853.914	22310
854.048	22276
854.183	22367
854.317	22276
854.451	22398
854.585	22242
854.72	22268
854.854	22424
854.988	22382
855.122	22303
855.256	22234
855.39	22341
855.524	22356
855.658	22398
855.792	22390
855.926	22394
856.06	22371
856.194	22409
856.327	22230
856.461	22238
856.595	22215
856.729	22185
856.862	22394
856.996	22344
857.13	22386
857.263	22607
857.397	22443
857.53	22284
857.664	22333
857.797	22238
857.931	22405
858.064	22329
858.197	22322
858.331	22344
858.464	22249
858.597	22272
858.731	22192
858.864	22226
858.997	22230
859.13	22306
859.263	22295
859.396	22436
859.529	22166
859.662	22295
859.795	22177
859.928	22478
860.061	22432
860.194	22535
860.327	22462
860.46	22432
860.592	22424
860.725	22379
860.858	22466
860.99	22367
861.123	22211
861.256	22356
861.388	22257
861.521	23010
861.653	22086
861.786	22059
861.918	22265
862.05	22185
862.183	22192
862.315	22226
862.447	22356
862.58	22185
862.712	21926
862.844	22029
862.976	22097
863.108	21991
863.24	22500
863.372	21903
863.504	22078
863.636	21941
863.768	22063
863.9	22025
864.032	21960
864.164	21865
864.296	22051
864.428	22078
864.559	22150
864.691	22063
864.823	22025
864.954	21975
865.086	21895
865.217	22074
865.349	21926
865.48	21827
865.612	21994
865.743	22101
865.875	21903
866.006	21884
866.137	21907
866.269	21926
866.4	21945
866.531	21816
866.662	21861
866.793	21911
866.924	21838
867.055	21911
867.186	21876
867.317	21865
867.448	21831
867.579	21869
867.71	21873
867.841	21644
867.972	21781
868.103	21812
868.233	21819
868.364	21850
868.495	21926
868.625	21998
868.756	22291
868.886	22010
869.017	22040
869.147	22200
869.278	22284
869.408	22059
869.539	22207
869.669	22207
869.799	22082
869.929	22367
870.06	22139
870.19	22413
870.32	22417
870.45	22398
870.58	22481
870.71	22596
870.84	22672
870.97	22421
871.1	22474
871.23	22554
871.36	22717
871.489	22550
871.619	22645
871.749	22725
871.879	22797
872.008	22786
872.138	22607
872.267	22675
872.397	22687
872.526	22527
872.656	22611
872.785	22478
872.915	22786
873.044	22816
873.173	22771
873.303	22763
873.432	22744
873.561	22965
873.69	22683
873.819	22668
873.948	22755
874.077	22679
874.206	22611
874.335	22713
874.464	22831
874.593	22995
874.722	22946
874.851	23014
874.979	22984
875.108	22942
875.237	22984
875.365	22847
875.494	22694
875.623	22949
875.751	22953
875.88	22847
876.008	23102
876.136	23189
876.265	23261
876.393	23421
876.521	23455
876.65	23368
876.778	23258
876.906	23181
877.034	23220
877.162	23280
877.29	23208
877.418	23273
877.546	23200
877.674	23185
877.802	23299
877.93	23299
878.058	23189
878.185	23170
878.313	23208
878.441	23204
878.568	23067
878.696	23147
878.824	23178
878.951	23303
879.079	23398
879.206	23699
879.333	23345
879.461	23345
879.588	23368
879.715	23311
879.842	23554
879.97	23463
880.097	23033
880.224	23044
880.351	23117
880.478	23014
880.605	23109
880.732	22930
880.859	23330
880.986	23079
881.112	23044
881.239	22896
881.366	22866
881.493	22694
881.619	22759
881.746	22656
881.872	22752
881.999	22641
882.125	22531
882.252	22656
882.378	22660
882.505	22706
882.631	22428
882.757	22432
882.883	22409
883.01	22390
883.136	22318
883.262	22207
883.388	22200
883.514	22295
883.64	22424
883.766	22215
883.892	22158
884.018	22154
884.143	22230
884.269	22303
884.395	22078
884.52	21987
884.646	21972
884.772	21880
884.897	21884
885.023	21876
885.148	22105
885.274	22055
885.399	22112
885.524	21998
885.65	22002
885.775	21983
885.9	21918
886.025	22150
886.15	22032
886.275	21861
886.4	21816
886.525	21854
886.65	21755
886.775	21899
886.9	22074
887.025	22147
887.149	21888
887.274	21724
887.399	21781
887.523	21709
887.648	21599
887.773	21618
887.897	21907
888.021	21774
888.146	21663
888.27	21823
888.395	21698
888.519	21743
888.643	21686
888.767	21743
888.891	21523
889.015	21606
889.139	21667
889.263	21523
889.387	21576
889.511	21808
889.635	21618
889.759	21424
889.883	21553
890.006	21485
890.13	21553
890.254	21538
890.377	21469
890.501	21127
890.624	21176
890.748	21370
890.871	21176
890.995	21104
891.118	20899
891.241	20994
891.364	21100
891.488	21211
891.611	21017
891.734	21081
891.857	21005
891.98	21074
892.103	21093
892.226	21081
892.349	20880
892.471	20868
892.594	20967
892.717	20971
892.839	21009
892.962	20994
893.085	21116
893.207	21055
893.33	20819
893.452	20823
893.575	20967
893.697	20891
893.819	21096
893.941	21062
894.064	21066
894.186	20963
894.308	20876
894.43	20941
894.552	21066
894.674	21005
894.796	20861
894.918	20826
895.04	20895
895.161	20921
895.283	20971
895.405	20941
895.526	20925
895.648	20937
895.769	20963
895.891	21028
896.012	21001
896.134	21077
896.255	20956
896.376	20960
896.498	20906
896.619	21051
896.74	20929
896.861	21032
896.982	21245
897.103	21325
897.224	21165
897.345	21100
897.466	21039
897.587	21112
897.708	21275
897.828	21184
897.949	21085
898.07	20994
898.19	21013
898.311	21245
898.431	21077
898.552	21108
898.672	21165
898.792	21188
898.913	21100
899.033	20899
899.153	20960
899.273	20864
899.393	20853
899.513	20937
899.633	20762
899.753	20830
899.873	20895
899.993	20880
900.113	20834
900.232	20891
900.352	20735
900.472	20743
900.591	20518
900.711	20640
900.83	20716
900.95	20800
901.069	20861
901.189	20473
901.308	20374
901.427	20122
901.546	20202
901.665	20263
901.784	20157
901.904	20267
902.023	19932
902.141	19811
902.26	19769
902.379	19757
902.498	19708
902.617	19765
902.735	19734
902.854	19609
902.973	19537
903.091	19396
903.21	19278
903.328	19274
903.446	19316
903.565	19095
903.683	19289
903.801	18981
903.919	19145
904.038	19084
904.156	18905
904.274	18985
904.392	18951
904.51	18951
904.627	18890
904.745	18939
904.863	18962
904.981	18719
905.098	18627
905.216	18673
905.334	18681
905.451	18722
905.569	18540
905.686	18616
905.803	18574
905.921	18395
906.038	18566
906.155	18517
906.272	18330
906.389	18273
906.506	18117
906.623	18266
906.74	18171
906.857	18068
906.974	18083
907.091	18262
907.208	18281
907.324	18159
907.441	18129
907.557	17878
907.674	17878
907.79	17653
907.907	17748
908.023	17870
908.139	17878
908.256	17863
908.372	17779
908.488	17737
908.604	17577
908.72	17505
908.836	17554
908.952	17490
909.068	17520
909.184	17619
909.3	17512
909.415	17539
909.531	17585
909.647	17322
909.762	17284
909.878	17170
909.993	17189
910.108	17280
910.224	17094
910.339	17159
910.454	17140
910.57	17014
910.685	16847
910.8	17178
910.915	17273
911.03	17045
911.145	16831
911.259	16824
911.374	16793
911.489	16839
911.604	16683
911.718	16561
911.833	16584
911.947	16573
912.062	16344
912.176	16561
912.291	16607
912.405	16653
912.519	16645
912.633	16694
912.748	16645
912.862	16550
912.976	16402
913.09	16219
913.204	16325
913.318	16337
913.431	16512
913.545	16375
913.659	16417
913.772	16329
913.886	16257
914	16169
914.113	16356
914.226	16325
914.34	16223
914.453	16101
914.566	16158
914.68	16002
914.793	16044
914.906	15800
915.019	15778
915.132	15682
915.245	15675
915.358	15804
915.47	15804
915.583	15724
915.696	15838
915.809	15876
915.921	15846
916.034	15644
916.146	15675
916.259	15542
916.371	15774
916.483	15720
916.595	15545
916.708	15523
916.82	15568
916.932	15492
917.044	15545
917.156	15477
917.268	15351
917.38	15416
917.491	15355
917.603	15431
917.715	15424
917.826	15405
917.938	15291
918.049	15283
918.161	15397
918.272	15492
918.384	15492
918.495	15382
918.606	15252
918.717	15093
918.828	15165
918.939	15154
919.05	15055
919.161	15119
919.272	14960
919.383	15047
919.494	15233
919.604	15374
919.715	15123
919.826	14948
919.936	15097
920.047	15157
920.157	15211
920.267	15367
920.378	15074
920.488	15055
920.598	15195
920.708	15317
920.818	15150
920.928	15165
921.038	15298
921.148	15382
921.258	15100
921.368	14948
921.477	14823
921.587	14815
921.697	14682
921.806	14887
921.916	14636
922.025	14389
922.134	14389
922.244	14385
922.353	14438
922.462	14282
922.571	14240
922.68	14054
922.789	14115
922.898	14123
923.007	14103
923.116	14081
923.224	14119
923.333	14092
923.442	13925
923.55	13902
923.659	13890
923.767	13951
923.876	13852
923.984	13959
924.092	13784
924.201	13788
924.309	13871
924.417	13780
924.525	13757
924.633	13677
924.741	14503
924.849	13563
924.956	13605
925.064	13525
925.172	13468
925.279	13457
925.387	13480
925.494	13445
925.602	13525
925.709	13426
925.816	13278
925.924	13415
926.031	13476
926.138	13365
926.245	13464
926.352	13289
926.459	13537
926.566	13434
926.673	13282
926.779	13164
926.886	13217
926.993	12989
927.099	12993
927.206	12943
927.312	12901
927.419	13038
927.525	12943
927.631	13072
927.737	12863
927.843	12825
927.95	12745
928.056	12844
928.162	12821
928.267	12837
928.373	13407
928.479	12852
928.585	12623
928.69	12810
928.796	12684
928.901	12730
929.007	12616
929.112	12722
929.218	12582
929.323	12642
929.428	12513
929.533	12673
929.638	12471
929.743	12513
929.848	12597
929.953	12490
930.058	12365
930.163	12243
930.267	12209
930.372	12296
930.477	12178
930.581	12308
930.685	12182
930.79	12102
930.894	12098
930.998	12117
931.103	12175
931.207	11805
931.311	11756
931.415	11718
931.519	11455
931.623	11391
