Data from test_V78500241_2146.txt Node
Date: Fri Mar 25 15:56:40 CST 2022
User: usil
Spectrometer: V785-0024
Trigger mode: 0
Integration Time (sec): 4.000000E-1
Scans to average: 1
Nonlinearity correction enabled: false
Boxcar width: 0
Storing dark spectrum: false
XAxis mode: Wavelengths
Number of Pixels in Spectrum: 1024
>>>>>Begin Spectral Data<<<<<
801.071	28980
801.214	29044
801.356	28694
801.499	28588
801.641	28729
801.783	28656
801.926	28656
802.068	28504
802.211	28752
802.353	28409
802.496	28325
802.638	28344
802.78	28310
802.923	28219
803.065	28048
803.208	28204
803.35	28455
803.492	28550
803.635	28531
803.777	28386
803.919	28569
804.061	28923
804.204	28653
804.346	28443
804.488	28413
804.63	28603
804.773	28451
804.915	28561
805.057	28679
805.199	28565
805.341	28675
805.483	28691
805.626	28615
805.768	28641
805.91	28748
806.052	28862
806.194	28592
806.336	28927
806.478	28767
806.62	28755
806.762	28793
806.904	29113
807.046	29315
807.188	29090
807.33	29220
807.472	29151
807.614	29193
807.756	29220
807.898	29022
808.04	29060
808.182	28987
808.324	29025
808.465	29083
808.607	29315
808.749	29345
808.891	29547
809.033	29627
809.174	29501
809.316	29436
809.458	29322
809.6	29334
809.741	29535
809.883	29490
810.025	29699
810.166	29809
810.308	29764
810.45	29676
810.591	29745
810.733	29501
810.875	29349
811.016	29490
811.158	29254
811.299	29547
811.441	29649
811.582	29570
811.724	29429
811.865	29368
812.007	29478
812.148	29410
812.29	29353
812.431	29528
812.573	29710
812.714	29931
812.855	29988
812.997	30053
813.138	30148
813.279	30072
813.421	30087
813.562	29935
813.703	29733
813.845	29638
813.986	29490
814.127	29273
814.268	29239
814.41	29128
814.551	29155
814.692	29178
814.833	29117
814.974	28976
815.115	29254
815.256	29136
815.397	29159
815.539	29178
815.68	29048
815.821	28915
815.962	28923
816.103	28953
816.244	28748
816.385	28793
816.526	28733
816.666	28607
816.807	28455
816.948	28615
817.089	28683
817.23	28573
817.371	28459
817.512	28436
817.653	28474
817.793	28360
817.934	28443
818.075	28466
818.216	28508
818.356	28557
818.497	28348
818.638	28185
818.778	28181
818.919	28276
819.06	28303
819.2	28417
819.341	28421
819.481	28523
819.622	28763
819.762	28748
819.903	28824
820.043	28634
820.184	28679
820.324	28592
820.465	28698
820.605	28516
820.746	28470
820.886	28485
821.026	28497
821.167	28649
821.307	28664
821.447	28478
821.588	28413
821.728	28367
821.868	28112
822.008	28021
822.149	27941
822.289	27930
822.429	27751
822.569	27656
822.709	27778
822.849	27450
822.99	27568
823.13	27439
823.27	27424
823.41	27256
823.55	27218
823.69	27275
823.83	27291
823.97	27237
824.11	27112
824.25	27100
824.389	27070
824.529	27218
824.669	27093
824.809	27230
824.949	27154
825.089	27306
825.228	27169
825.368	27093
825.508	27051
825.648	27047
825.787	26982
825.927	27070
826.067	26971
826.206	27024
826.346	27112
826.485	27131
826.625	27001
826.765	27051
826.904	27138
827.044	26800
827.183	26872
827.323	26689
827.462	26693
827.601	26796
827.741	26636
827.88	26849
828.02	26689
828.159	26667
828.298	26853
828.437	26731
828.577	26568
828.716	26769
828.855	26663
828.994	26366
829.134	26438
829.273	26560
829.412	26389
829.551	26370
829.69	26370
829.829	26450
829.968	26552
830.107	26511
830.246	26400
830.385	26214
830.524	26286
830.663	26267
830.802	26183
830.941	26081
831.08	25898
831.219	26073
831.357	26122
831.496	26339
831.635	26008
831.774	25879
831.913	25997
832.051	25822
832.19	25925
832.329	25784
832.467	25753
832.606	25696
832.744	25696
832.883	25742
833.022	25616
833.16	25613
833.299	25704
833.437	25712
833.576	25837
833.714	25818
833.852	25658
833.991	25841
834.129	25879
834.267	25887
834.406	25822
834.544	25818
834.682	25818
834.821	25822
834.959	25932
835.097	25635
835.235	25845
835.373	25742
835.511	25715
835.65	25658
835.788	25540
835.926	25434
836.064	25346
836.202	25346
836.34	25479
836.478	25742
836.615	25544
836.753	25563
836.891	25578
837.029	25685
837.167	25426
837.305	25559
837.443	25571
837.58	25301
837.718	25441
837.856	25518
837.993	25434
838.131	25384
838.269	25209
838.406	25365
838.544	25141
838.681	24985
838.819	25069
838.956	24760
839.094	24932
839.231	24970
839.369	25080
839.506	25213
839.643	25160
839.781	24871
839.918	24890
840.055	24932
840.193	24901
840.33	24852
840.467	24783
840.604	24802
840.742	25023
840.879	24719
841.016	24635
841.153	24646
841.29	24810
841.427	24806
841.564	24722
841.701	24848
841.838	24623
841.975	24722
842.112	24639
842.249	24570
842.385	24521
842.522	24802
842.659	24654
842.796	24494
842.933	24498
843.069	24517
843.206	24441
843.343	24574
843.479	24441
843.616	24471
843.752	24239
843.889	24342
844.025	24460
844.162	24289
844.298	24403
844.435	24254
844.571	24201
844.708	24334
844.844	24376
844.98	24502
845.117	24498
845.253	24140
845.389	24083
845.525	24285
845.661	24148
845.798	24072
845.934	24057
846.07	23996
846.206	24038
846.342	24201
846.478	23923
846.614	23790
846.75	23687
846.886	23691
847.022	23733
847.158	23760
847.294	23630
847.429	23851
847.565	23642
847.701	24015
847.837	23535
847.972	23414
848.108	23463
848.244	23634
848.379	23326
848.515	23334
848.65	23345
848.786	23337
848.921	23311
849.057	23372
849.192	23337
849.328	23395
849.463	23254
849.598	23284
849.734	23227
849.869	23261
850.004	23079
850.14	23090
850.275	23094
850.41	23071
850.545	22995
850.68	23102
850.815	23071
850.95	22980
851.085	23200
851.22	23178
851.355	23121
851.49	23003
851.625	23033
851.76	23151
851.895	22968
852.03	23109
852.165	23083
852.299	23208
852.434	23140
852.569	23014
852.703	23052
852.838	23094
852.973	23250
853.107	23189
853.242	22999
853.376	22915
853.511	22759
853.645	22824
853.78	22957
853.914	22942
854.048	22824
854.183	22805
854.317	22915
854.451	23193
854.585	22949
854.72	22892
854.854	22991
854.988	22812
855.122	22900
855.256	22759
855.39	22934
855.524	22908
855.658	23075
855.792	22957
855.926	22915
856.06	22938
856.194	22885
856.327	22786
856.461	22774
856.595	22771
856.729	22911
856.862	23155
856.996	22968
857.13	22919
857.263	23094
857.397	23025
857.53	22911
857.664	22965
857.797	22911
857.931	23018
858.064	22896
858.197	23090
858.331	22968
858.464	22752
858.597	22900
858.731	22927
858.864	22786
858.997	22831
859.13	22896
859.263	22828
859.396	22957
859.529	22900
859.662	22877
859.795	22698
859.928	22904
860.061	22991
860.194	23064
860.327	22934
860.46	22900
860.592	23010
860.725	22987
860.858	23140
860.99	22919
861.123	22706
861.256	22843
861.388	22892
861.521	23554
861.653	22801
861.786	22656
861.918	22679
862.05	22805
862.183	22862
862.315	22911
862.447	22957
862.58	22839
862.712	22683
862.844	22592
862.976	22729
863.108	22672
863.24	23147
863.372	22603
863.504	22466
863.636	22527
863.768	22584
863.9	22550
864.032	22554
864.164	22523
864.296	22592
864.428	22664
864.559	22698
864.691	22626
864.823	22546
864.954	22573
865.086	22622
865.217	22443
865.349	22405
865.48	22592
865.612	22546
865.743	22656
865.875	22489
866.006	22360
866.137	22508
866.269	22504
866.4	22550
866.531	22314
866.662	22379
866.793	22538
866.924	22519
867.055	22409
867.186	22432
867.317	22481
867.448	22295
867.579	22379
867.71	22402
867.841	22246
867.972	22417
868.103	22325
868.233	22523
868.364	22405
868.495	22459
868.625	22588
868.756	22717
868.886	22478
869.017	22592
869.147	22668
869.278	22668
869.408	22611
869.539	22596
869.669	22793
869.799	22767
869.929	22786
870.06	22725
870.19	23010
870.32	22793
870.45	22942
870.58	23083
870.71	23121
870.84	23223
870.97	23166
871.1	22900
871.23	23086
871.36	23178
871.489	23029
871.619	23246
871.749	23200
871.879	23315
872.008	23395
872.138	23204
872.267	23220
872.397	23109
872.526	23064
872.656	23037
872.785	23174
872.915	23353
873.044	23197
873.173	23239
873.303	23261
873.432	23223
873.561	23391
873.69	23197
873.819	23216
873.948	23254
874.077	23258
874.206	23067
874.335	23239
874.464	23436
874.593	23444
874.722	23250
874.851	23497
874.979	23551
875.108	23524
875.237	23421
875.365	23421
875.494	23391
875.623	23509
875.751	23406
875.88	23608
876.008	23516
876.136	23767
876.265	23737
876.393	23965
876.521	23923
876.65	23901
876.778	23904
876.906	23821
877.034	23748
877.162	23783
877.29	23790
877.418	23752
877.546	23672
877.674	23752
877.802	23809
877.93	23653
878.058	23718
878.185	23592
878.313	23737
878.441	23726
878.568	23729
878.696	23668
878.824	23824
878.951	23805
879.079	23828
879.206	24167
879.333	23965
879.461	23893
879.588	23843
879.715	23908
879.842	24011
879.97	23722
880.097	23570
880.224	23596
880.351	23668
880.478	23623
880.605	23608
880.732	23543
880.859	23863
880.986	23684
881.112	23680
881.239	23547
881.366	23273
881.493	23113
881.619	23162
881.746	23170
881.872	23044
881.999	23056
882.125	23189
882.252	23258
882.378	23132
882.505	23303
882.631	22961
882.757	22949
882.883	23003
883.01	22850
883.136	22706
883.262	22721
883.388	22649
883.514	22706
883.64	22858
883.766	22759
883.892	22550
884.018	22744
884.143	22733
884.269	22778
884.395	22565
884.52	22405
884.646	22485
884.772	22538
884.897	22337
885.023	22474
885.148	22683
885.274	22546
885.399	22493
885.524	22451
885.65	22459
885.775	22481
885.9	22508
886.025	22577
886.15	22599
886.275	22493
886.4	22344
886.525	22394
886.65	22375
886.775	22405
886.9	22550
887.025	22721
887.149	22409
887.274	22291
887.399	22173
887.523	22192
887.648	22185
887.773	22082
887.897	22230
888.021	22215
888.146	22158
888.27	22306
888.395	22333
888.519	22234
888.643	22242
888.767	22261
888.891	22128
889.015	21991
889.139	21975
889.263	22059
889.387	22082
889.511	22272
889.635	22143
889.759	22036
889.883	21888
890.006	22017
890.13	22131
890.254	21895
890.377	21892
890.501	21720
890.624	21698
890.748	21774
890.871	21671
890.995	21549
891.118	21500
891.241	21500
891.364	21633
891.488	21747
891.611	21622
891.734	21511
891.857	21583
891.98	21511
892.103	21485
892.226	21526
892.349	21534
892.471	21283
892.594	21386
892.717	21477
892.839	21488
892.962	21378
893.085	21511
893.207	21428
893.33	21340
893.452	21397
893.575	21492
893.697	21374
893.819	21599
893.941	21576
894.064	21633
894.186	21386
894.308	21332
894.43	21526
894.552	21599
894.674	21435
894.796	21355
894.918	21332
895.04	21355
895.161	21443
895.283	21340
895.405	21298
895.526	21367
895.648	21355
895.769	21450
895.891	21416
896.012	21458
896.134	21469
896.255	21557
896.376	21393
896.498	21420
896.619	21462
896.74	21370
896.861	21420
896.982	21622
897.103	21808
897.224	21652
897.345	21606
897.466	21561
897.587	21595
897.708	21694
897.828	21610
897.949	21595
898.07	21469
898.19	21485
898.311	21587
898.431	21591
898.552	21496
898.672	21625
898.792	21641
898.913	21549
899.033	21481
899.153	21329
899.273	21355
899.393	21287
899.513	21447
899.633	21321
899.753	21351
899.873	21230
899.993	21275
900.113	21397
900.232	21233
900.352	21207
900.472	21096
900.591	21009
900.711	20990
900.83	20998
900.95	21291
901.069	21321
901.189	20944
901.308	20693
901.427	20640
901.546	20613
901.665	20724
901.784	20617
901.904	20507
902.023	20438
902.141	20218
902.26	20145
902.379	20134
902.498	20206
902.617	20122
902.735	20195
902.854	20130
902.973	19940
903.091	19833
903.21	19818
903.328	19814
903.446	19704
903.565	19571
903.683	19609
903.801	19514
903.919	19510
904.038	19483
904.156	19266
904.274	19468
904.392	19278
904.51	19293
904.627	19297
904.745	19422
904.863	19426
904.981	19217
905.098	19019
905.216	19072
905.334	19057
905.451	19053
905.569	19031
905.686	18928
905.803	18985
905.921	18829
906.038	18757
906.155	18875
906.272	18639
906.389	18760
906.506	18456
906.623	18642
906.74	18631
906.857	18327
906.974	18338
907.091	18509
907.208	18661
907.324	18559
907.441	18437
907.557	18247
907.674	18330
907.79	18209
907.907	18296
908.023	18228
908.139	18182
908.256	18220
908.372	18190
908.488	17999
908.604	18034
908.72	17904
908.836	18038
908.952	17954
909.068	17950
909.184	17977
909.3	17988
909.415	17866
909.531	17988
909.647	17786
909.762	17646
909.878	17668
909.993	17619
910.108	17528
910.224	17570
910.339	17596
910.454	17497
910.57	17433
910.685	17368
910.8	17596
910.915	17543
911.03	17433
911.145	17334
911.259	17273
911.374	17216
911.489	17147
911.604	17094
911.718	16957
911.833	16949
911.947	16858
912.062	16824
912.176	16972
912.291	16889
912.405	16942
912.519	17083
912.633	17250
912.748	17045
912.862	16980
912.976	16862
913.09	16725
913.204	16710
913.318	16839
913.431	16877
913.545	16805
913.659	16812
913.772	16702
913.886	16596
914	16611
914.113	16641
914.226	16675
914.34	16535
914.453	16398
914.566	16634
914.68	16451
914.793	16341
914.906	16249
915.019	16158
915.132	16086
915.245	16093
915.358	16154
915.47	16055
915.583	16143
915.696	16173
915.809	16306
915.921	16230
916.034	16139
916.146	16078
916.259	15975
916.371	16044
916.483	16105
916.595	15930
916.708	16036
916.82	15968
916.932	15918
917.044	15934
917.156	15934
917.268	15793
917.38	15865
917.491	15766
917.603	15739
917.715	15800
917.826	15846
917.938	15755
918.049	15591
918.161	15732
918.272	15800
918.384	15842
918.495	15641
918.606	15534
918.717	15485
918.828	15553
918.939	15515
919.05	15378
919.161	15447
919.272	15302
919.383	15321
919.494	15595
919.604	15572
919.715	15553
919.826	15405
919.936	15458
920.047	15572
920.157	15545
920.267	15686
920.378	15386
920.488	15405
920.598	15671
920.708	15728
920.818	15595
920.928	15568
921.038	15736
921.148	15717
921.258	15329
921.368	15222
921.477	15173
921.587	15161
921.697	15055
921.806	15142
921.916	15036
922.025	15013
922.134	14815
922.244	14712
922.353	14819
922.462	14777
922.571	14617
922.68	14469
922.789	14381
922.898	14488
923.007	14396
923.116	14446
923.224	14446
923.333	14438
923.442	14294
923.55	14199
923.659	14244
923.767	14301
923.876	14252
923.984	14237
924.092	14202
924.201	14218
924.309	14248
924.417	14161
924.525	14096
924.633	14039
924.741	14811
924.849	13761
924.956	13989
925.064	13826
925.172	13788
925.279	13780
925.387	13830
925.494	13830
925.602	13944
925.709	13822
925.816	13662
925.924	13750
926.031	13833
926.138	13643
926.245	13772
926.352	13613
926.459	13830
926.566	13814
926.673	13616
926.779	13499
926.886	13502
926.993	13324
927.099	13289
927.206	13270
927.312	13244
927.419	13293
927.525	13350
927.631	13472
927.737	13202
927.843	13278
927.95	13099
928.056	13168
928.162	13168
928.267	13072
928.373	13799
928.479	13183
928.585	13099
928.69	13095
928.796	13152
928.901	12977
929.007	12875
929.112	12894
929.218	12905
929.323	12943
929.428	12882
929.533	12928
929.638	12810
929.743	12719
929.848	12886
929.953	12798
930.058	12662
930.163	12506
930.267	12506
930.372	12692
930.477	12559
930.581	12616
930.685	12547
930.79	12452
930.894	12323
930.998	12232
931.103	12513
931.207	12117
931.311	12083
931.415	12030
931.519	11756
931.623	11767
