Data from test_V78500241_1139.txt Node
Date: Fri Mar 25 15:49:41 CST 2022
User: usil
Spectrometer: V785-0024
Trigger mode: 0
Integration Time (sec): 4.000000E-1
Scans to average: 1
Nonlinearity correction enabled: false
Boxcar width: 0
Storing dark spectrum: false
XAxis mode: Wavelengths
Number of Pixels in Spectrum: 1024
>>>>>Begin Spectral Data<<<<<
801.071	28447
801.214	28413
801.356	28105
801.499	28109
801.641	27914
801.783	27899
801.926	28002
802.068	27934
802.211	27888
802.353	27865
802.496	27458
802.638	27542
802.78	27671
802.923	27355
803.065	27427
803.208	27507
803.35	27523
803.492	27576
803.635	27789
803.777	27564
803.919	27720
804.061	27987
804.204	27911
804.346	27819
804.488	27732
804.63	27743
804.773	27713
804.915	27690
805.057	27854
805.199	27709
805.341	27808
805.483	27937
805.626	28029
805.768	27789
805.91	27998
806.052	28002
806.194	27861
806.336	28181
806.478	28093
806.62	27960
806.762	28070
806.904	28086
807.046	28474
807.188	28265
807.33	28390
807.472	28375
807.614	28268
807.756	28356
807.898	28382
808.04	28253
808.182	28181
808.324	28268
808.465	28109
808.607	28443
808.749	28698
808.891	28729
809.033	28835
809.174	28660
809.316	28489
809.458	28504
809.6	28668
809.741	28660
809.883	28767
810.025	28881
810.166	28965
810.308	28915
810.45	29048
810.591	28797
810.733	28752
810.875	28577
811.016	28599
811.158	28508
811.299	28767
811.441	28725
811.582	28828
811.724	28569
811.865	28596
812.007	28592
812.148	28664
812.29	28698
812.431	28710
812.573	28892
812.714	29155
812.855	29223
812.997	29345
813.138	29265
813.279	29235
813.421	29216
813.562	29140
813.703	28805
813.845	28869
813.986	28557
814.127	28474
814.268	28234
814.41	28352
814.551	28310
814.692	28421
814.833	28181
814.974	28401
815.115	28413
815.256	28249
815.397	28211
815.539	28158
815.68	28044
815.821	28067
815.962	27987
816.103	28059
816.244	28090
816.385	27968
816.526	27953
816.666	27720
816.807	27682
816.948	27774
817.089	27842
817.23	27641
817.371	27633
817.512	27553
817.653	27614
817.793	27603
817.934	27705
818.075	27622
818.216	27610
818.356	27564
818.497	27481
818.638	27359
818.778	27572
818.919	27397
819.06	27450
819.2	27492
819.341	27808
819.481	27743
819.622	27781
819.762	27930
819.903	27926
820.043	27808
820.184	27724
820.324	27808
820.465	27861
820.605	27759
820.746	27705
820.886	27629
821.026	27785
821.167	27713
821.307	27831
821.447	27717
821.588	27576
821.728	27485
821.868	27195
822.008	27184
822.149	27173
822.289	27085
822.429	26963
822.569	26773
822.709	26796
822.849	26651
822.99	26689
823.13	26659
823.27	26473
823.41	26537
823.55	26298
823.69	26571
823.83	26446
823.97	26347
824.11	26271
824.25	26298
824.389	26191
824.529	26298
824.669	26278
824.809	26389
824.949	26442
825.089	26336
825.228	26301
825.368	26180
825.508	26176
825.648	26183
825.787	26134
825.927	26221
826.067	26240
826.206	26065
826.346	26233
826.485	26199
826.625	26187
826.765	26286
826.904	26267
827.044	25978
827.183	25936
827.323	25906
827.462	25860
827.601	25906
827.741	25986
827.88	25944
828.02	25784
828.159	25837
828.298	25826
828.437	25784
828.577	25765
828.716	25970
828.855	25772
828.994	25635
829.134	25662
829.273	25525
829.412	25495
829.551	25453
829.69	25537
829.829	25533
829.968	25609
830.107	25696
830.246	25670
830.385	25453
830.524	25559
830.663	25453
830.802	25316
830.941	25145
831.08	25209
831.219	25232
831.357	25190
831.496	25354
831.635	25160
831.774	25065
831.913	24966
832.051	24939
832.19	24913
832.329	25023
832.467	24829
832.606	24700
832.744	24791
832.883	24802
833.022	24856
833.16	24768
833.299	24962
833.437	24825
833.576	25008
833.714	25019
833.852	24833
833.991	25008
834.129	24973
834.267	24886
834.406	24932
834.544	25012
834.682	24852
834.821	24905
834.959	25042
835.097	24817
835.235	24970
835.373	24909
835.511	24783
835.65	24768
835.788	24650
835.926	24544
836.064	24464
836.202	24555
836.34	24650
836.478	24745
836.615	24722
836.753	24700
836.891	24738
837.029	24810
837.167	24677
837.305	24505
837.443	24658
837.58	24540
837.718	24688
837.856	24669
837.993	24266
838.131	24536
838.269	24433
838.406	24395
838.544	24372
838.681	24167
838.819	24171
838.956	24057
839.094	23980
839.231	24018
839.369	24228
839.506	24429
839.643	24251
839.781	24053
839.918	23866
840.055	24186
840.193	23969
840.33	23859
840.467	23916
840.604	23946
840.742	24220
840.879	23737
841.016	23840
841.153	23817
841.29	24007
841.427	23958
841.564	23980
841.701	23939
841.838	23950
841.975	23863
842.112	23824
842.249	23805
842.385	23676
842.522	23901
842.659	23805
842.796	23608
842.933	23642
843.069	23653
843.206	23646
843.343	23638
843.479	23657
843.616	23745
843.752	23482
843.889	23463
844.025	23505
844.162	23429
844.298	23581
844.435	23372
844.571	23433
844.708	23444
844.844	23710
844.98	23551
845.117	23661
845.253	23315
845.389	23345
845.525	23292
845.661	23330
845.798	23246
845.934	23140
846.07	23223
846.206	23303
846.342	23337
846.478	23140
846.614	22923
846.75	22892
846.886	22793
847.022	22949
847.158	22942
847.294	23018
847.429	22816
847.565	22911
847.701	23159
847.837	22656
847.972	22637
848.108	22790
848.244	22679
848.379	22660
848.515	22398
848.65	22538
848.786	22367
848.921	22493
849.057	22599
849.192	22531
849.328	22497
849.463	22382
849.598	22356
849.734	22382
849.869	22344
850.004	22299
850.14	22344
850.275	22303
850.41	22162
850.545	22204
850.68	22188
850.815	22242
850.95	22261
851.085	22348
851.22	22352
851.355	22284
851.49	22314
851.625	22295
851.76	22352
851.895	22059
852.03	22158
852.165	22215
852.299	22215
852.434	22363
852.569	22226
852.703	22249
852.838	22246
852.973	22436
853.107	22375
853.242	22249
853.376	22101
853.511	21850
853.645	21972
853.78	22192
853.914	22192
854.048	22063
854.183	21964
854.317	22101
854.451	22219
854.585	22051
854.72	22021
854.854	22059
854.988	21945
855.122	22032
855.256	21994
855.39	22021
855.524	22078
855.658	21987
855.792	22086
855.926	22192
856.06	22207
856.194	22135
856.327	21994
856.461	21960
856.595	21979
856.729	22059
856.862	22166
856.996	22070
857.13	22055
857.263	22268
857.397	22192
857.53	22067
857.664	22128
857.797	22063
857.931	22166
858.064	22021
858.197	22291
858.331	22048
858.464	22013
858.597	21930
858.731	21941
858.864	21873
858.997	22025
859.13	22143
859.263	22147
859.396	22162
859.529	22036
859.662	21903
859.795	22131
859.928	22048
860.061	22306
860.194	22192
860.327	22135
860.46	22063
860.592	22105
860.725	22287
860.858	22185
860.99	22219
861.123	22029
861.256	21991
861.388	22139
861.521	22793
861.653	22059
861.786	21964
861.918	21895
862.05	21922
862.183	21937
862.315	21979
862.447	22128
862.58	22029
862.712	21682
862.844	21755
862.976	21694
863.108	21892
863.24	22451
863.372	21667
863.504	21819
863.636	21762
863.768	21816
863.9	21808
864.032	21781
864.164	21888
864.296	21717
864.428	21819
864.559	21899
864.691	21835
864.823	21816
864.954	21762
865.086	21705
865.217	21622
865.349	21625
865.48	21660
865.612	21671
865.743	21793
865.875	21637
866.006	21606
866.137	21694
866.269	21686
866.4	21629
866.531	21641
866.662	21637
866.793	21576
866.924	21515
867.055	21629
867.186	21675
867.317	21633
867.448	21622
867.579	21538
867.71	21466
867.841	21492
867.972	21545
868.103	21599
868.233	21519
868.364	21663
868.495	21679
868.625	21835
868.756	21991
868.886	21663
869.017	21838
869.147	21903
869.278	21949
869.408	21884
869.539	21937
869.669	21861
869.799	21865
869.929	21975
870.06	21934
870.19	22204
870.32	21994
870.45	22154
870.58	22280
870.71	22295
870.84	22390
870.97	22291
871.1	22215
871.23	22462
871.36	22481
871.489	22325
871.619	22421
871.749	22402
871.879	22523
872.008	22485
872.138	22523
872.267	22352
872.397	22375
872.526	22329
872.656	22242
872.785	22295
872.915	22284
873.044	22577
873.173	22542
873.303	22462
873.432	22527
873.561	22428
873.69	22538
873.819	22588
873.948	22481
874.077	22504
874.206	22436
874.335	22455
874.464	22432
874.593	22645
874.722	22557
874.851	22675
874.979	22618
875.108	22675
875.237	22706
875.365	22584
875.494	22710
875.623	22812
875.751	22584
875.88	22759
876.008	22763
876.136	22816
876.265	23037
876.393	23151
876.521	23056
876.65	23155
876.778	23010
876.906	22915
877.034	22938
877.162	23048
877.29	23010
877.418	23075
877.546	23010
877.674	22980
877.802	22896
877.93	23056
878.058	22915
878.185	22946
878.313	23094
878.441	22999
878.568	22831
878.696	22976
878.824	23098
878.951	23117
879.079	23071
879.206	23288
879.333	23258
879.461	23014
879.588	23136
879.715	23193
879.842	23265
879.97	23071
880.097	22847
880.224	22835
880.351	22869
880.478	22847
880.605	22759
880.732	22805
880.859	23079
880.986	22862
881.112	22809
881.239	22713
881.366	22561
881.493	22466
881.619	22508
881.746	22310
881.872	22402
881.999	22337
882.125	22398
882.252	22459
882.378	22421
882.505	22310
882.631	22242
882.757	22082
882.883	22185
883.01	21998
883.136	21907
883.262	22086
883.388	21892
883.514	22070
883.64	22147
883.766	21922
883.892	21930
884.018	21884
884.143	21930
884.269	22223
884.395	21720
884.52	21701
884.646	21663
884.772	21603
884.897	21663
885.023	21762
885.148	21899
885.274	21903
885.399	21797
885.524	21690
885.65	21698
885.775	21759
885.9	21679
886.025	21778
886.15	21785
886.275	21694
886.4	21637
886.525	21656
886.65	21595
886.775	21549
886.9	21907
887.025	21880
887.149	21838
887.274	21561
887.399	21477
887.523	21500
887.648	21469
887.773	21500
887.897	21576
888.021	21618
888.146	21408
888.27	21603
888.395	21523
888.519	21534
888.643	21526
888.767	21515
888.891	21344
889.015	21294
889.139	21363
889.263	21287
889.387	21382
889.511	21526
889.635	21416
889.759	21310
889.883	21195
890.006	21355
890.13	21397
890.254	21249
890.377	21131
890.501	21108
890.624	21043
890.748	21051
890.871	20933
890.995	20762
891.118	20796
891.241	20982
891.364	20838
891.488	20823
891.611	20910
891.734	20823
891.857	20853
891.98	20933
892.103	20933
892.226	20811
892.349	20819
892.471	20693
892.594	20842
892.717	20971
892.839	20762
892.962	20792
893.085	20845
893.207	20834
893.33	20739
893.452	20587
893.575	20914
893.697	20667
893.819	20990
893.941	21047
894.064	20838
894.186	20697
894.308	20617
894.43	20826
894.552	20899
894.674	20693
894.796	20678
894.918	20838
895.04	20716
895.161	20910
895.283	20811
895.405	20743
895.526	20792
895.648	20731
895.769	20819
895.891	20769
896.012	20769
896.134	20876
896.255	20815
896.376	20720
896.498	20842
896.619	20773
896.74	20739
896.861	20769
896.982	21055
897.103	21180
897.224	20933
897.345	20899
897.466	20910
897.587	20986
897.708	21135
897.828	20979
897.949	20990
898.07	20781
898.19	20948
898.311	21062
898.431	20876
898.552	20914
898.672	20986
898.792	21017
898.913	20990
899.033	20838
899.153	20785
899.273	20663
899.393	20640
899.513	20830
899.633	20712
899.753	20701
899.873	20503
899.993	20807
900.113	20655
900.232	20674
900.352	20617
900.472	20568
900.591	20503
900.711	20594
900.83	20469
900.95	20632
901.069	20568
901.189	20336
901.308	20142
901.427	19955
901.546	20016
901.665	20092
901.784	20001
901.904	20039
902.023	19738
902.141	19620
902.26	19582
902.379	19594
902.498	19502
902.617	19575
902.735	19674
902.854	19510
902.973	19400
903.091	19232
903.21	19198
903.328	19304
903.446	19122
903.565	18985
903.683	18966
903.801	19023
903.919	18878
904.038	19069
904.156	18791
904.274	18848
904.392	18863
904.51	18684
904.627	18753
904.745	18795
904.863	18840
904.981	18673
905.098	18509
905.216	18464
905.334	18350
905.451	18475
905.569	18346
905.686	18513
905.803	18506
905.921	18224
906.038	18395
906.155	18163
906.272	18148
906.389	18091
906.506	18015
906.623	17996
906.74	17889
906.857	17805
906.974	17958
907.091	18079
907.208	18083
907.324	17977
907.441	17794
907.557	17737
907.674	17665
907.79	17672
907.907	17661
908.023	17710
908.139	17600
908.256	17573
908.372	17493
908.488	17463
908.604	17474
908.72	17421
908.836	17353
908.952	17356
909.068	17311
909.184	17528
909.3	17467
909.415	17433
909.531	17395
909.647	17162
909.762	17143
909.878	16972
909.993	17147
910.108	17117
910.224	17094
910.339	17014
910.454	16965
910.57	16889
910.685	16786
910.8	17143
910.915	16995
911.03	16900
911.145	16820
911.259	16706
911.374	16603
911.489	16641
911.604	16588
911.718	16303
911.833	16440
911.947	16291
912.062	16291
912.176	16402
912.291	16538
912.405	16386
912.519	16596
912.633	16588
912.748	16443
912.862	16409
912.976	16303
913.09	16128
913.204	16135
913.318	16230
913.431	16341
913.545	16276
913.659	16344
913.772	16162
913.886	15991
914	15953
914.113	16177
914.226	16177
914.34	16071
914.453	15835
914.566	15968
914.68	15793
914.793	15804
914.906	15759
915.019	15724
915.132	15564
915.245	15625
915.358	15606
915.47	15663
915.583	15622
915.696	15701
915.809	15747
915.921	15671
916.034	15542
916.146	15549
916.259	15397
916.371	15572
916.483	15534
916.595	15420
916.708	15507
916.82	15504
916.932	15329
917.044	15389
917.156	15306
917.268	15249
917.38	15287
917.491	15241
917.603	15313
917.715	15275
917.826	15336
917.938	15154
918.049	15097
918.161	15203
918.272	15329
918.384	15249
918.495	15173
918.606	14990
918.717	15039
918.828	15039
918.939	14982
919.05	14929
919.161	15001
919.272	14845
919.383	14845
919.494	15017
919.604	15226
919.715	14937
919.826	14864
919.936	14979
920.047	15036
920.157	15013
920.267	15142
920.378	15001
920.488	14880
920.598	15058
920.708	15218
920.818	15097
920.928	15036
921.038	15214
921.148	15074
921.258	14887
921.368	14918
921.477	14552
921.587	14625
921.697	14610
921.806	14746
921.916	14522
922.025	14366
922.134	14328
922.244	14233
922.353	14343
922.462	14214
922.571	14130
922.68	13917
922.789	13982
922.898	14031
923.007	13932
923.116	13879
923.224	13928
923.333	13875
923.442	13807
923.55	13712
923.659	13727
923.767	13822
923.876	13643
923.984	13826
924.092	13597
924.201	13685
924.309	13708
924.417	13639
924.525	13582
924.633	13594
924.741	14355
924.849	13415
924.956	13567
925.064	13426
925.172	13274
925.279	13324
925.387	13377
925.494	13358
925.602	13464
925.709	13388
925.816	13324
925.924	13339
926.031	13362
926.138	13308
926.245	13339
926.352	13225
926.459	13373
926.566	13369
926.673	13213
926.779	13084
926.886	13080
926.993	12943
927.099	12905
927.206	12878
927.312	12829
927.419	13012
927.525	12905
927.631	12890
927.737	12776
927.843	12711
927.95	12563
928.056	12673
928.162	12707
928.267	12783
928.373	13350
928.479	12772
928.585	12555
928.69	12757
928.796	12646
928.901	12623
929.007	12452
929.112	12646
929.218	12635
929.323	12467
929.428	12460
929.533	12467
929.638	12311
929.743	12353
929.848	12460
929.953	12380
930.058	12327
930.163	12102
930.267	12110
930.372	12281
930.477	12106
930.581	12311
930.685	12171
930.79	11980
930.894	11992
930.998	11946
931.103	12076
931.207	11710
931.311	11722
931.415	11463
931.519	11379
931.623	11341
