Data from test_V78500241_859.txt Node
Date: Fri Mar 25 15:47:45 CST 2022
User: usil
Spectrometer: V785-0024
Trigger mode: 0
Integration Time (sec): 4.000000E-1
Scans to average: 1
Nonlinearity correction enabled: false
Boxcar width: 0
Storing dark spectrum: false
XAxis mode: Wavelengths
Number of Pixels in Spectrum: 1024
>>>>>Begin Spectral Data<<<<<
801.071	28196
801.214	28242
801.356	27953
801.499	27876
801.641	27793
801.783	27876
801.926	27838
802.068	27812
802.211	27797
802.353	27606
802.496	27545
802.638	27466
802.78	27549
802.923	27336
803.065	27348
803.208	27279
803.35	27439
803.492	27667
803.635	27629
803.777	27561
803.919	27583
804.061	27922
804.204	27564
804.346	27641
804.488	27671
804.63	27583
804.773	27424
804.915	27724
805.057	27819
805.199	27644
805.341	27766
805.483	27823
805.626	27755
805.768	27656
805.91	27755
806.052	27789
806.194	27713
806.336	27911
806.478	27797
806.62	27857
806.762	27937
806.904	28070
807.046	28409
807.188	28306
807.33	28265
807.472	28265
807.614	28143
807.756	28261
807.898	28097
808.04	28070
808.182	28082
808.324	28128
808.465	28120
808.607	28219
808.749	28470
808.891	28592
809.033	28641
809.174	28546
809.316	28531
809.458	28546
809.6	28481
809.741	28744
809.883	28702
810.025	28778
810.166	28797
810.308	28930
810.45	28869
810.591	28771
810.733	28561
810.875	28428
811.016	28318
811.158	28417
811.299	28588
811.441	28649
811.582	28588
811.724	28599
811.865	28375
812.007	28649
812.148	28649
812.29	28523
812.431	28691
812.573	28797
812.714	28862
812.855	28968
812.997	28957
813.138	29280
813.279	29159
813.421	28904
813.562	28927
813.703	28767
813.845	28828
813.986	28398
814.127	28413
814.268	28109
814.41	28325
814.551	28181
814.692	28276
814.833	28112
814.974	28272
815.115	28185
815.256	28173
815.397	28166
815.539	28059
815.68	27926
815.821	28006
815.962	27979
816.103	27945
816.244	27869
816.385	27739
816.526	27778
816.666	27675
816.807	27530
816.948	27507
817.089	27728
817.23	27557
817.371	27492
817.512	27530
817.653	27469
817.793	27401
817.934	27496
818.075	27545
818.216	27454
818.356	27519
818.497	27332
818.638	27214
818.778	27211
818.919	27256
819.06	27321
819.2	27477
819.341	27469
819.481	27553
819.622	27633
819.762	27660
819.903	27819
820.043	27583
820.184	27781
820.324	27515
820.465	27610
820.605	27656
820.746	27511
820.886	27587
821.026	27622
821.167	27595
821.307	27671
821.447	27485
821.588	27443
821.728	27332
821.868	27123
822.008	26872
822.149	27066
822.289	26914
822.429	26667
822.569	26625
822.709	26495
822.849	26598
822.99	26609
823.13	26503
823.27	26480
823.41	26244
823.55	26195
823.69	26210
823.83	26374
823.97	26168
824.11	26176
824.25	25982
824.389	26161
824.529	26221
824.669	26214
824.809	26153
824.949	26282
825.089	26183
825.228	26103
825.368	25989
825.508	25986
825.648	26035
825.787	26081
825.927	26092
826.067	25974
826.206	25875
826.346	26100
826.485	25936
826.625	26069
826.765	26149
826.904	26153
827.044	25685
827.183	25723
827.323	25681
827.462	25864
827.601	25727
827.741	25822
827.88	25674
828.02	25708
828.159	25605
828.298	25700
828.437	25765
828.577	25632
828.716	25852
828.855	25529
828.994	25403
829.134	25411
829.273	25445
829.412	25453
829.551	25415
829.69	25377
829.829	25365
829.968	25544
830.107	25327
830.246	25415
830.385	25301
830.524	25225
830.663	25198
830.802	25095
830.941	25012
831.08	24981
831.219	25046
831.357	25099
831.496	25304
831.635	24977
831.774	24951
831.913	24939
832.051	24871
832.19	24859
832.329	24913
832.467	24726
832.606	24642
832.744	24460
832.883	24601
833.022	24730
833.16	24730
833.299	24711
833.437	24635
833.576	24821
833.714	24734
833.852	24772
833.991	24772
834.129	24924
834.267	24909
834.406	24703
834.544	24730
834.682	24935
834.821	24878
834.959	24939
835.097	24544
835.235	24764
835.373	24646
835.511	24669
835.65	24646
835.788	24555
835.926	24445
836.064	24407
836.202	24475
836.34	24703
836.478	24646
836.615	24578
836.753	24475
836.891	24559
837.029	24574
837.167	24555
837.305	24395
837.443	24505
837.58	24437
837.718	24578
837.856	24342
837.993	24365
838.131	24441
838.269	24273
838.406	24327
838.544	24201
838.681	24076
838.819	23996
838.956	23927
839.094	23992
839.231	23923
839.369	24072
839.506	24338
839.643	24163
839.781	23832
839.918	23699
840.055	23840
840.193	23798
840.33	23798
840.467	23821
840.604	23775
840.742	24110
840.879	23661
841.016	23687
841.153	23661
841.29	23916
841.427	23794
841.564	23889
841.701	23661
841.838	23665
841.975	23745
842.112	23646
842.249	23627
842.385	23566
842.522	23878
842.659	23547
842.796	23512
842.933	23547
843.069	23493
843.206	23471
843.343	23474
843.479	23558
843.616	23623
843.752	23379
843.889	23299
844.025	23417
844.162	23379
844.298	23383
844.435	23231
844.571	23273
844.708	23391
844.844	23551
844.98	23368
845.117	23398
845.253	23379
845.389	23140
845.525	23155
845.661	23071
845.798	22896
845.934	23121
846.07	22934
846.206	23056
846.342	23121
846.478	22968
846.614	22782
846.75	22816
846.886	22793
847.022	22828
847.158	22843
847.294	22847
847.429	22831
847.565	22679
847.701	22843
847.837	22481
847.972	22447
848.108	22474
848.244	22580
848.379	22470
848.515	22405
848.65	22348
848.786	22333
848.921	22440
849.057	22352
849.192	22443
849.328	22474
849.463	22375
849.598	22188
849.734	22230
849.869	22105
850.004	22158
850.14	22173
850.275	22124
850.41	22013
850.545	22154
850.68	22116
850.815	22116
850.95	22082
851.085	22356
851.22	22192
851.355	22173
851.49	22139
851.625	22067
851.76	22090
851.895	22013
852.03	22120
852.165	22109
852.299	22131
852.434	22215
852.569	22166
852.703	22223
852.838	22257
852.973	22196
853.107	22272
853.242	22025
853.376	21994
853.511	21778
853.645	21922
853.78	22036
853.914	21983
854.048	21915
854.183	21937
854.317	21994
854.451	22158
854.585	21869
854.72	21865
854.854	22063
854.988	21968
855.122	21934
855.256	21800
855.39	21854
855.524	21991
855.658	22032
855.792	22067
855.926	21987
856.06	21998
856.194	22021
856.327	21823
856.461	21918
856.595	21876
856.729	21880
856.862	21972
856.996	21975
857.13	21922
857.263	22086
857.397	22021
857.53	21926
857.664	21994
857.797	21953
857.931	22059
858.064	21983
858.197	22101
858.331	21850
858.464	21880
858.597	21819
858.731	21911
858.864	21857
858.997	21911
859.13	22139
859.263	21934
859.396	21895
859.529	21994
859.662	21831
859.795	21899
859.928	21785
860.061	22112
860.194	22074
860.327	22025
860.46	21888
860.592	21956
860.725	22139
860.858	21941
860.99	21854
861.123	21873
861.256	21934
861.388	21907
861.521	22421
861.653	21823
861.786	21755
861.918	21705
862.05	21827
862.183	21762
862.315	21918
862.447	21915
862.58	21884
862.712	21698
862.844	21603
862.976	21781
863.108	21701
863.24	21911
863.372	21599
863.504	21629
863.636	21682
863.768	21709
863.9	21686
864.032	21603
864.164	21675
864.296	21610
864.428	21755
864.559	21682
864.691	21770
864.823	21698
864.954	21576
865.086	21564
865.217	21553
865.349	21428
865.48	21523
865.612	21549
865.743	21610
865.875	21561
866.006	21507
866.137	21652
866.269	21530
866.4	21534
866.531	21420
866.662	21435
866.793	21416
866.924	21504
867.055	21454
867.186	21458
867.317	21477
867.448	21397
867.579	21450
867.71	21393
867.841	21275
867.972	21492
868.103	21542
868.233	21466
868.364	21545
868.495	21572
868.625	21686
868.756	21739
868.886	21728
869.017	21663
869.147	21785
869.278	21823
869.408	21690
869.539	21671
869.669	21739
869.799	21861
869.929	21854
870.06	21869
870.19	21983
870.32	21857
870.45	21964
870.58	22036
870.71	22105
870.84	22177
870.97	22093
871.1	22207
871.23	22333
871.36	22318
871.489	22261
871.619	22147
871.749	22173
871.879	22284
872.008	22348
872.138	22150
872.267	22303
872.397	22242
872.526	22112
872.656	22112
872.785	22048
872.915	22382
873.044	22363
873.173	22344
873.303	22405
873.432	22379
873.561	22474
873.69	22303
873.819	22207
873.948	22284
874.077	22268
874.206	22207
874.335	22249
874.464	22371
874.593	22516
874.722	22584
874.851	22626
874.979	22573
875.108	22592
875.237	22478
875.365	22379
875.494	22580
875.623	22493
875.751	22542
875.88	22554
876.008	22694
876.136	22729
876.265	22896
876.393	23052
876.521	22942
876.65	23041
876.778	22858
876.906	22900
877.034	22904
877.162	22911
877.29	22797
877.418	22934
877.546	22828
877.674	22904
877.802	22820
877.93	22820
878.058	22767
878.185	22744
878.313	22812
878.441	22801
878.568	22767
878.696	22615
878.824	22934
878.951	22885
879.079	23132
879.206	23124
879.333	23113
879.461	22904
879.588	22976
879.715	22991
879.842	23254
879.97	22957
880.097	22645
880.224	22733
880.351	22801
880.478	22767
880.605	22634
880.732	22691
880.859	22862
880.986	22645
881.112	22653
881.239	22580
881.366	22417
881.493	22299
881.619	22188
881.746	22341
881.872	22284
881.999	22200
882.125	22242
882.252	22223
882.378	22310
882.505	22314
882.631	22074
882.757	21888
882.883	22082
883.01	21922
883.136	21812
883.262	21694
883.388	21755
883.514	21869
883.64	21918
883.766	21785
883.892	21778
884.018	21675
884.143	21979
884.269	22032
884.395	21656
884.52	21675
884.646	21625
884.772	21622
884.897	21538
885.023	21603
885.148	21675
885.274	21660
885.399	21618
885.524	21576
885.65	21557
885.775	21641
885.9	21557
886.025	21701
886.15	21656
886.275	21572
886.4	21568
886.525	21637
886.65	21488
886.775	21606
886.9	21648
887.025	21781
887.149	21515
887.274	21355
887.399	21355
887.523	21405
887.648	21252
887.773	21260
887.897	21492
888.021	21439
888.146	21287
888.27	21428
888.395	21530
888.519	21386
888.643	21431
888.767	21420
888.891	21127
889.015	21116
889.139	21199
889.263	21028
889.387	21119
889.511	21336
889.635	21374
889.759	21123
889.883	21096
890.006	21077
890.13	21260
890.254	21043
890.377	21047
890.501	20876
890.624	20861
890.748	20883
890.871	20804
890.995	20693
891.118	20602
891.241	20731
891.364	20739
891.488	20762
891.611	20838
891.734	20697
891.857	20765
891.98	20785
892.103	20773
892.226	20712
892.349	20716
892.471	20560
892.594	20629
892.717	20579
892.839	20682
892.962	20602
893.085	20613
893.207	20533
893.33	20419
893.452	20625
893.575	20659
893.697	20503
893.819	20720
893.941	20811
894.064	20758
894.186	20533
894.308	20552
894.43	20636
894.552	20632
894.674	20720
894.796	20473
894.918	20514
895.04	20575
895.161	20670
895.283	20621
895.405	20476
895.526	20537
895.648	20511
895.769	20686
895.891	20613
896.012	20575
896.134	20598
896.255	20670
896.376	20461
896.498	20484
896.619	20735
896.74	20560
896.861	20724
896.982	20887
897.103	21036
897.224	20857
897.345	20781
897.466	20678
897.587	20887
897.708	20979
897.828	20777
897.949	20788
898.07	20655
898.19	20667
898.311	20906
898.431	20861
898.552	20773
898.672	20811
898.792	20929
898.913	20792
899.033	20777
899.153	20648
899.273	20419
899.393	20575
899.513	20545
899.633	20568
899.753	20617
899.873	20461
899.993	20507
900.113	20495
900.232	20499
900.352	20339
900.472	20362
900.591	20301
900.711	20248
900.83	20271
900.95	20438
901.069	20339
901.189	20229
901.308	20024
901.427	20001
901.546	19814
901.665	19772
901.784	19795
901.904	19879
902.023	19712
902.141	19533
902.26	19487
902.379	19537
902.498	19438
902.617	19324
902.735	19384
902.854	19301
902.973	19320
903.091	19198
903.21	18966
903.328	19038
903.446	18951
903.565	18859
903.683	18886
903.801	18715
903.919	18871
904.038	18738
904.156	18635
904.274	18707
904.392	18585
904.51	18631
904.627	18692
904.745	18604
904.863	18730
904.981	18448
905.098	18304
905.216	18338
905.334	18334
905.451	18308
905.569	18277
905.686	18319
905.803	18270
905.921	18171
906.038	18098
906.155	18102
906.272	18007
906.389	18064
906.506	17847
906.623	17939
906.74	17851
906.857	17665
906.974	17794
907.091	17942
907.208	17870
907.324	17843
907.441	17756
907.557	17627
907.674	17600
907.79	17455
907.907	17421
908.023	17630
908.139	17642
908.256	17474
908.372	17501
908.488	17387
908.604	17307
908.72	17269
908.836	17204
908.952	17345
909.068	17292
909.184	17372
909.3	17170
909.415	17284
909.531	17189
909.647	16900
909.762	17033
909.878	16934
909.993	16908
910.108	16866
910.224	16942
910.339	16873
910.454	16892
910.57	16706
910.685	16694
910.8	16976
910.915	16923
911.03	16774
911.145	16561
911.259	16660
911.374	16611
911.489	16462
911.604	16466
911.718	16223
911.833	16303
911.947	16207
912.062	16082
912.176	16299
912.291	16344
912.405	16325
912.519	16535
912.633	16481
912.748	16322
912.862	16333
912.976	16048
913.09	15964
913.204	16044
913.318	15979
913.431	16143
913.545	16306
913.659	16265
913.772	16074
913.886	15816
914	15930
914.113	16048
914.226	16025
914.34	15895
914.453	15926
914.566	15922
914.68	15751
914.793	15736
914.906	15660
915.019	15538
915.132	15401
915.245	15435
915.358	15538
915.47	15485
915.583	15405
915.696	15622
915.809	15637
915.921	15526
916.034	15500
916.146	15378
916.259	15363
916.371	15584
916.483	15587
916.595	15321
916.708	15313
916.82	15294
916.932	15264
917.044	15214
917.156	15237
917.268	15165
917.38	15138
917.491	15146
917.603	15184
917.715	15123
917.826	15199
917.938	15161
918.049	15009
918.161	15043
918.272	15294
918.384	15230
918.495	14998
918.606	14883
918.717	14864
918.828	14902
918.939	14925
919.05	14785
919.161	14876
919.272	14632
919.383	14674
919.494	14857
919.604	15036
919.715	14880
919.826	14811
919.936	14883
920.047	14956
920.157	14914
920.267	14975
920.378	14804
920.488	14826
920.598	15028
920.708	15146
920.818	14975
920.928	15013
921.038	15017
921.148	15028
921.258	14785
921.368	14617
921.477	14606
921.587	14590
921.697	14549
921.806	14587
921.916	14442
922.025	14229
922.134	14225
922.244	14138
922.353	14233
922.462	14005
922.571	14088
922.68	13852
922.789	13887
922.898	13784
923.007	13761
923.116	13868
923.224	13799
923.333	13807
923.442	13674
923.55	13704
923.659	13693
923.767	13738
923.876	13601
923.984	13700
924.092	13453
924.201	13628
924.309	13556
924.417	13548
924.525	13567
924.633	13506
924.741	14404
924.849	13266
924.956	13476
925.064	13278
925.172	13217
925.279	13244
925.387	13247
925.494	13304
925.602	13304
925.709	13251
925.816	13076
925.924	13266
926.031	13369
926.138	13206
926.245	13236
926.352	13088
926.459	13259
926.566	13221
926.673	13126
926.779	12962
926.886	12935
926.993	12821
927.099	12852
927.206	12795
927.312	12738
927.419	12837
927.525	12734
927.631	12776
927.737	12688
927.843	12703
927.95	12555
928.056	12608
928.162	12589
928.267	12711
928.373	13183
928.479	12582
928.585	12452
928.69	12570
928.796	12589
928.901	12399
929.007	12273
929.112	12460
929.218	12353
929.323	12353
929.428	12346
929.533	12448
929.638	12251
929.743	12209
929.848	12315
929.953	12251
930.058	12224
930.163	12079
930.267	11958
930.372	12201
930.477	11988
930.581	12350
930.685	12053
930.79	11927
930.894	11817
930.998	11836
931.103	12053
931.207	11699
931.311	11551
931.415	11512
931.519	11318
931.623	11261
