Data from test_V78500241_185.txt Node
Date: Fri Mar 25 15:43:05 CST 2022
User: usil
Spectrometer: V785-0024
Trigger mode: 0
Integration Time (sec): 4.000000E-1
Scans to average: 1
Nonlinearity correction enabled: false
Boxcar width: 0
Storing dark spectrum: false
XAxis mode: Wavelengths
Number of Pixels in Spectrum: 1024
>>>>>Begin Spectral Data<<<<<
801.071	29794
801.214	29889
801.356	29592
801.499	29482
801.641	29375
801.783	29337
801.926	29231
802.068	29250
802.211	29239
802.353	29162
802.496	28995
802.638	28881
802.78	28782
802.923	28835
803.065	28744
803.208	28847
803.35	28965
803.492	28965
803.635	29041
803.777	28923
803.919	29105
804.061	29387
804.204	28980
804.346	28991
804.488	28908
804.63	28930
804.773	28938
804.915	28965
805.057	29147
805.199	29014
805.341	29155
805.483	29269
805.626	29223
805.768	29006
805.91	29250
806.052	29223
806.194	29124
806.336	29296
806.478	29166
806.62	29124
806.762	29261
806.904	29391
807.046	29505
807.188	29474
807.33	29486
807.472	29653
807.614	29414
807.756	29296
807.898	29478
808.04	29227
808.182	29239
808.324	29311
808.465	29444
808.607	29501
808.749	29619
808.891	29767
809.033	29923
809.174	29813
809.316	29767
809.458	29760
809.6	29646
809.741	29855
809.883	29809
810.025	29912
810.166	29999
810.308	29920
810.45	29961
810.591	29775
810.733	29687
810.875	29577
811.016	29657
811.158	29585
811.299	29843
811.441	29961
811.582	29855
811.724	29623
811.865	29649
812.007	29668
812.148	29592
812.29	29802
812.431	29927
812.573	30076
812.714	30007
812.855	30152
812.997	30376
813.138	30349
813.279	30201
813.421	30140
813.562	30060
813.703	29988
813.845	29813
813.986	29524
814.127	29471
814.268	29364
814.41	29421
814.551	29337
814.692	29307
814.833	29132
814.974	29273
815.115	29178
815.256	29113
815.397	29258
815.539	29204
815.68	29071
815.821	28896
815.962	29075
816.103	29044
816.244	28812
816.385	28634
816.526	28645
816.666	28596
816.807	28375
816.948	28451
817.089	28615
817.23	28493
817.371	28451
817.512	28462
817.653	28459
817.793	28428
817.934	28409
818.075	28390
818.216	28386
818.356	28280
818.497	28360
818.638	28124
818.778	28169
818.919	28074
819.06	28162
819.2	28299
819.341	28295
819.481	28268
819.622	28527
819.762	28611
819.903	28717
820.043	28630
820.184	28322
820.324	28500
820.465	28668
820.605	28580
820.746	28424
820.886	28261
821.026	28421
821.167	28329
821.307	28451
821.447	28329
821.588	28303
821.728	28177
821.868	27869
822.008	27857
822.149	27747
822.289	27823
822.429	27523
822.569	27526
822.709	27325
822.849	27321
822.99	27302
823.13	27321
823.27	27207
823.41	27116
823.55	27001
823.69	27036
823.83	27123
823.97	26933
824.11	27009
824.25	26864
824.389	26765
824.529	26971
824.669	26891
824.809	27024
824.949	27036
825.089	27005
825.228	26998
825.368	26606
825.508	26811
825.648	26651
825.787	26811
825.927	26883
826.067	26712
826.206	26720
826.346	26609
826.485	26849
826.625	26659
826.765	26826
826.904	26590
827.044	26473
827.183	26396
827.323	26263
827.462	26396
827.601	26594
827.741	26328
827.88	26355
828.02	26366
828.159	26248
828.298	26408
828.437	26442
828.577	26164
828.716	26415
828.855	26191
828.994	26092
829.134	26138
829.273	26050
829.412	26134
829.551	26016
829.69	25978
829.829	26058
829.968	26065
830.107	26043
830.246	26001
830.385	26065
830.524	25902
830.663	25963
830.802	25647
830.941	25742
831.08	25533
831.219	25586
831.357	25510
831.496	25921
831.635	25613
831.774	25453
831.913	25419
832.051	25346
832.19	25304
832.329	25282
832.467	25198
832.606	25141
832.744	25255
832.883	25179
833.022	25133
833.16	25217
833.299	25308
833.437	25327
833.576	25164
833.714	25358
833.852	25377
833.991	25190
834.129	25270
834.267	25358
834.406	25274
834.544	25118
834.682	25282
834.821	25126
834.959	25266
835.097	25129
835.235	25141
835.373	25084
835.511	25129
835.65	25050
835.788	25080
835.926	24867
836.064	24753
836.202	24890
836.34	24935
836.478	25118
836.615	24951
836.753	25031
836.891	25095
837.029	25057
837.167	25008
837.305	24871
837.443	24875
837.58	24970
837.718	24905
837.856	24981
837.993	24833
838.131	24878
838.269	24719
838.406	24772
838.544	24578
838.681	24395
838.819	24460
838.956	24190
839.094	24258
839.231	24418
839.369	24403
839.506	24521
839.643	24376
839.781	24174
839.918	24125
840.055	24140
840.193	24133
840.33	24171
840.467	24133
840.604	24148
840.742	24380
840.879	23958
841.016	24095
841.153	23973
841.29	24251
841.427	24087
841.564	24068
841.701	24186
841.838	24034
841.975	23980
842.112	24114
842.249	23904
842.385	23954
842.522	23969
842.659	23832
842.796	23783
842.933	23779
843.069	23783
843.206	23737
843.343	23786
843.479	23866
843.616	23817
843.752	23684
843.889	23596
844.025	23718
844.162	23493
844.298	23589
844.435	23528
844.571	23512
844.708	23596
844.844	23630
844.98	23653
845.117	23543
845.253	23490
845.389	23425
845.525	23421
845.661	23444
845.798	23220
845.934	23265
846.07	23216
846.206	23212
846.342	23322
846.478	23178
846.614	23102
846.75	22881
846.886	22946
847.022	23079
847.158	22968
847.294	23044
847.429	22915
847.565	22862
847.701	23117
847.837	22584
847.972	22630
848.108	22919
848.244	22664
848.379	22637
848.515	22653
848.65	22615
848.786	22584
848.921	22459
849.057	22641
849.192	22713
849.328	22592
849.463	22493
849.598	22603
849.734	22402
849.869	22367
850.004	22314
850.14	22287
850.275	22405
850.41	22093
850.545	22162
850.68	22162
850.815	22284
850.95	22223
851.085	22375
851.22	22303
851.355	22261
851.49	22192
851.625	22192
851.76	22211
851.895	22169
852.03	22025
852.165	22200
852.299	22253
852.434	22207
852.569	22265
852.703	22207
852.838	22234
852.973	22402
853.107	22306
853.242	22200
853.376	22090
853.511	22105
853.645	22029
853.78	22188
853.914	21953
854.048	22112
854.183	21991
854.317	22048
854.451	22257
854.585	22032
854.72	21922
854.854	22013
854.988	22010
855.122	21983
855.256	21937
855.39	21991
855.524	22040
855.658	22002
855.792	22166
855.926	22044
856.06	22116
856.194	22158
856.327	22097
856.461	21926
856.595	21907
856.729	22006
856.862	22150
856.996	21979
857.13	22051
857.263	22112
857.397	22006
857.53	21968
857.664	22017
857.797	22006
857.931	22139
858.064	22078
858.197	22067
858.331	21945
858.464	21869
858.597	21899
858.731	22010
858.864	21903
858.997	22017
859.13	21907
859.263	22025
859.396	22013
859.529	21915
859.662	21880
859.795	21846
859.928	22006
860.061	22112
860.194	22192
860.327	22097
860.46	21987
860.592	22025
860.725	22154
860.858	22101
860.99	22013
861.123	21941
861.256	21831
861.388	21850
861.521	22675
861.653	21819
861.786	21682
861.918	21781
862.05	21945
862.183	21956
862.315	21899
862.447	22017
862.58	21953
862.712	21819
862.844	21656
862.976	21766
863.108	21743
863.24	22051
863.372	21462
863.504	21629
863.636	21701
863.768	21694
863.9	21618
864.032	21671
864.164	21477
864.296	21690
864.428	21766
864.559	21686
864.691	21739
864.823	21694
864.954	21530
865.086	21625
865.217	21492
865.349	21477
865.48	21660
865.612	21587
865.743	21629
865.875	21466
866.006	21408
866.137	21618
866.269	21576
866.4	21466
866.531	21473
866.662	21496
866.793	21485
866.924	21523
867.055	21515
867.186	21534
867.317	21401
867.448	21378
867.579	21466
867.71	21435
867.841	21298
867.972	21443
868.103	21523
868.233	21488
868.364	21511
868.495	21557
868.625	21595
868.756	21819
868.886	21557
869.017	21656
869.147	21762
869.278	21743
869.408	21709
869.539	21644
869.669	21675
869.799	21717
869.929	21846
870.06	21789
870.19	21899
870.32	21994
870.45	22086
870.58	22025
870.71	22055
870.84	22185
870.97	22051
871.1	22059
871.23	22169
871.36	22188
871.489	22188
871.619	22207
871.749	22226
871.879	22379
872.008	22436
872.138	22318
872.267	22173
872.397	22200
872.526	22131
872.656	22147
872.785	22150
872.915	22306
873.044	22268
873.173	22314
873.303	22310
873.432	22318
873.561	22421
873.69	22272
873.819	22143
873.948	22348
874.077	22314
874.206	22398
874.335	22261
874.464	22451
874.593	22531
874.722	22318
874.851	22573
874.979	22417
875.108	22554
875.237	22481
875.365	22493
875.494	22554
875.623	22519
875.751	22546
875.88	22409
876.008	22622
876.136	22801
876.265	23010
876.393	23071
876.521	22965
876.65	23003
876.778	22923
876.906	22850
877.034	22843
877.162	22965
877.29	22691
877.418	23029
877.546	22866
877.674	22831
877.802	22908
877.93	23064
878.058	22736
878.185	22702
878.313	22801
878.441	22862
878.568	22687
878.696	22736
878.824	22877
878.951	22980
879.079	22995
879.206	23151
879.333	22999
879.461	22984
879.588	22797
879.715	22949
879.842	23143
879.97	23044
880.097	22733
880.224	22694
880.351	22618
880.478	22736
880.605	22717
880.732	22763
880.859	22889
880.986	22816
881.112	22694
881.239	22516
881.366	22371
881.493	22440
881.619	22268
881.746	22291
881.872	22272
881.999	22131
882.125	22219
882.252	22268
882.378	22268
882.505	22402
882.631	22124
882.757	21892
882.883	22177
883.01	21865
883.136	21968
883.262	21918
883.388	21827
883.514	22017
883.64	22010
883.766	21884
883.892	21812
884.018	21827
884.143	21983
884.269	22013
884.395	21667
884.52	21549
884.646	21625
884.772	21572
884.897	21511
885.023	21561
885.148	21694
885.274	21781
885.399	21720
885.524	21576
885.65	21610
885.775	21705
885.9	21500
886.025	21679
886.15	21652
886.275	21587
886.4	21424
886.525	21466
886.65	21450
886.775	21477
886.9	21667
887.025	21835
887.149	21523
887.274	21469
887.399	21283
887.523	21363
887.648	21355
887.773	21272
887.897	21405
888.021	21351
888.146	21298
888.27	21393
888.395	21462
888.519	21420
888.643	21500
888.767	21332
888.891	21214
889.015	21096
889.139	21264
889.263	21123
889.387	21203
889.511	21393
889.635	21180
889.759	21135
889.883	21226
890.006	21055
890.13	21195
890.254	21028
890.377	21096
890.501	20899
890.624	20880
890.748	20887
890.871	20724
890.995	20705
891.118	20609
891.241	20651
891.364	20636
891.488	20857
891.611	20689
891.734	20587
891.857	20693
891.98	20598
892.103	20579
892.226	20686
892.349	20617
892.471	20438
892.594	20568
892.717	20621
892.839	20632
892.962	20511
893.085	20629
893.207	20625
893.33	20495
893.452	20518
893.575	20648
893.697	20514
893.819	20667
893.941	20640
894.064	20701
894.186	20514
894.308	20476
894.43	20629
894.552	20674
894.674	20674
894.796	20465
894.918	20514
895.04	20530
895.161	20594
895.283	20609
895.405	20579
895.526	20492
895.648	20617
895.769	20564
895.891	20693
896.012	20762
896.134	20636
896.255	20579
896.376	20564
896.498	20629
896.619	20788
896.74	20655
896.861	20648
896.982	20864
897.103	21020
897.224	20982
897.345	20807
897.466	20792
897.587	20735
897.708	20967
897.828	20880
897.949	20708
898.07	20632
898.19	20689
898.311	20845
898.431	20769
898.552	20773
898.672	20720
898.792	20762
898.913	20705
899.033	20568
899.153	20526
899.273	20522
899.393	20431
899.513	20499
899.633	20457
899.753	20469
899.873	20301
899.993	20541
900.113	20355
900.232	20427
900.352	20336
900.472	20366
900.591	20199
900.711	20271
900.83	20119
900.95	20381
901.069	20301
901.189	20180
901.308	20020
901.427	19822
901.546	19982
901.665	19868
901.784	19841
901.904	19674
902.023	19552
902.141	19415
902.26	19327
902.379	19400
902.498	19301
902.617	19327
902.735	19403
902.854	19373
902.973	19148
903.091	19012
903.21	18939
903.328	19057
903.446	18947
903.565	18833
903.683	18886
903.801	18658
903.919	18726
904.038	18574
904.156	18403
904.274	18669
904.392	18574
904.51	18635
904.627	18589
904.745	18582
904.863	18597
904.981	18323
905.098	18106
905.216	18174
905.334	18190
905.451	18178
905.569	18133
905.686	18251
905.803	18232
905.921	18064
906.038	18091
906.155	17958
906.272	17851
906.389	17802
906.506	17737
906.623	17783
906.74	17824
906.857	17653
906.974	17623
907.091	17760
907.208	17870
907.324	17646
907.441	17573
907.557	17372
907.674	17353
907.79	17330
907.907	17425
908.023	17440
908.139	17284
908.256	17356
908.372	17303
908.488	17185
908.604	17155
908.72	17071
908.836	17075
908.952	17151
909.068	17086
909.184	17162
909.3	17124
909.415	17151
909.531	17113
909.647	16812
909.762	16820
909.878	16736
909.993	16904
910.108	16744
910.224	16660
910.339	16702
910.454	16637
910.57	16573
910.685	16542
910.8	16733
910.915	16706
911.03	16599
911.145	16344
911.259	16413
911.374	16295
911.489	16299
911.604	16135
911.718	16101
911.833	16116
911.947	16078
912.062	16017
912.176	16150
912.291	16272
912.405	16188
912.519	16268
912.633	16261
912.748	16131
912.862	16071
912.976	15956
913.09	15895
913.204	15865
913.318	15937
913.431	16029
913.545	15892
913.659	15998
913.772	15873
913.886	15762
914	15610
914.113	15717
914.226	15873
914.34	15762
914.453	15622
914.566	15690
914.68	15538
914.793	15576
914.906	15317
915.019	15382
915.132	15287
915.245	15237
915.358	15401
915.47	15310
915.583	15294
915.696	15272
915.809	15466
915.921	15443
916.034	15306
916.146	15226
916.259	15192
916.371	15332
916.483	15279
916.595	15146
916.708	15188
916.82	15100
916.932	15127
917.044	15112
917.156	15005
917.268	14960
917.38	14948
917.491	14918
917.603	14979
917.715	15036
917.826	14975
917.938	14864
918.049	14800
918.161	14902
918.272	15039
918.384	14975
918.495	14849
918.606	14785
918.717	14568
918.828	14693
918.939	14648
919.05	14533
919.161	14705
919.272	14495
919.383	14545
919.494	14644
919.604	14819
919.715	14632
919.826	14530
919.936	14590
920.047	14621
920.157	14655
920.267	14830
920.378	14689
920.488	14583
920.598	14788
920.708	14868
920.818	14705
920.928	14762
921.038	14937
921.148	14838
921.258	14625
921.368	14362
921.477	14278
921.587	14362
921.697	14229
921.806	14385
921.916	14206
922.025	13986
922.134	13974
922.244	13917
922.353	13936
922.462	13788
922.571	13700
922.68	13639
922.789	13575
922.898	13559
923.007	13616
923.116	13639
923.224	13544
923.333	13643
923.442	13495
923.55	13434
923.659	13308
923.767	13480
923.876	13343
923.984	13441
924.092	13346
924.201	13358
924.309	13324
924.417	13308
924.525	13255
924.633	13221
924.741	13963
924.849	13091
924.956	13126
925.064	13050
925.172	12977
925.279	13042
925.387	12966
925.494	12909
925.602	13133
925.709	13042
925.816	12886
925.924	12962
926.031	13008
926.138	12897
926.245	12939
926.352	12787
926.459	13000
926.566	12993
926.673	12848
926.779	12749
926.886	12768
926.993	12585
927.099	12612
927.206	12540
927.312	12441
927.419	12662
927.525	12559
927.631	12559
927.737	12486
927.843	12346
927.95	12266
928.056	12391
928.162	12494
928.267	12445
928.373	13053
928.479	12475
928.585	12194
928.69	12365
928.796	12346
928.901	12247
929.007	12060
929.112	12243
929.218	12220
929.323	12194
929.428	12140
929.533	12239
929.638	12003
929.743	12136
929.848	12053
929.953	12095
930.058	11988
930.163	11809
930.267	11817
930.372	11954
930.477	11710
930.581	11977
930.685	11828
930.79	11589
930.894	11699
930.998	11649
931.103	11703
931.207	11364
931.311	11360
931.415	11303
931.519	11041
931.623	10972
