Data from test_V78500241_2689.txt Node
Date: Fri Mar 25 16:00:25 CST 2022
User: usil
Spectrometer: V785-0024
Trigger mode: 0
Integration Time (sec): 4.000000E-1
Scans to average: 1
Nonlinearity correction enabled: false
Boxcar width: 0
Storing dark spectrum: false
XAxis mode: Wavelengths
Number of Pixels in Spectrum: 1024
>>>>>Begin Spectral Data<<<<<
801.071	28626
801.214	28656
801.356	28421
801.499	28371
801.641	28257
801.783	28200
801.926	28299
802.068	28253
802.211	28131
802.353	28211
802.496	28017
802.638	27930
802.78	27835
802.923	27937
803.065	27789
803.208	27842
803.35	27781
803.492	28029
803.635	28055
803.777	28006
803.919	28154
804.061	28409
804.204	28341
804.346	28044
804.488	28147
804.63	28082
804.773	28116
804.915	28211
805.057	28291
805.199	28196
805.341	28253
805.483	28238
805.626	28344
805.768	28226
805.91	28200
806.052	28268
806.194	28360
806.336	28348
806.478	28455
806.62	28284
806.762	28474
806.904	28603
807.046	28790
807.188	28740
807.33	29018
807.472	28710
807.614	28596
807.756	28706
807.898	28542
808.04	28523
808.182	28588
808.324	28755
808.465	28664
808.607	28759
808.749	29113
808.891	29052
809.033	29132
809.174	29037
809.316	29003
809.458	28949
809.6	28888
809.741	29014
809.883	29010
810.025	29242
810.166	29147
810.308	29288
810.45	29246
810.591	29292
810.733	29060
810.875	29113
811.016	28965
811.158	28968
811.299	29136
811.441	29204
811.582	29094
811.724	29014
811.865	28915
812.007	29052
812.148	29006
812.29	28908
812.431	29052
812.573	29341
812.714	29493
812.855	29516
812.997	29516
813.138	29668
813.279	29684
813.421	29649
813.562	29486
813.703	29387
813.845	29280
813.986	28942
814.127	28778
814.268	28675
814.41	28721
814.551	28615
814.692	28900
814.833	28774
814.974	28740
815.115	28812
815.256	28668
815.397	28626
815.539	28478
815.68	28474
815.821	28440
815.962	28569
816.103	28626
816.244	28500
816.385	28325
816.526	28291
816.666	28090
816.807	28040
816.948	28074
817.089	28124
817.23	28105
817.371	28036
817.512	27907
817.653	28063
817.793	28029
817.934	27979
818.075	28059
818.216	27975
818.356	27930
818.497	27846
818.638	27656
818.778	27736
818.919	27785
819.06	27934
819.2	27914
819.341	28013
819.481	28097
819.622	28173
819.762	28322
819.903	28276
820.043	28242
820.184	28223
820.324	28185
820.465	28238
820.605	28158
820.746	28223
820.886	28002
821.026	28200
821.167	28021
821.307	28059
821.447	27998
821.588	28021
821.728	27873
821.868	27861
822.008	27530
822.149	27454
822.289	27625
822.429	27256
822.569	27119
822.709	27298
822.849	27116
822.99	27169
823.13	26994
823.27	26960
823.41	26895
823.55	26659
823.69	26743
823.83	26842
823.97	26899
824.11	26549
824.25	26549
824.389	26632
824.529	26758
824.669	26667
824.809	26857
824.949	26804
825.089	26739
825.228	26617
825.368	26568
825.508	26393
825.648	26549
825.787	26541
825.927	26579
826.067	26488
826.206	26511
826.346	26530
826.485	26701
826.625	26632
826.765	26518
826.904	26511
827.044	26377
827.183	26229
827.323	26244
827.462	26537
827.601	26256
827.741	26305
827.88	26328
828.02	26275
828.159	26229
828.298	26256
828.437	26324
828.577	26202
828.716	26290
828.855	26122
828.994	25913
829.134	25807
829.273	25997
829.412	25898
829.551	25894
829.69	25837
829.829	25906
829.968	25947
830.107	25951
830.246	26039
830.385	25818
830.524	25868
830.663	25776
830.802	25795
830.941	25632
831.08	25495
831.219	25620
831.357	25514
831.496	25868
831.635	25601
831.774	25457
831.913	25464
832.051	25411
832.19	25350
832.329	25232
832.467	25251
832.606	25259
832.744	25320
832.883	25171
833.022	25213
833.16	25141
833.299	25312
833.437	25255
833.576	25270
833.714	25358
833.852	25441
833.991	25251
834.129	25403
834.267	25384
834.406	25282
834.544	25164
834.682	25346
834.821	25293
834.959	25434
835.097	25171
835.235	25339
835.373	25289
835.511	25365
835.65	25133
835.788	25179
835.926	25053
836.064	24844
836.202	25012
836.34	25126
836.478	25179
836.615	25031
836.753	25038
836.891	25137
837.029	25091
837.167	25057
837.305	24981
837.443	24939
837.58	24901
837.718	25038
837.856	24935
837.993	24935
838.131	24962
838.269	24821
838.406	24779
838.544	24669
838.681	24635
838.819	24635
838.956	24304
839.094	24452
839.231	24604
839.369	24585
839.506	24833
839.643	24673
839.781	24376
839.918	24403
840.055	24266
840.193	24422
840.33	24289
840.467	24323
840.604	24395
840.742	24658
840.879	24163
841.016	24266
841.153	24243
841.29	24330
841.427	24224
841.564	24384
841.701	24270
841.838	24304
841.975	24114
842.112	24205
842.249	24163
842.385	23980
842.522	24201
842.659	24152
842.796	24003
842.933	24022
843.069	24018
843.206	24045
843.343	23984
843.479	24311
843.616	23946
843.752	23855
843.889	23824
844.025	23973
844.162	23958
844.298	23939
844.435	23870
844.571	23733
844.708	23980
844.844	23984
844.98	23958
845.117	23916
845.253	23615
845.389	23824
845.525	23615
845.661	23657
845.798	23589
845.934	23562
846.07	23562
846.206	23672
846.342	23676
846.478	23566
846.614	23368
846.75	23318
846.886	23353
847.022	23345
847.158	23376
847.294	23273
847.429	23356
847.565	23337
847.701	23459
847.837	23022
847.972	22987
848.108	23143
848.244	23246
848.379	22877
848.515	22790
848.65	22790
848.786	22896
848.921	22908
849.057	23022
849.192	22862
849.328	22984
849.463	22858
849.598	22816
849.734	22717
849.869	22672
850.004	22672
850.14	22622
850.275	22664
850.41	22516
850.545	22569
850.68	22622
850.815	22626
850.95	22596
851.085	22790
851.22	22687
851.355	22702
851.49	22592
851.625	22630
851.76	22618
851.895	22550
852.03	22485
852.165	22470
852.299	22546
852.434	22801
852.569	22656
852.703	22573
852.838	22828
852.973	22828
853.107	22805
853.242	22573
853.376	22489
853.511	22295
853.645	22379
853.78	22519
853.914	22531
854.048	22268
854.183	22398
854.317	22497
854.451	22474
854.585	22447
854.72	22462
854.854	22546
854.988	22474
855.122	22352
855.256	22424
855.39	22352
855.524	22527
855.658	22546
855.792	22493
855.926	22394
856.06	22573
856.194	22538
856.327	22436
856.461	22405
856.595	22352
856.729	22386
856.862	22599
856.996	22443
857.13	22531
857.263	22546
857.397	22531
857.53	22462
857.664	22508
857.797	22470
857.931	22546
858.064	22455
858.197	22531
858.331	22375
858.464	22405
858.597	22367
858.731	22459
858.864	22322
858.997	22455
859.13	22504
859.263	22382
859.396	22531
859.529	22333
859.662	22367
859.795	22481
859.928	22310
860.061	22637
860.194	22656
860.327	22637
860.46	22489
860.592	22550
860.725	22611
860.858	22660
860.99	22512
861.123	22360
861.256	22417
861.388	22596
861.521	23200
861.653	22299
861.786	22280
861.918	22371
862.05	22333
862.183	22417
862.315	22432
862.447	22428
862.58	22344
862.712	22124
862.844	22192
862.976	22242
863.108	22348
863.24	22485
863.372	22070
863.504	22143
863.636	22135
863.768	22249
863.9	22074
864.032	22185
864.164	22207
864.296	22207
864.428	22265
864.559	22226
864.691	22204
864.823	22154
864.954	22093
865.086	22150
865.217	22086
865.349	21994
865.48	22158
865.612	22192
865.743	21998
865.875	22032
866.006	21968
866.137	21998
866.269	21949
866.4	22067
866.531	22006
866.662	21800
866.793	22074
866.924	21960
867.055	22010
867.186	21880
867.317	21937
867.448	21808
867.579	21956
867.71	21861
867.841	21892
867.972	21979
868.103	21949
868.233	21941
868.364	21895
868.495	21960
868.625	21998
868.756	22280
868.886	22112
869.017	22291
869.147	22268
869.278	22322
869.408	22257
869.539	22261
869.669	22314
869.799	22344
869.929	22382
870.06	22295
870.19	22523
870.32	22618
870.45	22493
870.58	22580
870.71	22744
870.84	22687
870.97	22660
871.1	22573
871.23	22668
871.36	22831
871.489	22683
871.619	22793
871.749	22866
871.879	22908
872.008	22930
872.138	22790
872.267	22854
872.397	22721
872.526	22653
872.656	22596
872.785	22672
872.915	22805
873.044	22980
873.173	22885
873.303	22786
873.432	22896
873.561	22900
873.69	22717
873.819	22797
873.948	22961
874.077	23025
874.206	22904
874.335	22740
874.464	22968
874.593	23064
874.722	22961
874.851	23018
874.979	23109
875.108	23067
875.237	23025
875.365	22919
875.494	23094
875.623	23151
875.751	23003
875.88	23102
876.008	23299
876.136	23223
876.265	23455
876.393	23493
876.521	23493
876.65	23573
876.778	23311
876.906	23341
877.034	23341
877.162	23474
877.29	23334
877.418	23330
877.546	23440
877.674	23414
877.802	23410
877.93	23490
878.058	23288
878.185	23299
878.313	23326
878.441	23395
878.568	23299
878.696	23341
878.824	23425
878.951	23383
879.079	23642
879.206	23668
879.333	23493
879.461	23657
879.588	23531
879.715	23501
879.842	23741
879.97	23547
880.097	23212
880.224	23223
880.351	23212
880.478	23277
880.605	23246
880.732	23124
880.859	23497
880.986	23208
881.112	23288
881.239	23098
881.366	22965
881.493	22850
881.619	22809
881.746	22736
881.872	22691
881.999	22854
882.125	22771
882.252	22854
882.378	22782
882.505	22934
882.631	22698
882.757	22485
882.883	22493
883.01	22493
883.136	22592
883.262	22238
883.388	22367
883.514	22508
883.64	22447
883.766	22455
883.892	22242
884.018	22306
884.143	22344
884.269	22554
884.395	22253
884.52	22067
884.646	22200
884.772	22124
884.897	22010
885.023	22131
885.148	22219
885.274	22295
885.399	22166
885.524	22101
885.65	22276
885.775	22139
885.9	22002
886.025	22147
886.15	22223
886.275	21998
886.4	22067
886.525	22078
886.65	21922
886.775	21975
886.9	22242
887.025	22318
887.149	21998
887.274	21907
887.399	21941
887.523	21846
887.648	21774
887.773	21701
887.897	21956
888.021	21835
888.146	21675
888.27	21838
888.395	21865
888.519	21949
888.643	21941
888.767	22010
888.891	21690
889.015	21713
889.139	21701
889.263	21622
889.387	21732
889.511	21888
889.635	21850
889.759	21618
889.883	21534
890.006	21595
890.13	21675
890.254	21545
890.377	21629
890.501	21386
890.624	21351
890.748	21481
890.871	21310
890.995	21142
891.118	21100
891.241	21207
891.364	21154
891.488	21351
891.611	21119
891.734	21169
891.857	21169
891.98	21207
892.103	21119
892.226	21222
892.349	21211
892.471	20990
892.594	21142
892.717	21017
892.839	21100
892.962	21093
893.085	21157
893.207	21036
893.33	21024
893.452	20948
893.575	21157
893.697	21096
893.819	21252
893.941	21344
894.064	21260
894.186	21051
894.308	20925
894.43	21180
894.552	21218
894.674	21169
894.796	21100
894.918	21096
895.04	21138
895.161	21279
895.283	21077
895.405	21028
895.526	21077
895.648	21055
895.769	21108
895.891	21047
896.012	21230
896.134	21161
896.255	21146
896.376	20948
896.498	21093
896.619	21188
896.74	21108
896.861	21112
896.982	21272
897.103	21408
897.224	21321
897.345	21256
897.466	21184
897.587	21291
897.708	21313
897.828	21268
897.949	21241
898.07	21173
898.19	21066
898.311	21355
898.431	21260
898.552	21302
898.672	21310
898.792	21382
898.913	21237
899.033	21154
899.153	21036
899.273	20944
899.393	20975
899.513	20944
899.633	20929
899.753	21017
899.873	20948
899.993	21085
900.113	20906
900.232	20925
900.352	21017
900.472	20750
900.591	20724
900.711	20819
900.83	20777
900.95	20895
901.069	20880
901.189	20655
901.308	20423
901.427	20336
901.546	20351
901.665	20336
901.784	20309
901.904	20252
902.023	20107
902.141	19936
902.26	19879
902.379	20008
902.498	19833
902.617	19925
902.735	19791
902.854	19833
902.973	19761
903.091	19529
903.21	19544
903.328	19483
903.446	19491
903.565	19381
903.683	19251
903.801	19148
903.919	19304
904.038	19266
904.156	18996
904.274	19061
904.392	19023
904.51	19103
904.627	19080
904.745	19141
904.863	19122
904.981	18840
905.098	18757
905.216	18665
905.334	18764
905.451	18738
905.569	18711
905.686	18768
905.803	18665
905.921	18502
906.038	18582
906.155	18525
906.272	18414
906.389	18437
906.506	18277
906.623	18319
906.74	18216
906.857	18083
906.974	18194
907.091	18334
907.208	18346
907.324	18205
907.441	18049
907.557	17977
907.674	17996
907.79	17786
907.907	17958
908.023	17958
908.139	17878
908.256	17946
908.372	17699
908.488	17817
908.604	17802
908.72	17687
908.836	17627
908.952	17611
909.068	17726
909.184	17687
909.3	17630
909.415	17714
909.531	17615
909.647	17463
909.762	17391
909.878	17421
909.993	17497
910.108	17296
910.224	17360
910.339	17296
910.454	17197
910.57	17258
910.685	17155
910.8	17356
910.915	17269
911.03	17094
911.145	16995
911.259	16972
911.374	17010
911.489	16923
911.604	16797
911.718	16733
911.833	16767
911.947	16599
912.062	16615
912.176	16771
912.291	16725
912.405	16672
912.519	16854
912.633	16816
912.748	16634
912.862	16645
912.976	16569
913.09	16485
913.204	16474
913.318	16478
913.431	16634
913.545	16554
913.659	16626
913.772	16485
913.886	16287
914	16272
914.113	16413
914.226	16485
914.34	16344
914.453	16246
914.566	16375
914.68	16192
914.793	16124
914.906	15888
915.019	15812
915.132	15774
915.245	15854
915.358	15869
915.47	15903
915.583	15873
915.696	15941
915.809	16021
915.921	16013
916.034	15880
916.146	15743
916.259	15701
916.371	15800
916.483	15686
916.595	15671
916.708	15698
916.82	15679
916.932	15679
917.044	15603
917.156	15595
917.268	15572
917.38	15564
917.491	15576
917.603	15507
917.715	15416
917.826	15633
917.938	15496
918.049	15367
918.161	15473
918.272	15576
918.384	15561
918.495	15462
918.606	15241
918.717	15214
918.828	15283
918.939	15211
919.05	15195
919.161	15207
919.272	15024
919.383	15005
919.494	15272
919.604	15435
919.715	15203
919.826	15123
919.936	15146
920.047	15279
920.157	15264
920.267	15237
920.378	15211
920.488	15085
920.598	15241
920.708	15481
920.818	15325
920.928	15264
921.038	15606
921.148	15382
921.258	15062
921.368	15028
921.477	14910
921.587	14891
921.697	14743
921.806	14899
921.916	14746
922.025	14575
922.134	14499
922.244	14507
922.353	14522
922.462	14339
922.571	14313
922.68	14164
922.789	14164
922.898	14199
923.007	14168
923.116	14180
923.224	14092
923.333	14172
923.442	14039
923.55	14039
923.659	14031
923.767	14046
923.876	13963
923.984	14001
924.092	13875
924.201	13963
924.309	13967
924.417	13913
924.525	13811
924.633	13833
924.741	14762
924.849	13628
924.956	13689
925.064	13624
925.172	13586
925.279	13552
925.387	13616
925.494	13540
925.602	13772
925.709	13578
925.816	13419
925.924	13571
926.031	13601
926.138	13499
926.245	13529
926.352	13453
926.459	13540
926.566	13491
926.673	13434
926.779	13320
926.886	13362
926.993	13129
927.099	13118
927.206	13053
927.312	12970
927.419	13187
927.525	13038
927.631	13240
927.737	12973
927.843	12924
927.95	12894
928.056	12848
928.162	12943
928.267	12897
928.373	13476
928.479	12954
928.585	12783
928.69	12840
928.796	12916
928.901	12795
929.007	12703
929.112	12890
929.218	12753
929.323	12601
929.428	12696
929.533	12753
929.638	12513
929.743	12506
929.848	12639
929.953	12540
930.058	12448
930.163	12251
930.267	12254
930.372	12399
930.477	12197
930.581	12517
930.685	12277
930.79	12232
930.894	12148
930.998	12117
931.103	12281
931.207	11874
931.311	11866
931.415	11729
931.519	11547
931.623	11505
