Data from test_V78500241_1982.txt Node
Date: Fri Mar 25 15:55:31 CST 2022
User: usil
Spectrometer: V785-0024
Trigger mode: 0
Integration Time (sec): 4.000000E-1
Scans to average: 1
Nonlinearity correction enabled: false
Boxcar width: 0
Storing dark spectrum: false
XAxis mode: Wavelengths
Number of Pixels in Spectrum: 1024
>>>>>Begin Spectral Data<<<<<
801.071	28143
801.214	28051
801.356	27960
801.499	27812
801.641	27618
801.783	27770
801.926	27724
802.068	27660
802.211	27770
802.353	27671
802.496	27534
802.638	27469
802.78	27363
802.923	27264
803.065	27294
803.208	27344
803.35	27378
803.492	27469
803.635	27637
803.777	27447
803.919	27618
804.061	27854
804.204	27728
804.346	27705
804.488	27637
804.63	27526
804.773	27587
804.915	27603
805.057	27751
805.199	27648
805.341	27633
805.483	27743
805.626	27698
805.768	27610
805.91	27705
806.052	27812
806.194	27698
806.336	27842
806.478	27831
806.62	27667
806.762	27926
806.904	27979
807.046	28257
807.188	28063
807.33	28169
807.472	28173
807.614	28200
807.756	28150
807.898	28150
808.04	28036
808.182	28025
808.324	28196
808.465	28185
808.607	28337
808.749	28390
808.891	28580
809.033	28683
809.174	28580
809.316	28363
809.458	28360
809.6	28310
809.741	28615
809.883	28588
810.025	28577
810.166	28653
810.308	28759
810.45	28641
810.591	28535
810.733	28417
810.875	28405
811.016	28367
811.158	28173
811.299	28557
811.441	28519
811.582	28725
811.724	28341
811.865	28215
812.007	28481
812.148	28401
812.29	28485
812.431	28622
812.573	28687
812.714	28911
812.855	28896
812.997	28934
813.138	29071
813.279	28908
813.421	28938
813.562	28869
813.703	28725
813.845	28656
813.986	28329
814.127	28230
814.268	28135
814.41	28010
814.551	28135
814.692	28261
814.833	27972
814.974	27987
815.115	28063
815.256	27911
815.397	28040
815.539	28010
815.68	27884
815.821	27880
815.962	28017
816.103	27937
816.244	27831
816.385	27728
816.526	27599
816.666	27652
816.807	27416
816.948	27488
817.089	27530
817.23	27363
817.371	27450
817.512	27523
817.653	27313
817.793	27203
817.934	27340
818.075	27424
818.216	27530
818.356	27260
818.497	27340
818.638	27192
818.778	27119
818.919	27321
819.06	27252
819.2	27424
819.341	27291
819.481	27287
819.622	27523
819.762	27766
819.903	27614
820.043	27549
820.184	27511
820.324	27739
820.465	27663
820.605	27553
820.746	27629
820.886	27332
821.026	27549
821.167	27481
821.307	27534
821.447	27447
821.588	27359
821.728	27157
821.868	27070
822.008	26849
822.149	26887
822.289	26876
822.429	26613
822.569	26568
822.709	26594
822.849	26332
822.99	26400
823.13	26351
823.27	26252
823.41	26176
823.55	25978
823.69	26202
823.83	26202
823.97	25997
824.11	26084
824.25	26100
824.389	26084
824.529	26081
824.669	26096
824.809	26153
824.949	26043
825.089	26145
825.228	26054
825.368	25807
825.508	25826
825.648	25932
825.787	25883
825.927	25940
826.067	25959
826.206	25803
826.346	25951
826.485	25902
826.625	25864
826.765	25970
826.904	25970
827.044	25476
827.183	25655
827.323	25548
827.462	25597
827.601	25769
827.741	25472
827.88	25655
828.02	25487
828.159	25563
828.298	25666
828.437	25689
828.577	25575
828.716	25620
828.855	25628
828.994	25297
829.134	25369
829.273	25301
829.412	25217
829.551	25270
829.69	25308
829.829	25259
829.968	25381
830.107	25407
830.246	25278
830.385	25293
830.524	25133
830.663	25152
830.802	25080
830.941	24833
831.08	24909
831.219	25004
831.357	25050
831.496	25114
831.635	24856
831.774	24932
831.913	24745
832.051	24627
832.19	24665
832.329	24821
832.467	24498
832.606	24525
832.744	24627
832.883	24654
833.022	24475
833.16	24544
833.299	24604
833.437	24604
833.576	24616
833.714	24658
833.852	24627
833.991	24597
834.129	24783
834.267	24635
834.406	24566
834.544	24703
834.682	24578
834.821	24498
834.959	24817
835.097	24639
835.235	24783
835.373	24585
835.511	24665
835.65	24448
835.788	24517
835.926	24342
836.064	24327
836.202	24346
836.34	24460
836.478	24623
836.615	24407
836.753	24334
836.891	24513
837.029	24544
837.167	24513
837.305	24414
837.443	24281
837.58	24311
837.718	24429
837.856	24213
837.993	24197
838.131	24273
838.269	24133
838.406	24163
838.544	24213
838.681	23946
838.819	23813
838.956	23893
839.094	23885
839.231	23813
839.369	23946
839.506	24140
839.643	24053
839.781	23855
839.918	23813
840.055	23794
840.193	23783
840.33	23752
840.467	23668
840.604	23718
840.742	23912
840.879	23528
841.016	23497
841.153	23661
841.29	23832
841.427	23649
841.564	23661
841.701	23589
841.838	23661
841.975	23718
842.112	23539
842.249	23570
842.385	23554
842.522	23657
842.659	23398
842.796	23395
842.933	23524
843.069	23425
843.206	23326
843.343	23482
843.479	23497
843.616	23436
843.752	23212
843.889	23155
844.025	23212
844.162	23284
844.298	23315
844.435	23204
844.571	23200
844.708	23269
844.844	23185
844.98	23364
845.117	23273
845.253	23273
845.389	23037
845.525	23140
845.661	22976
845.798	22946
845.934	23109
846.07	22957
846.206	23083
846.342	23109
846.478	22809
846.614	22763
846.75	22561
846.886	22748
847.022	22694
847.158	22531
847.294	22683
847.429	22706
847.565	22653
847.701	22927
847.837	22466
847.972	22337
848.108	22618
848.244	22428
848.379	22234
848.515	22322
848.65	22276
848.786	22314
848.921	22204
849.057	22314
849.192	22303
849.328	22352
849.463	22226
849.598	22295
849.734	22143
849.869	22093
850.004	22013
850.14	22120
850.275	22025
850.41	21953
850.545	21892
850.68	21983
850.815	21960
850.95	22078
851.085	22169
851.22	22139
851.355	22147
851.49	22063
851.625	21930
851.76	21953
851.895	21975
852.03	22048
852.165	21998
852.299	22032
852.434	22044
852.569	22112
852.703	21987
852.838	22162
852.973	22192
853.107	22105
853.242	21998
853.376	21975
853.511	21804
853.645	21778
853.78	22067
853.914	21949
854.048	21781
854.183	21835
854.317	21762
854.451	22074
854.585	21869
854.72	21960
854.854	21816
854.988	21842
855.122	21861
855.256	21701
855.39	21911
855.524	21854
855.658	21873
855.792	21880
855.926	21846
856.06	21945
856.194	22032
856.327	21911
856.461	21819
856.595	21854
856.729	21812
856.862	21994
856.996	21831
857.13	21876
857.263	21975
857.397	21934
857.53	21911
857.664	21899
857.797	21888
857.931	21975
858.064	21907
858.197	22048
858.331	21812
858.464	21823
858.597	21755
858.731	21812
858.864	21800
858.997	21766
859.13	21831
859.263	21846
859.396	21880
859.529	21838
859.662	21781
859.795	21705
859.928	21922
860.061	22044
860.194	22070
860.327	21918
860.46	21926
860.592	21899
860.725	22086
860.858	22051
860.99	21778
861.123	21736
861.256	21778
861.388	21972
861.521	22637
861.653	21778
861.786	21545
861.918	21705
862.05	21622
862.183	21736
862.315	21705
862.447	21869
862.58	21819
862.712	21591
862.844	21481
862.976	21606
863.108	21641
863.24	21983
863.372	21610
863.504	21610
863.636	21534
863.768	21648
863.9	21530
864.032	21473
864.164	21488
864.296	21709
864.428	21610
864.559	21576
864.691	21694
864.823	21542
864.954	21572
865.086	21485
865.217	21458
865.349	21485
865.48	21443
865.612	21530
865.743	21568
865.875	21469
866.006	21412
866.137	21378
866.269	21477
866.4	21488
866.531	21332
866.662	21306
866.793	21329
866.924	21367
867.055	21378
867.186	21496
867.317	21367
867.448	21199
867.579	21408
867.71	21344
867.841	21188
867.972	21351
868.103	21332
868.233	21485
868.364	21412
868.495	21553
868.625	21705
868.756	21823
868.886	21523
869.017	21690
869.147	21644
869.278	21713
869.408	21599
869.539	21599
869.669	21625
869.799	21797
869.929	21800
870.06	21724
870.19	21937
870.32	21838
870.45	22070
870.58	22059
870.71	22067
870.84	22070
870.97	22010
871.1	22128
871.23	22265
871.36	22257
871.489	22040
871.619	22223
871.749	22230
871.879	22280
872.008	22280
872.138	22348
872.267	22295
872.397	22044
872.526	22188
872.656	22063
872.785	22044
872.915	22177
873.044	22185
873.173	22147
873.303	22363
873.432	22284
873.561	22310
873.69	22402
873.819	22246
873.948	22246
874.077	22295
874.206	22131
874.335	22246
874.464	22310
874.593	22561
874.722	22424
874.851	22500
874.979	22516
875.108	22546
875.237	22542
875.365	22402
875.494	22413
875.623	22538
875.751	22478
875.88	22500
876.008	22641
876.136	22675
876.265	22942
876.393	22987
876.521	22961
876.65	22968
876.778	22900
876.906	22771
877.034	22847
877.162	22915
877.29	22698
877.418	22854
877.546	22915
877.674	22824
877.802	22949
877.93	22820
878.058	22634
878.185	22744
878.313	22831
878.441	22900
878.568	22565
878.696	22759
878.824	22774
878.951	23010
879.079	23041
879.206	23136
879.333	22930
879.461	22858
879.588	22839
879.715	22987
879.842	23033
879.97	22904
880.097	22683
880.224	22656
880.351	22717
880.478	22618
880.605	22577
880.732	22512
880.859	22889
880.986	22675
881.112	22580
881.239	22523
881.366	22394
881.493	22299
881.619	22265
881.746	22272
881.872	22230
881.999	22196
882.125	22143
882.252	22162
882.378	22246
882.505	22348
882.631	21983
882.757	21930
882.883	22025
883.01	22029
883.136	21827
883.262	21747
883.388	21732
883.514	21941
883.64	21888
883.766	21892
883.892	21656
884.018	21770
884.143	21888
884.269	21876
884.395	21622
884.52	21477
884.646	21530
884.772	21416
884.897	21496
885.023	21595
885.148	21660
885.274	21644
885.399	21587
885.524	21469
885.65	21477
885.775	21557
885.9	21477
886.025	21591
886.15	21591
886.275	21412
886.4	21500
886.525	21568
886.65	21447
886.775	21519
886.9	21500
887.025	21732
887.149	21572
887.274	21332
887.399	21249
887.523	21211
887.648	21138
887.773	21077
887.897	21367
888.021	21386
888.146	21260
888.27	21344
888.395	21378
888.519	21401
888.643	21374
888.767	21226
888.891	21332
889.015	21222
889.139	21116
889.263	21104
889.387	21154
889.511	21340
889.635	21306
889.759	21051
889.883	21051
890.006	21154
890.13	21173
890.254	20998
890.377	21036
890.501	20910
890.624	20826
890.748	20826
890.871	20716
890.995	20629
891.118	20686
891.241	20674
891.364	20644
891.488	20773
891.611	20720
891.734	20640
891.857	20773
891.98	20617
892.103	20773
892.226	20575
892.349	20609
892.471	20446
892.594	20590
892.717	20560
892.839	20560
892.962	20651
893.085	20632
893.207	20693
893.33	20511
893.452	20484
893.575	20556
893.697	20488
893.819	20785
893.941	20651
894.064	20659
894.186	20522
894.308	20507
894.43	20629
894.552	20651
894.674	20724
894.796	20526
894.918	20484
895.04	20533
895.161	20564
895.283	20648
895.405	20396
895.526	20613
895.648	20575
895.769	20564
895.891	20594
896.012	20659
896.134	20594
896.255	20560
896.376	20522
896.498	20434
896.619	20564
896.74	20469
896.861	20549
896.982	20876
897.103	21093
897.224	20883
897.345	20788
897.466	20720
897.587	20754
897.708	20785
897.828	20773
897.949	20708
898.07	20541
898.19	20625
898.311	20861
898.431	20602
898.552	20739
898.672	20807
898.792	20838
898.913	20765
899.033	20621
899.153	20522
899.273	20336
899.393	20442
899.513	20579
899.633	20560
899.753	20427
899.873	20415
899.993	20442
900.113	20434
900.232	20358
900.352	20434
900.472	20343
900.591	20309
900.711	20256
900.83	20191
900.95	20484
901.069	20259
901.189	20115
901.308	19970
901.427	19860
901.546	19852
901.665	19925
901.784	19894
901.904	19757
902.023	19677
902.141	19388
902.26	19362
902.379	19521
902.498	19301
902.617	19221
902.735	19354
902.854	19308
902.973	19160
903.091	19114
903.21	18935
903.328	18973
903.446	18939
903.565	18848
903.683	18981
903.801	18711
903.919	18753
904.038	18715
904.156	18601
904.274	18719
904.392	18642
904.51	18608
904.627	18464
904.745	18665
904.863	18673
904.981	18365
905.098	18228
905.216	18247
905.334	18330
905.451	18197
905.569	18281
905.686	18190
905.803	18213
905.921	17984
906.038	18155
906.155	18019
906.272	17859
906.389	17897
906.506	17813
906.623	17828
906.74	17737
906.857	17684
906.974	17646
907.091	17809
907.208	17961
907.324	17783
907.441	17638
907.557	17509
907.674	17493
907.79	17436
907.907	17566
908.023	17573
908.139	17558
908.256	17341
908.372	17444
908.488	17410
908.604	17318
908.72	17254
908.836	17318
908.952	17140
909.068	17265
909.184	17185
909.3	17200
909.415	17208
909.531	17269
909.647	16946
909.762	17010
909.878	16946
909.993	16885
910.108	16835
910.224	16942
910.339	16809
910.454	16809
910.57	16725
910.685	16611
910.8	16942
910.915	16957
911.03	16713
911.145	16615
911.259	16516
911.374	16516
911.489	16436
911.604	16394
911.718	16291
911.833	16257
911.947	16185
912.062	16071
912.176	16306
912.291	16299
912.405	16230
912.519	16318
912.633	16409
912.748	16166
912.862	16238
912.976	16143
913.09	15918
913.204	16086
913.318	16010
913.431	16204
913.545	16101
913.659	16215
913.772	15983
913.886	15926
914	15884
914.113	15949
914.226	15945
914.34	15926
914.453	15835
914.566	15876
914.68	15739
914.793	15766
914.906	15481
915.019	15447
915.132	15466
915.245	15386
915.358	15504
915.47	15492
915.583	15408
915.696	15523
915.809	15523
915.921	15603
916.034	15367
916.146	15321
916.259	15329
916.371	15431
916.483	15363
916.595	15233
916.708	15332
916.82	15329
916.932	15218
917.044	15218
917.156	15173
917.268	15146
917.38	15074
917.491	15051
917.603	15089
917.715	15176
917.826	15169
917.938	15127
918.049	14986
918.161	14982
918.272	15165
918.384	15230
918.495	15119
918.606	14937
918.717	14765
918.828	14807
918.939	14842
919.05	14765
919.161	14777
919.272	14594
919.383	14667
919.494	14891
919.604	15077
919.715	14925
919.826	14735
919.936	14842
920.047	14842
920.157	14788
920.267	14941
920.378	14914
920.488	14716
920.598	14960
920.708	15176
920.818	14895
920.928	14895
921.038	15146
921.148	15009
921.258	14686
921.368	14568
921.477	14594
921.587	14503
921.697	14351
921.806	14613
921.916	14438
922.025	14187
922.134	14256
922.244	14176
922.353	14225
922.462	14020
922.571	14050
922.68	13871
922.789	13852
922.898	13818
923.007	13738
923.116	13841
923.224	13837
923.333	13681
923.442	13655
923.55	13639
923.659	13723
923.767	13765
923.876	13613
923.984	13643
924.092	13571
924.201	13487
924.309	13483
924.417	13689
924.525	13483
924.633	13430
924.741	14271
924.849	13187
924.956	13422
925.064	13266
925.172	13244
925.279	13240
925.387	13133
925.494	13206
925.602	13304
925.709	13209
925.816	13145
925.924	13152
926.031	13278
926.138	13228
926.245	13129
926.352	12996
926.459	13247
926.566	13251
926.673	13129
926.779	12878
926.886	12981
926.993	12810
927.099	12821
927.206	12753
927.312	12760
927.419	12787
927.525	12768
927.631	12757
927.737	12764
927.843	12700
927.95	12551
928.056	12589
928.162	12585
928.267	12646
928.373	13213
928.479	12585
928.585	12544
928.69	12528
928.796	12540
928.901	12464
929.007	12342
929.112	12407
929.218	12418
929.323	12330
929.428	12205
929.533	12517
929.638	12201
929.743	12262
929.848	12365
929.953	12216
930.058	12182
930.163	11992
930.267	11999
930.372	12167
930.477	11954
930.581	12182
930.685	12053
930.79	11824
930.894	11901
930.998	11802
931.103	11916
931.207	11539
931.311	11551
931.415	11486
931.519	11223
931.623	11299
