Data from test_V78500241_972.txt Node
Date: Fri Mar 25 15:48:32 CST 2022
User: usil
Spectrometer: V785-0024
Trigger mode: 0
Integration Time (sec): 4.000000E-1
Scans to average: 1
Nonlinearity correction enabled: false
Boxcar width: 0
Storing dark spectrum: false
XAxis mode: Wavelengths
Number of Pixels in Spectrum: 1024
>>>>>Begin Spectral Data<<<<<
801.071	28447
801.214	28337
801.356	28181
801.499	28139
801.641	27911
801.783	28097
801.926	28246
802.068	27937
802.211	27907
802.353	27953
802.496	27778
802.638	27698
802.78	27625
802.923	27564
803.065	27583
803.208	27606
803.35	27675
803.492	27842
803.635	27873
803.777	27694
803.919	27937
804.061	28226
804.204	27854
804.346	27800
804.488	27857
804.63	27846
804.773	27835
804.915	27949
805.057	28006
805.199	27823
805.341	28067
805.483	27979
805.626	28135
805.768	28002
805.91	28169
806.052	28101
806.194	28017
806.336	28090
806.478	28124
806.62	27994
806.762	28360
806.904	28382
807.046	28660
807.188	28447
807.33	28523
807.472	28698
807.614	28424
807.756	28493
807.898	28303
808.04	28322
808.182	28280
808.324	28268
808.465	28223
808.607	28500
808.749	28538
808.891	28873
809.033	28816
809.174	28828
809.316	28641
809.458	28755
809.6	28691
809.741	28774
809.883	28965
810.025	29018
810.166	29113
810.308	29105
810.45	29056
810.591	28999
810.733	28790
810.875	28672
811.016	28599
811.158	28656
811.299	28774
811.441	28793
811.582	28923
811.724	28782
811.865	28816
812.007	28877
812.148	28630
812.29	28656
812.431	28980
812.573	29067
812.714	29265
812.855	29185
812.997	29440
813.138	29524
813.279	29505
813.421	29220
813.562	29299
813.703	29033
813.845	28911
813.986	28736
814.127	28569
814.268	28481
814.41	28561
814.551	28504
814.692	28580
814.833	28421
814.974	28531
815.115	28413
815.256	28341
815.397	28318
815.539	28318
815.68	28124
815.821	28192
815.962	28325
816.103	28192
816.244	28135
816.385	27987
816.526	28051
816.666	27941
816.807	27759
816.948	27827
817.089	27808
817.23	27823
817.371	27774
817.512	27762
817.653	27857
817.793	27793
817.934	27873
818.075	27770
818.216	27736
818.356	27736
818.497	27743
818.638	27564
818.778	27599
818.919	27618
819.06	27637
819.2	27747
819.341	27762
819.481	27759
819.622	27941
819.762	28086
819.903	28006
820.043	27888
820.184	27922
820.324	28051
820.465	27869
820.605	27956
820.746	27968
820.886	27709
821.026	27861
821.167	27960
821.307	27968
821.447	27869
821.588	27728
821.728	27629
821.868	27507
822.008	27340
822.149	27268
822.289	27207
822.429	27032
822.569	26956
822.709	27020
822.849	26864
822.99	26686
823.13	26796
823.27	26792
823.41	26579
823.55	26511
823.69	26640
823.83	26571
823.97	26545
824.11	26461
824.25	26419
824.389	26526
824.529	26507
824.669	26385
824.809	26484
824.949	26621
825.089	26522
825.228	26415
825.368	26248
825.508	26347
825.648	26278
825.787	26332
825.927	26438
826.067	26377
826.206	26248
826.346	26298
826.485	26343
826.625	26336
826.765	26396
826.904	26393
827.044	26161
827.183	25940
827.323	25982
827.462	26164
827.601	26008
827.741	26119
827.88	26122
828.02	25898
828.159	25932
828.298	26016
828.437	26107
828.577	25849
828.716	26043
828.855	25940
828.994	25712
829.134	25723
829.273	25799
829.412	25700
829.551	25613
829.69	25746
829.829	25639
829.968	25822
830.107	25723
830.246	25791
830.385	25548
830.524	25639
830.663	25518
830.802	25422
830.941	25316
831.08	25369
831.219	25403
831.357	25400
831.496	25491
831.635	25354
831.774	25069
831.913	25217
832.051	25141
832.19	24973
832.329	25198
832.467	25034
832.606	24985
832.744	25042
832.883	24973
833.022	24970
833.16	25107
833.299	25103
833.437	25038
833.576	25034
833.714	25034
833.852	25152
833.991	25076
834.129	25225
834.267	25247
834.406	25008
834.544	24985
834.682	25095
834.821	25019
834.959	25206
835.097	25004
835.235	25069
835.373	25076
835.511	25000
835.65	24954
835.788	24844
835.926	24738
836.064	24715
836.202	24760
836.34	24787
836.478	24924
836.615	24947
836.753	24894
836.891	24875
837.029	24859
837.167	24817
837.305	24882
837.443	24837
837.58	24654
837.718	24776
837.856	24700
837.993	24684
838.131	24650
838.269	24517
838.406	24502
838.544	24498
838.681	24505
838.819	24327
838.956	24121
839.094	24182
839.231	24220
839.369	24247
839.506	24612
839.643	24369
839.781	24152
839.918	24095
840.055	24266
840.193	24045
840.33	24148
840.467	24091
840.604	24133
840.742	24365
840.879	23980
841.016	24022
841.153	23931
841.29	24243
841.427	24064
841.564	24038
841.701	24045
841.838	24030
841.975	23870
842.112	24106
842.249	23901
842.385	23847
842.522	24022
842.659	23809
842.796	23760
842.933	23779
843.069	23737
843.206	23760
843.343	23901
843.479	23870
843.616	23843
843.752	23608
843.889	23547
844.025	23863
844.162	23573
844.298	23596
844.435	23585
844.571	23478
844.708	23604
844.844	23756
844.98	23840
845.117	23771
845.253	23509
845.389	23433
845.525	23444
845.661	23501
845.798	23311
845.934	23364
846.07	23296
846.206	23391
846.342	23402
846.478	23292
846.614	23200
846.75	22919
846.886	23022
847.022	23037
847.158	23189
847.294	22987
847.429	23178
847.565	22995
847.701	23235
847.837	22854
847.972	22801
848.108	22881
848.244	22934
848.379	22683
848.515	22622
848.65	22752
848.786	22634
848.921	22634
849.057	22763
849.192	22763
849.328	22596
849.463	22675
849.598	22687
849.734	22531
849.869	22497
850.004	22474
850.14	22402
850.275	22500
850.41	22367
850.545	22329
850.68	22341
850.815	22432
850.95	22455
851.085	22478
851.22	22531
851.355	22455
851.49	22459
851.625	22405
851.76	22299
851.895	22314
852.03	22185
852.165	22325
852.299	22451
852.434	22382
852.569	22455
852.703	22459
852.838	22474
852.973	22584
853.107	22554
853.242	22261
853.376	22204
853.511	22124
853.645	22219
853.78	22310
853.914	22257
854.048	22333
854.183	22196
854.317	22162
854.451	22405
854.585	22234
854.72	22303
854.854	22200
854.988	22192
855.122	22284
855.256	22067
855.39	22265
855.524	22207
855.658	22246
855.792	22299
855.926	22246
856.06	22337
856.194	22325
856.327	22284
856.461	22177
856.595	22204
856.729	22090
856.862	22398
856.996	22352
857.13	22337
857.263	22348
857.397	22379
857.53	22242
857.664	22322
857.797	22318
857.931	22356
858.064	22261
858.197	22417
858.331	22143
858.464	22246
858.597	22139
858.731	22348
858.864	22268
858.997	22257
859.13	22299
859.263	22219
859.396	22291
859.529	22280
859.662	22333
859.795	22169
859.928	22261
860.061	22367
860.194	22348
860.327	22280
860.46	22287
860.592	22375
860.725	22413
860.858	22405
860.99	22246
861.123	22181
861.256	22131
861.388	22265
861.521	22991
861.653	22112
861.786	22086
861.918	22124
862.05	22086
862.183	22226
862.315	22265
862.447	22238
862.58	22147
862.712	21876
862.844	21926
862.976	22097
863.108	22025
863.24	22405
863.372	21941
863.504	21926
863.636	21960
863.768	21941
863.9	21949
864.032	21812
864.164	21880
864.296	22051
864.428	22074
864.559	22051
864.691	22036
864.823	22090
864.954	21987
865.086	21907
865.217	21937
865.349	21835
865.48	21884
865.612	21911
865.743	22010
865.875	21983
866.006	21774
866.137	21846
866.269	21846
866.4	21804
866.531	21797
866.662	21793
866.793	21842
866.924	21709
867.055	21762
867.186	21739
867.317	21667
867.448	21610
867.579	21686
867.71	21530
867.841	21720
867.972	21698
868.103	21622
868.233	21804
868.364	21774
868.495	21816
868.625	21960
868.756	22036
868.886	21880
869.017	22010
869.147	22006
869.278	22051
869.408	22097
869.539	22017
869.669	22101
869.799	22093
869.929	22097
870.06	22067
870.19	22360
870.32	22131
870.45	22299
870.58	22242
870.71	22535
870.84	22519
870.97	22424
871.1	22516
871.23	22653
871.36	22493
871.489	22470
871.619	22687
871.749	22656
871.879	22653
872.008	22679
872.138	22561
872.267	22634
872.397	22466
872.526	22394
872.656	22455
872.785	22519
872.915	22683
873.044	22538
873.173	22691
873.303	22565
873.432	22649
873.561	22649
873.69	22668
873.819	22565
873.948	22679
874.077	22542
874.206	22421
874.335	22763
874.464	22641
874.593	22839
874.722	22797
874.851	22896
874.979	22938
875.108	22778
875.237	22721
875.365	22740
875.494	22763
875.623	22809
875.751	22858
875.88	22866
876.008	23025
876.136	23010
876.265	23185
876.393	23231
876.521	23246
876.65	23284
876.778	23193
876.906	23200
877.034	23193
877.162	23155
877.29	23136
877.418	23174
877.546	23181
877.674	23212
877.802	23086
877.93	23056
878.058	23132
878.185	22995
878.313	23174
878.441	23174
878.568	23098
878.696	23109
878.824	23288
878.951	23296
879.079	23280
879.206	23486
879.333	23391
879.461	23296
879.588	23235
879.715	23406
879.842	23531
879.97	23166
880.097	22946
880.224	22949
880.351	23113
880.478	23003
880.605	22961
880.732	22904
880.859	23204
880.986	23064
881.112	22801
881.239	22850
881.366	22850
881.493	22618
881.619	22573
881.746	22618
881.872	22641
881.999	22531
882.125	22512
882.252	22672
882.378	22561
882.505	22782
882.631	22409
882.757	22253
882.883	22424
883.01	22246
883.136	22177
883.262	22082
883.388	22154
883.514	22242
883.64	22299
883.766	22166
883.892	21994
884.018	22063
884.143	22177
884.269	22272
884.395	21987
884.52	21736
884.646	21915
884.772	21838
884.897	21816
885.023	21937
885.148	21937
885.274	21987
885.399	21994
885.524	21823
885.65	21911
885.775	21850
885.9	21846
886.025	21968
886.15	21903
886.275	21808
886.4	21747
886.525	21865
886.65	21903
886.775	21709
886.9	22074
887.025	22090
887.149	21907
887.274	21808
887.399	21705
887.523	21652
887.648	21667
887.773	21549
887.897	21682
888.021	21663
888.146	21542
888.27	21694
888.395	21797
888.519	21572
888.643	21652
888.767	21648
888.891	21538
889.015	21408
889.139	21500
889.263	21351
889.387	21469
889.511	21656
889.635	21515
889.759	21428
889.883	21424
890.006	21439
890.13	21450
890.254	21401
890.377	21363
890.501	21150
890.624	21104
890.748	21203
890.871	21119
890.995	20921
891.118	20834
891.241	21074
891.364	20902
891.488	21199
891.611	20979
891.734	21036
891.857	21127
891.98	21051
892.103	21001
892.226	20979
892.349	20956
892.471	20807
892.594	20872
892.717	20941
892.839	20933
892.962	20883
893.085	20845
893.207	20883
893.33	20735
893.452	20861
893.575	20941
893.697	20826
893.819	21020
893.941	21093
894.064	21009
894.186	20720
894.308	20781
894.43	20948
894.552	21142
894.674	20925
894.796	20731
894.918	20826
895.04	20781
895.161	20891
895.283	20895
895.405	20781
895.526	20929
895.648	20819
895.769	20804
895.891	20883
896.012	20883
896.134	20834
896.255	20826
896.376	20705
896.498	20716
896.619	20971
896.74	20895
896.861	20899
896.982	21218
897.103	21268
897.224	21127
897.345	21093
897.466	20956
897.587	21096
897.708	21230
897.828	21028
897.949	21024
898.07	20971
898.19	20925
898.311	21089
898.431	20975
898.552	21085
898.672	21074
898.792	21188
898.913	20998
899.033	20948
899.153	20861
899.273	20716
899.393	20731
899.513	20773
899.633	20864
899.753	20826
899.873	20765
899.993	20861
900.113	20590
900.232	20708
900.352	20667
900.472	20807
900.591	20522
900.711	20682
900.83	20545
900.95	20743
901.069	20621
901.189	20358
901.308	20157
901.427	20122
901.546	20164
901.665	20122
901.784	19970
901.904	19986
902.023	19890
902.141	19715
902.26	19628
902.379	19746
902.498	19635
902.617	19712
902.735	19651
902.854	19715
902.973	19677
903.091	19400
903.21	19324
903.328	19259
903.446	19236
903.565	19133
903.683	19190
903.801	18958
903.919	19069
904.038	19019
904.156	18970
904.274	18848
904.392	18913
904.51	18734
904.627	18821
904.745	18894
904.863	18924
904.981	18703
905.098	18627
905.216	18437
905.334	18563
905.451	18616
905.569	18513
905.686	18589
905.803	18456
905.921	18266
906.038	18372
906.155	18346
906.272	18292
906.389	18251
906.506	18022
906.623	18106
906.74	17996
906.857	17904
906.974	17904
907.091	18140
907.208	18133
907.324	17946
907.441	17980
907.557	17889
907.674	17874
907.79	17733
907.907	17718
908.023	17828
908.139	17657
908.256	17752
908.372	17535
908.488	17722
908.604	17467
908.72	17398
908.836	17474
908.952	17505
909.068	17459
909.184	17634
909.3	17520
909.415	17554
909.531	17414
909.647	17296
909.762	17136
909.878	17189
909.993	17246
910.108	17204
910.224	17086
910.339	17200
910.454	16980
910.57	16987
910.685	16938
910.8	17094
910.915	17162
911.03	16889
911.145	16771
911.259	16774
911.374	16839
911.489	16767
911.604	16641
911.718	16459
911.833	16523
911.947	16303
912.062	16325
912.176	16500
912.291	16565
912.405	16333
912.519	16691
912.633	16691
912.748	16424
912.862	16417
912.976	16333
913.09	16223
913.204	16322
913.318	16344
913.431	16394
913.545	16253
913.659	16329
913.772	16280
913.886	16226
914	16082
914.113	16207
914.226	16200
914.34	16207
914.453	16040
914.566	16090
914.68	16010
914.793	16010
914.906	15698
915.019	15648
915.132	15663
915.245	15713
915.358	15682
915.47	15717
915.583	15667
915.696	15812
915.809	15812
915.921	15785
916.034	15671
916.146	15591
916.259	15648
916.371	15644
916.483	15591
916.595	15515
916.708	15572
916.82	15466
916.932	15504
917.044	15485
917.156	15386
917.268	15291
917.38	15450
917.491	15294
917.603	15405
917.715	15424
917.826	15416
917.938	15230
918.049	15093
918.161	15218
918.272	15416
918.384	15428
918.495	15359
918.606	15112
918.717	15097
918.828	15108
918.939	15032
919.05	14914
919.161	15043
919.272	14830
919.383	14914
919.494	15100
919.604	15256
919.715	15150
919.826	14891
919.936	15005
920.047	15142
920.157	15005
920.267	15230
920.378	15051
920.488	15028
920.598	15272
920.708	15344
920.818	15146
920.928	15176
921.038	15363
921.148	15279
921.258	14979
921.368	14849
921.477	14830
921.587	14708
921.697	14636
921.806	14701
921.916	14629
922.025	14423
922.134	14385
922.244	14358
922.353	14454
922.462	14191
922.571	14191
922.68	14062
922.789	14016
922.898	14027
923.007	14012
923.116	14153
923.224	13940
923.333	13989
923.442	13894
923.55	13849
923.659	13917
923.767	13974
923.876	13875
923.984	13871
924.092	13723
924.201	13803
924.309	13761
924.417	13860
924.525	13708
924.633	13700
924.741	14720
924.849	13476
924.956	13681
925.064	13415
925.172	13312
925.279	13438
925.387	13426
925.494	13388
925.602	13575
925.709	13426
925.816	13362
925.924	13388
926.031	13502
926.138	13396
926.245	13400
926.352	13278
926.459	13464
926.566	13457
926.673	13301
926.779	13206
926.886	13198
926.993	13141
927.099	12962
927.206	13057
927.312	12882
927.419	13103
927.525	12977
927.631	13031
927.737	12837
927.843	12779
927.95	12707
928.056	12825
928.162	12913
928.267	12878
928.373	13316
928.479	12821
928.585	12620
928.69	12798
928.796	12814
928.901	12601
929.007	12475
929.112	12612
929.218	12601
929.323	12551
929.428	12486
929.533	12642
929.638	12479
929.743	12456
929.848	12593
929.953	12471
930.058	12330
930.163	12201
930.267	12251
930.372	12258
930.477	12155
930.581	12410
930.685	12239
930.79	12072
930.894	12110
930.998	12064
931.103	12125
931.207	11904
931.311	11771
931.415	11699
931.519	11417
931.623	11459
