Data from test_V78500241_581.txt Node
Date: Fri Mar 25 15:45:49 CST 2022
User: usil
Spectrometer: V785-0024
Trigger mode: 0
Integration Time (sec): 4.000000E-1
Scans to average: 1
Nonlinearity correction enabled: false
Boxcar width: 0
Storing dark spectrum: false
XAxis mode: Wavelengths
Number of Pixels in Spectrum: 1024
>>>>>Begin Spectral Data<<<<<
801.071	27469
801.214	27351
801.356	27157
801.499	27199
801.641	27039
801.783	27051
801.926	27024
802.068	27020
802.211	26963
802.353	26967
802.496	26727
802.638	26651
802.78	26712
802.923	26663
803.065	26522
803.208	26651
803.35	26568
803.492	26872
803.635	26651
803.777	26727
803.919	26864
804.061	27146
804.204	26963
804.346	26727
804.488	26621
804.63	26910
804.773	26682
804.915	26838
805.057	26887
805.199	26857
805.341	26899
805.483	26979
805.626	26925
805.768	26876
805.91	27001
806.052	26902
806.194	26845
806.336	27009
806.478	26956
806.62	26819
806.762	27028
806.904	27093
807.046	27492
807.188	27317
807.33	27348
807.472	27435
807.614	27214
807.756	27363
807.898	27066
808.04	27108
808.182	27024
808.324	27249
808.465	27211
808.607	27405
808.749	27458
808.891	27701
809.033	27641
809.174	27477
809.316	27534
809.458	27466
809.6	27583
809.741	27903
809.883	27595
810.025	27964
810.166	27660
810.308	27861
810.45	27694
810.591	27770
810.733	27572
810.875	27519
811.016	27492
811.158	27576
811.299	27888
811.441	27625
811.582	27572
811.724	27488
811.865	27603
812.007	27504
812.148	27564
812.29	27576
812.431	27816
812.573	27747
812.714	27979
812.855	28097
812.997	28196
813.138	28299
813.279	28059
813.421	28257
813.562	27991
813.703	27941
813.845	27622
813.986	27538
814.127	27287
814.268	27332
814.41	27161
814.551	27173
814.692	27222
814.833	27211
814.974	27211
815.115	27184
815.256	26921
815.397	26994
815.539	27264
815.68	27009
815.821	26952
815.962	26998
816.103	27096
816.244	26807
816.385	26853
816.526	26811
816.666	26716
816.807	26499
816.948	26594
817.089	26743
817.23	26556
817.371	26514
817.512	26579
817.653	26404
817.793	26526
817.934	26613
818.075	26503
818.216	26400
818.356	26442
818.497	26290
818.638	26187
818.778	26309
818.919	26339
819.06	26286
819.2	26252
819.341	26518
819.481	26457
819.622	26552
819.762	26864
819.903	26804
820.043	26720
820.184	26602
820.324	26667
820.465	26670
820.605	26678
820.746	26590
820.886	26427
821.026	26617
821.167	26343
821.307	26568
821.447	26606
821.588	26457
821.728	26336
821.868	26164
822.008	25940
822.149	25951
822.289	25879
822.429	25632
822.569	25487
822.709	25639
822.849	25525
822.99	25537
823.13	25381
823.27	25320
823.41	25209
823.55	25122
823.69	25282
823.83	25350
823.97	25282
824.11	25061
824.25	25118
824.389	25065
824.529	25217
824.669	25240
824.809	25285
824.949	25274
825.089	25156
825.228	25198
825.368	24913
825.508	24932
825.648	25027
825.787	24958
825.927	25103
826.067	25000
826.206	24798
826.346	24981
826.485	25080
826.625	24935
826.765	24966
826.904	25034
827.044	24768
827.183	24631
827.323	24604
827.462	24829
827.601	24726
827.741	24555
827.88	24719
828.02	24582
828.159	24566
828.298	24776
828.437	24772
828.577	24635
828.716	24875
828.855	24475
828.994	24228
829.134	24346
829.273	24388
829.412	24243
829.551	24243
829.69	24262
829.829	24365
829.968	24464
830.107	24376
830.246	24407
830.385	24216
830.524	24262
830.663	24083
830.802	24182
830.941	23961
831.08	23939
831.219	23999
831.357	24038
831.496	24216
831.635	23908
831.774	23843
831.913	23885
832.051	23680
832.19	23855
832.329	23824
832.467	23573
832.606	23608
832.744	23471
832.883	23687
833.022	23528
833.16	23570
833.299	23813
833.437	23672
833.576	23707
833.714	23707
833.852	23672
833.991	23741
834.129	23604
834.267	23661
834.406	23581
834.544	23684
834.682	23707
834.821	23710
834.959	23824
835.097	23581
835.235	23771
835.373	23687
835.511	23661
835.65	23592
835.788	23600
835.926	23459
836.064	23322
836.202	23482
836.34	23516
836.478	23558
836.615	23585
836.753	23600
836.891	23646
837.029	23505
837.167	23455
837.305	23429
837.443	23410
837.58	23429
837.718	23318
837.856	23486
837.993	23360
838.131	23379
838.269	23143
838.406	23280
838.544	23170
838.681	23010
838.819	22961
838.956	22847
839.094	22995
839.231	22980
839.369	23052
839.506	23265
839.643	23162
839.781	22915
839.918	22698
840.055	22706
840.193	22744
840.33	22744
840.467	22782
840.604	22786
840.742	23041
840.879	22683
841.016	22824
841.153	22672
841.29	22801
841.427	22691
841.564	22801
841.701	22672
841.838	22637
841.975	22668
842.112	22725
842.249	22630
842.385	22459
842.522	22717
842.659	22626
842.796	22542
842.933	22630
843.069	22386
843.206	22447
843.343	22641
843.479	22413
843.616	22615
843.752	22276
843.889	22253
844.025	22481
844.162	22109
844.298	22462
844.435	22284
844.571	22234
844.708	22284
844.844	22466
844.98	22341
845.117	22371
845.253	22284
845.389	22139
845.525	22166
845.661	22120
845.798	21964
845.934	22158
846.07	21941
846.206	21998
846.342	22105
846.478	22040
846.614	21797
846.75	21580
846.886	21641
847.022	21694
847.158	21827
847.294	21804
847.429	21812
847.565	21705
847.701	22124
847.837	21580
847.972	21481
848.108	21526
848.244	21538
848.379	21363
848.515	21424
848.65	21283
848.786	21245
848.921	21291
849.057	21466
849.192	21405
849.328	21431
849.463	21393
849.598	21340
849.734	21268
849.869	21249
850.004	21279
850.14	21214
850.275	21157
850.41	20971
850.545	21089
850.68	21131
850.815	21043
850.95	21047
851.085	21340
851.22	21218
851.355	21157
851.49	21005
851.625	21081
851.76	21127
851.895	20979
852.03	21123
852.165	21058
852.299	21138
852.434	21180
852.569	21127
852.703	21195
852.838	21135
852.973	21317
853.107	21214
853.242	21123
853.376	21017
853.511	20762
853.645	20933
853.78	21020
853.914	20986
854.048	20944
854.183	20887
854.317	21017
854.451	21005
854.585	21081
854.72	20910
854.854	20982
854.988	20792
855.122	20941
855.256	20743
855.39	20853
855.524	21017
855.658	20933
855.792	20872
855.926	20925
856.06	20986
856.194	20891
856.327	20849
856.461	20819
856.595	20849
856.729	20910
856.862	21104
856.996	20944
857.13	21005
857.263	20975
857.397	21062
857.53	20921
857.664	21020
857.797	20933
857.931	21089
858.064	21024
858.197	20986
858.331	20883
858.464	20872
858.597	20819
858.731	20910
858.864	20868
858.997	20883
859.13	20891
859.263	20979
859.396	21070
859.529	20929
859.662	20902
859.795	20868
859.928	20948
860.061	21123
860.194	21051
860.327	20929
860.46	20963
860.592	21146
860.725	21100
860.858	20963
860.99	20963
861.123	20743
861.256	20948
861.388	20830
861.521	21458
861.653	20849
861.786	20792
861.918	20804
862.05	20868
862.183	20876
862.315	20838
862.447	20864
862.58	20701
862.712	20667
862.844	20659
862.976	20796
863.108	20758
863.24	21199
863.372	20579
863.504	20549
863.636	20697
863.768	20762
863.9	20648
864.032	20583
864.164	20651
864.296	20674
864.428	20697
864.559	20701
864.691	20537
864.823	20716
864.954	20549
865.086	20621
865.217	20530
865.349	20385
865.48	20629
865.612	20560
865.743	20670
865.875	20602
866.006	20526
866.137	20617
866.269	20442
866.4	20579
866.531	20431
866.662	20499
866.793	20564
866.924	20461
867.055	20568
867.186	20590
867.317	20377
867.448	20404
867.579	20492
867.71	20480
867.841	20385
867.972	20514
868.103	20454
868.233	20427
868.364	20396
868.495	20495
868.625	20674
868.756	20819
868.886	20773
869.017	20773
869.147	20807
869.278	20765
869.408	20648
869.539	20678
869.669	20868
869.799	20762
869.929	20941
870.06	20891
870.19	20960
870.32	20853
870.45	21131
870.58	21028
870.71	21184
870.84	21188
870.97	21032
871.1	21081
871.23	21302
871.36	21249
871.489	21131
871.619	21207
871.749	21313
871.879	21454
872.008	21336
872.138	21272
872.267	21313
872.397	21249
872.526	21207
872.656	21173
872.785	21123
872.915	21435
873.044	21439
873.173	21275
873.303	21492
873.432	21549
873.561	21500
873.69	21359
873.819	21348
873.948	21393
874.077	21344
874.206	21374
874.335	21496
874.464	21428
874.593	21583
874.722	21542
874.851	21686
874.979	21644
875.108	21629
875.237	21523
875.365	21477
875.494	21500
875.623	21595
875.751	21473
875.88	21610
876.008	21709
876.136	21793
876.265	21968
876.393	22116
876.521	22040
876.65	21956
876.778	21941
876.906	21937
877.034	21873
877.162	21899
877.29	21770
877.418	22010
877.546	21892
877.674	21930
877.802	21953
877.93	22048
878.058	21888
878.185	21789
878.313	21698
878.441	21808
878.568	21812
878.696	21888
878.824	21930
878.951	22040
879.079	22101
879.206	22367
879.333	22051
879.461	22051
879.588	22013
879.715	22055
879.842	22207
879.97	21949
880.097	21800
880.224	21637
880.351	21701
880.478	21827
880.605	21652
880.732	21770
880.859	21987
880.986	21778
881.112	21785
881.239	21629
881.366	21485
881.493	21443
881.619	21313
881.746	21317
881.872	21405
881.999	21370
882.125	21382
882.252	21268
882.378	21317
882.505	21488
882.631	21131
882.757	21036
882.883	21146
883.01	21001
883.136	20891
883.262	20868
883.388	20830
883.514	21005
883.64	21020
883.766	20921
883.892	20902
884.018	20739
884.143	21028
884.269	21055
884.395	20872
884.52	20708
884.646	20686
884.772	20724
884.897	20678
885.023	20743
885.148	20815
885.274	20830
885.399	20857
885.524	20636
885.65	20773
885.775	20689
885.9	20556
886.025	20819
886.15	20823
886.275	20625
886.4	20621
886.525	20678
886.65	20602
886.775	20568
886.9	20815
887.025	20853
887.149	20712
887.274	20507
887.399	20545
887.523	20438
887.648	20385
887.773	20434
887.897	20492
888.021	20564
888.146	20492
888.27	20552
888.395	20606
888.519	20461
888.643	20511
888.767	20396
888.891	20358
889.015	20259
889.139	20317
889.263	20237
889.387	20385
889.511	20423
889.635	20396
889.759	20183
889.883	20126
890.006	20259
890.13	20358
890.254	20164
890.377	20107
890.501	20058
890.624	19951
890.748	20130
890.871	19940
890.995	19788
891.118	19704
891.241	19860
891.364	19868
891.488	19898
891.611	19841
891.734	19780
891.857	19780
891.98	19883
892.103	19868
892.226	19868
892.349	19898
892.471	19552
892.594	19791
892.717	19708
892.839	19708
892.962	19799
893.085	19803
893.207	19700
893.33	19639
893.452	19700
893.575	19818
893.697	19761
893.819	19784
893.941	19936
894.064	19868
894.186	19662
894.308	19700
894.43	19913
894.552	19837
894.674	19788
894.796	19704
894.918	19715
895.04	19628
895.161	19814
895.283	19811
895.405	19685
895.526	19742
895.648	19685
895.769	19849
895.891	19822
896.012	19788
896.134	19788
896.255	19883
896.376	19761
896.498	19807
896.619	19902
896.74	19719
896.861	19807
896.982	20119
897.103	20191
897.224	20069
897.345	19894
897.466	19909
897.587	19993
897.708	20153
897.828	19894
897.949	20043
898.07	19811
898.19	19993
898.311	20084
898.431	19959
898.552	20134
898.672	20096
898.792	20058
898.913	19978
899.033	19913
899.153	19753
899.273	19643
899.393	19750
899.513	19719
899.633	19731
899.753	19894
899.873	19628
899.993	19769
900.113	19639
900.232	19700
900.352	19670
900.472	19620
900.591	19506
900.711	19518
900.83	19396
900.95	19487
901.069	19586
901.189	19301
901.308	19164
901.427	19088
901.546	19152
901.665	19084
901.784	19042
901.904	19019
902.023	18871
902.141	18681
902.26	18688
902.379	18745
902.498	18517
902.617	18608
902.735	18692
902.854	18597
902.973	18566
903.091	18308
903.21	18277
903.328	18148
903.446	18194
903.565	18117
903.683	18114
903.801	18121
903.919	18087
904.038	18053
904.156	17992
904.274	17889
904.392	17843
904.51	17836
904.627	17889
904.745	17878
904.863	17927
904.981	17695
905.098	17501
905.216	17577
905.334	17619
905.451	17657
905.569	17532
905.686	17471
905.803	17520
905.921	17372
906.038	17459
906.155	17372
906.272	17330
906.389	17303
906.506	17071
906.623	17128
906.74	17128
906.857	16900
906.974	17090
907.091	17136
907.208	17239
907.324	17052
907.441	16930
907.557	16805
907.674	16801
907.79	16748
907.907	16748
908.023	16812
908.139	16820
908.256	16698
908.372	16748
908.488	16733
908.604	16569
908.72	16538
908.836	16500
908.952	16516
909.068	16569
909.184	16596
909.3	16527
909.415	16504
909.531	16565
909.647	16284
909.762	16188
909.878	16207
909.993	16196
910.108	16219
910.224	16249
910.339	16200
910.454	16200
910.57	16116
910.685	15949
910.8	16291
910.915	16086
911.03	15994
911.145	15915
911.259	15770
911.374	15884
911.489	15724
911.604	15736
911.718	15557
911.833	15603
911.947	15462
912.062	15454
912.176	15587
912.291	15545
912.405	15549
912.519	15884
912.633	15728
912.748	15591
912.862	15580
912.976	15405
913.09	15351
913.204	15405
913.318	15367
913.431	15416
913.545	15515
913.659	15515
913.772	15359
913.886	15260
914	15252
914.113	15321
914.226	15294
914.34	15256
914.453	15077
914.566	15233
914.68	15062
914.793	15047
914.906	14925
915.019	14921
915.132	14716
915.245	14811
915.358	14864
915.47	14864
915.583	14853
915.696	14876
915.809	14902
915.921	14906
916.034	14811
916.146	14629
916.259	14788
916.371	14823
916.483	14842
916.595	14590
916.708	14686
916.82	14701
916.932	14575
917.044	14606
917.156	14613
917.268	14530
917.38	14526
917.491	14442
917.603	14400
917.715	14549
917.826	14575
917.938	14473
918.049	14328
918.161	14556
918.272	14663
918.384	14594
918.495	14518
918.606	14339
918.717	14195
918.828	14351
918.939	14225
919.05	14153
919.161	14153
919.272	14084
919.383	14142
919.494	14233
919.604	14473
919.715	14153
919.826	14176
919.936	14248
920.047	14225
920.157	14221
920.267	14427
920.378	14183
920.488	14210
920.598	14423
920.708	14549
920.818	14336
920.928	14339
921.038	14526
921.148	14484
921.258	14206
921.368	14046
921.477	13883
921.587	14001
921.697	13860
921.806	13959
921.916	13791
922.025	13594
922.134	13567
922.244	13533
922.353	13700
922.462	13624
922.571	13403
922.68	13274
922.789	13236
922.898	13190
923.007	13259
923.116	13168
923.224	13240
923.333	13156
923.442	13145
923.55	13046
923.659	13110
923.767	13190
923.876	13080
923.984	13057
924.092	13008
924.201	13012
924.309	13103
924.417	13031
924.525	12996
924.633	12939
924.741	13883
924.849	12719
924.956	12878
925.064	12681
925.172	12608
925.279	12730
925.387	12734
925.494	12707
925.602	12894
925.709	12681
925.816	12646
925.924	12692
926.031	12684
926.138	12707
926.245	12726
926.352	12464
926.459	12669
926.566	12673
926.673	12525
926.779	12585
926.886	12551
926.993	12323
927.099	12281
927.206	12251
927.312	12186
927.419	12323
927.525	12254
927.631	12285
927.737	12251
927.843	12125
927.95	11958
928.056	12041
928.162	12079
928.267	12213
928.373	12734
928.479	12289
928.585	11939
928.69	12102
928.796	12148
928.901	11969
929.007	11764
929.112	11965
929.218	11961
929.323	11786
929.428	11783
929.533	11961
929.638	11783
929.743	11790
929.848	11821
929.953	11798
930.058	11680
930.163	11554
930.267	11596
930.372	11592
930.477	11520
930.581	11688
930.685	11562
930.79	11463
930.894	11455
930.998	11410
931.103	11577
931.207	11189
931.311	11121
931.415	11014
931.519	10793
931.623	10778
