Data from test_V78500241_2560.txt Node
Date: Fri Mar 25 15:59:32 CST 2022
User: usil
Spectrometer: V785-0024
Trigger mode: 0
Integration Time (sec): 4.000000E-1
Scans to average: 1
Nonlinearity correction enabled: false
Boxcar width: 0
Storing dark spectrum: false
XAxis mode: Wavelengths
Number of Pixels in Spectrum: 1024
>>>>>Begin Spectral Data<<<<<
801.071	28660
801.214	28778
801.356	28447
801.499	28432
801.641	28405
801.783	28577
801.926	28230
802.068	28348
802.211	28394
802.353	28128
802.496	28070
802.638	28150
802.78	28048
802.923	28029
803.065	27953
803.208	27968
803.35	27926
803.492	28280
803.635	28158
803.777	28025
803.919	28405
804.061	28611
804.204	28200
804.346	28257
804.488	28029
804.63	28192
804.773	28181
804.915	28295
805.057	28303
805.199	28318
805.341	28253
805.483	28485
805.626	28489
805.768	28405
805.91	28428
806.052	28459
806.194	28561
806.336	28615
806.478	28523
806.62	28618
806.762	28550
806.904	28660
807.046	29006
807.188	28908
807.33	28843
807.472	29003
807.614	28888
807.756	28980
807.898	28816
808.04	28664
808.182	28755
808.324	28733
808.465	28805
808.607	28972
808.749	29003
808.891	29197
809.033	29379
809.174	29379
809.316	29162
809.458	29334
809.6	29048
809.741	29292
809.883	29356
810.025	29524
810.166	29395
810.308	29444
810.45	29395
810.591	29345
810.733	29204
810.875	29200
811.016	29041
811.158	29086
811.299	29223
811.441	29292
811.582	29143
811.724	29220
811.865	29098
812.007	29166
812.148	29132
812.29	29185
812.431	29265
812.573	29425
812.714	29665
812.855	29733
812.997	29695
813.138	29916
813.279	29824
813.421	29767
813.562	29695
813.703	29539
813.845	29433
813.986	29102
814.127	28957
814.268	28942
814.41	28938
814.551	28752
814.692	28991
814.833	28797
814.974	28759
815.115	28961
815.256	28733
815.397	28611
815.539	28729
815.68	28618
815.821	28599
815.962	28755
816.103	28691
816.244	28561
816.385	28485
816.526	28382
816.666	28421
816.807	28185
816.948	28211
817.089	28253
817.23	28082
817.371	28048
817.512	28192
817.653	28154
817.793	28036
817.934	28177
818.075	28090
818.216	28177
818.356	28078
818.497	27911
818.638	27918
818.778	28032
818.919	27964
819.06	28086
819.2	28143
819.341	28109
819.481	28185
819.622	28440
819.762	28706
819.903	28390
820.043	28348
820.184	28287
820.324	28303
820.465	28333
820.605	28375
820.746	28367
820.886	28341
821.026	28424
821.167	28261
821.307	28367
821.447	28299
821.588	28139
821.728	27987
821.868	27838
822.008	27549
822.149	27641
822.289	27587
822.429	27534
822.569	27534
822.709	27386
822.849	27275
822.99	27169
823.13	27173
823.27	27188
823.41	26986
823.55	26887
823.69	27043
823.83	26979
823.97	26830
824.11	26891
824.25	26800
824.389	26804
824.529	26963
824.669	26921
824.809	27001
824.949	26960
825.089	26986
825.228	26861
825.368	26556
825.508	26754
825.648	26743
825.787	26689
825.927	26834
826.067	26769
826.206	26621
826.346	26800
826.485	26705
826.625	26762
826.765	26876
826.904	26746
827.044	26571
827.183	26511
827.323	26396
827.462	26533
827.601	26568
827.741	26415
827.88	26503
828.02	26324
828.159	26408
828.298	26518
828.437	26522
828.577	26362
828.716	26419
828.855	26419
828.994	26100
829.134	26119
829.273	26176
829.412	26134
829.551	26046
829.69	26161
829.829	26202
829.968	26210
830.107	26134
830.246	26157
830.385	26027
830.524	26107
830.663	25830
830.802	25902
830.941	25704
831.08	25742
831.219	25814
831.357	25902
831.496	25944
831.635	25753
831.774	25635
831.913	25613
832.051	25434
832.19	25597
832.329	25464
832.467	25388
832.606	25426
832.744	25297
832.883	25365
833.022	25327
833.16	25396
833.299	25499
833.437	25377
833.576	25476
833.714	25476
833.852	25422
833.991	25476
834.129	25479
834.267	25400
834.406	25586
834.544	25472
834.682	25495
834.821	25457
834.959	25559
835.097	25312
835.235	25563
835.373	25457
835.511	25472
835.65	25506
835.788	25247
835.926	25247
836.064	25145
836.202	25213
836.34	25381
836.478	25324
836.615	25206
836.753	25320
836.891	25373
837.029	25228
837.167	25171
837.305	25282
837.443	25187
837.58	25190
837.718	25358
837.856	25141
837.993	25034
838.131	24996
838.269	25019
838.406	24985
838.544	24859
838.681	24772
838.819	24703
838.956	24597
839.094	24547
839.231	24722
839.369	24779
839.506	24996
839.643	24878
839.781	24639
839.918	24555
840.055	24631
840.193	24593
840.33	24407
840.467	24429
840.604	24467
840.742	24669
840.879	24353
841.016	24437
841.153	24194
841.29	24513
841.427	24544
841.564	24521
841.701	24452
841.838	24448
841.975	24456
842.112	24372
842.249	24224
842.385	24292
842.522	24505
842.659	24201
842.796	24304
842.933	24289
843.069	24159
843.206	24064
843.343	24235
843.479	24220
843.616	24239
843.752	23969
843.889	23904
844.025	24114
844.162	23992
844.298	24026
844.435	23996
844.571	23950
844.708	24152
844.844	24098
844.98	24125
845.117	24041
845.253	23824
845.389	23851
845.525	23855
845.661	23897
845.798	23775
845.934	23714
846.07	23722
846.206	23802
846.342	23684
846.478	23581
846.614	23554
846.75	23535
846.886	23425
847.022	23440
847.158	23486
847.294	23478
847.429	23448
847.565	23376
847.701	23646
847.837	23166
847.972	23079
848.108	23299
848.244	23345
848.379	23033
848.515	23029
848.65	23094
848.786	23166
848.921	23041
849.057	23083
849.192	23166
849.328	23128
849.463	23105
849.598	23029
849.734	22930
849.869	22847
850.004	22717
850.14	22805
850.275	22801
850.41	22668
850.545	22793
850.68	22843
850.815	22744
850.95	22771
851.085	22949
851.22	23022
851.355	22904
851.49	22835
851.625	22725
851.76	22801
851.895	22683
852.03	22645
852.165	22790
852.299	22812
852.434	22896
852.569	22850
852.703	22820
852.838	22911
852.973	22900
853.107	22934
853.242	22843
853.376	22698
853.511	22512
853.645	22630
853.78	22649
853.914	22592
854.048	22508
854.183	22634
854.317	22622
854.451	22809
854.585	22622
854.72	22668
854.854	22748
854.988	22569
855.122	22599
855.256	22554
855.39	22592
855.524	22653
855.658	22713
855.792	22672
855.926	22641
856.06	22550
856.194	22653
856.327	22577
856.461	22523
856.595	22637
856.729	22535
856.862	22797
856.996	22641
857.13	22664
857.263	22687
857.397	22622
857.53	22588
857.664	22577
857.797	22733
857.931	22740
858.064	22596
858.197	22630
858.331	22596
858.464	22542
858.597	22485
858.731	22569
858.864	22577
858.997	22557
859.13	22717
859.263	22675
859.396	22763
859.529	22592
859.662	22596
859.795	22546
859.928	22774
860.061	22717
860.194	22828
860.327	22554
860.46	22713
860.592	22763
860.725	22774
860.858	22774
860.99	22538
861.123	22565
861.256	22500
861.388	22546
861.521	23414
861.653	22557
861.786	22371
861.918	22508
862.05	22599
862.183	22485
862.315	22592
862.447	22683
862.58	22493
862.712	22363
862.844	22443
862.976	22481
863.108	22341
863.24	22786
863.372	22276
863.504	22299
863.636	22344
863.768	22394
863.9	22421
864.032	22352
864.164	22306
864.296	22436
864.428	22485
864.559	22557
864.691	22493
864.823	22291
864.954	22242
865.086	22246
865.217	22303
865.349	22074
865.48	22272
865.612	22169
865.743	22447
865.875	22287
866.006	22333
866.137	22188
866.269	22246
866.4	22276
866.531	22185
866.662	22124
866.793	22150
866.924	22265
867.055	22158
867.186	22284
867.317	22074
867.448	22097
867.579	22128
867.71	22078
867.841	22185
867.972	22207
868.103	22097
868.233	22169
868.364	22139
868.495	22211
868.625	22421
868.756	22531
868.886	22356
869.017	22379
869.147	22485
869.278	22527
869.408	22363
869.539	22398
869.669	22523
869.799	22451
869.929	22390
870.06	22561
870.19	22748
870.32	22717
870.45	22752
870.58	22691
870.71	22839
870.84	22850
870.97	22790
871.1	22805
871.23	22965
871.36	23003
871.489	22793
871.619	23010
871.749	23105
871.879	22991
872.008	23025
872.138	23018
872.267	22938
872.397	22923
872.526	22911
872.656	22904
872.785	22824
872.915	23071
873.044	23048
873.173	23041
873.303	23098
873.432	23075
873.561	23147
873.69	22972
873.819	22984
873.948	23067
874.077	22984
874.206	22900
874.335	22976
874.464	23079
874.593	23178
874.722	23155
874.851	23284
874.979	23315
875.108	23242
875.237	23140
875.365	23124
875.494	23254
875.623	23311
875.751	23197
875.88	23181
876.008	23379
876.136	23478
876.265	23627
876.393	23760
876.521	23672
876.65	23760
876.778	23562
876.906	23524
877.034	23558
877.162	23490
877.29	23539
877.418	23562
877.546	23657
877.674	23577
877.802	23604
877.93	23619
878.058	23589
878.185	23372
878.313	23490
878.441	23429
878.568	23524
878.696	23509
878.824	23535
878.951	23691
879.079	23786
879.206	23882
879.333	23657
879.461	23573
879.588	23699
879.715	23752
879.842	23745
879.97	23627
880.097	23376
880.224	23383
880.351	23463
880.478	23402
880.605	23372
880.732	23444
880.859	23562
880.986	23368
881.112	23531
881.239	23227
881.366	23147
881.493	23090
881.619	22980
881.746	22976
881.872	23102
881.999	22892
882.125	22774
882.252	22999
882.378	22858
882.505	23014
882.631	22687
882.757	22675
882.883	22641
883.01	22622
883.136	22516
883.262	22512
883.388	22386
883.514	22641
883.64	22592
883.766	22565
883.892	22436
884.018	22462
884.143	22546
884.269	22592
884.395	22265
884.52	22207
884.646	22204
884.772	22181
884.897	22147
885.023	22314
885.148	22409
885.274	22356
885.399	22303
885.524	22249
885.65	22356
885.775	22306
885.9	22246
886.025	22295
886.15	22200
886.275	22185
886.4	22185
886.525	22215
886.65	22181
886.775	22310
886.9	22295
887.025	22421
887.149	22322
887.274	22021
887.399	21876
887.523	22032
887.648	21907
887.773	21865
887.897	22086
888.021	22010
888.146	21873
888.27	22021
888.395	22154
888.519	22013
888.643	22067
888.767	21968
888.891	21857
889.015	21774
889.139	21759
889.263	21819
889.387	21907
889.511	22101
889.635	21800
889.759	21774
889.883	21850
890.006	21736
890.13	21865
890.254	21789
890.377	21713
890.501	21526
890.624	21538
890.748	21610
890.871	21408
890.995	21412
891.118	21256
891.241	21507
891.364	21393
891.488	21485
891.611	21462
891.734	21374
891.857	21447
891.98	21401
892.103	21291
892.226	21488
892.349	21188
892.471	21066
892.594	21329
892.717	21336
892.839	21241
892.962	21275
893.085	21291
893.207	21142
893.33	21055
893.452	21214
893.575	21321
893.697	21287
893.819	21367
893.941	21424
894.064	21393
894.186	21119
894.308	21207
894.43	21226
894.552	21435
894.674	21317
894.796	21154
894.918	21108
895.04	21131
895.161	21241
895.283	21203
895.405	21150
895.526	21211
895.648	21142
895.769	21203
895.891	21256
896.012	21203
896.134	21245
896.255	21260
896.376	21131
896.498	21207
896.619	21188
896.74	21260
896.861	21116
896.982	21496
897.103	21652
897.224	21439
897.345	21428
897.466	21389
897.587	21549
897.708	21477
897.828	21462
897.949	21195
898.07	21184
898.19	21313
898.311	21580
898.431	21332
898.552	21450
898.672	21450
898.792	21420
898.913	21321
899.033	21279
899.153	21245
899.273	21047
899.393	21154
899.513	21169
899.633	21214
899.753	21184
899.873	21085
899.993	21199
900.113	21085
900.232	21051
900.352	20960
900.472	20785
900.591	20883
900.711	20925
900.83	20853
900.95	21009
901.069	20979
901.189	20739
901.308	20594
901.427	20374
901.546	20431
901.665	20571
901.784	20651
901.904	20393
902.023	20290
902.141	20172
902.26	20024
902.379	20016
902.498	19978
902.617	19993
902.735	19951
902.854	19989
902.973	19875
903.091	19708
903.21	19704
903.328	19666
903.446	19419
903.565	19499
903.683	19476
903.801	19400
903.919	19358
904.038	19419
904.156	19240
904.274	19343
904.392	19133
904.51	19255
904.627	19198
904.745	19194
904.863	19206
904.981	19019
905.098	18901
905.216	18856
905.334	18882
905.451	18867
905.569	18768
905.686	18909
905.803	18745
905.921	18700
906.038	18715
906.155	18688
906.272	18502
906.389	18437
906.506	18410
906.623	18330
906.74	18395
906.857	18330
906.974	18121
907.091	18395
907.208	18521
907.324	18384
907.441	18330
907.557	18057
907.674	18076
907.79	17999
907.907	18110
908.023	18079
908.139	18030
908.256	18022
908.372	17893
908.488	17897
908.604	17847
908.72	17737
908.836	17718
908.952	17672
909.068	17904
909.184	17897
909.3	17866
909.415	17809
909.531	17737
909.647	17463
909.762	17577
909.878	17315
909.993	17532
910.108	17383
910.224	17425
910.339	17493
910.454	17402
910.57	17360
910.685	17151
910.8	17421
910.915	17372
911.03	17391
911.145	17147
911.259	17124
911.374	17064
911.489	16972
911.604	16858
911.718	16858
911.833	16877
911.947	16797
912.062	16797
912.176	16793
912.291	16786
912.405	16805
912.519	17006
912.633	17045
912.748	16744
912.862	16706
912.976	16599
913.09	16478
913.204	16531
913.318	16622
913.431	16721
913.545	16694
913.659	16702
913.772	16493
913.886	16436
914	16436
914.113	16455
914.226	16550
914.34	16337
914.453	16230
914.566	16428
914.68	16314
914.793	16303
914.906	16082
915.019	15994
915.132	15934
915.245	15941
915.358	15975
915.47	15960
915.583	15873
915.696	15922
915.809	16101
915.921	16097
916.034	15945
916.146	16036
916.259	15968
916.371	15895
916.483	15941
916.595	15876
916.708	15690
916.82	15762
916.932	15797
917.044	15679
917.156	15774
917.268	15564
917.38	15595
917.491	15538
917.603	15618
917.715	15610
917.826	15732
917.938	15530
918.049	15424
918.161	15526
918.272	15618
918.384	15644
918.495	15454
918.606	15359
918.717	15268
918.828	15374
918.939	15310
919.05	15211
919.161	15260
919.272	15116
919.383	15226
919.494	15283
919.604	15466
919.715	15279
919.826	15180
919.936	15283
920.047	15389
920.157	15378
920.267	15469
920.378	15298
920.488	15272
920.598	15477
920.708	15568
920.818	15397
920.928	15431
921.038	15557
921.148	15561
921.258	15233
921.368	15199
921.477	15039
921.587	15043
921.697	14906
921.806	15013
921.916	14853
922.025	14689
922.134	14689
922.244	14689
922.353	14712
922.462	14507
922.571	14434
922.68	14259
922.789	14305
922.898	14248
923.007	14172
923.116	14286
923.224	14225
923.333	14218
923.442	14210
923.55	14065
923.659	14142
923.767	14172
923.876	14050
923.984	14088
924.092	13963
924.201	14084
924.309	13986
924.417	13989
924.525	13890
924.633	13940
924.741	14826
924.849	13662
924.956	13921
925.064	13681
925.172	13590
925.279	13666
925.387	13586
925.494	13636
925.602	13757
925.709	13601
925.816	13548
925.924	13639
926.031	13636
926.138	13563
926.245	13590
926.352	13582
926.459	13533
926.566	13643
926.673	13537
926.779	13411
926.886	13339
926.993	13274
927.099	13194
927.206	13118
927.312	13118
927.419	13251
927.525	13202
927.631	13194
927.737	13099
927.843	13114
927.95	12951
928.056	13012
928.162	13027
928.267	13046
928.373	13575
928.479	13038
928.585	12871
928.69	13012
928.796	13038
928.901	12844
929.007	12703
929.112	12924
929.218	12825
929.323	12897
929.428	12719
929.533	12825
929.638	12597
929.743	12623
929.848	12760
929.953	12566
930.058	12547
930.163	12441
930.267	12483
930.372	12593
930.477	12308
930.581	12540
930.685	12414
930.79	12292
930.894	12258
930.998	12251
931.103	12372
931.207	12053
931.311	11931
931.415	11878
931.519	11634
931.623	11611
