Data from test_V78500241_3588.txt Node
Date: Fri Mar 25 16:06:39 CST 2022
User: usil
Spectrometer: V785-0024
Trigger mode: 0
Integration Time (sec): 4.000000E-1
Scans to average: 1
Nonlinearity correction enabled: false
Boxcar width: 0
Storing dark spectrum: false
XAxis mode: Wavelengths
Number of Pixels in Spectrum: 1024
>>>>>Begin Spectral Data<<<<<
801.071	28771
801.214	28569
801.356	28428
801.499	28459
801.641	28375
801.783	28405
801.926	28344
802.068	28299
802.211	28306
802.353	28219
802.496	28070
802.638	28040
802.78	27956
802.923	27884
803.065	27846
803.208	27922
803.35	28116
803.492	28097
803.635	28226
803.777	28192
803.919	28249
804.061	28687
804.204	28371
804.346	28268
804.488	28211
804.63	28150
804.773	28234
804.915	28409
805.057	28306
805.199	28234
805.341	28310
805.483	28424
805.626	28348
805.768	28242
805.91	28314
806.052	28474
806.194	28432
806.336	28519
806.478	28459
806.62	28398
806.762	28615
806.904	28710
807.046	29003
807.188	28831
807.33	28831
807.472	28953
807.614	28793
807.756	28885
807.898	28744
808.04	28710
808.182	28618
808.324	28755
808.465	28869
808.607	28961
808.749	29086
808.891	29223
809.033	29189
809.174	29242
809.316	29124
809.458	29155
809.6	29010
809.741	28995
809.883	29277
810.025	29303
810.166	29212
810.308	29406
810.45	29425
810.591	29383
810.733	29197
810.875	29166
811.016	29227
811.158	29124
811.299	29235
811.441	29296
811.582	29307
811.724	29071
811.865	29204
812.007	29159
812.148	29181
812.29	29231
812.431	29383
812.573	29531
812.714	29642
812.855	29687
812.997	29672
813.138	29767
813.279	29790
813.421	29592
813.562	29452
813.703	29387
813.845	29410
813.986	29258
814.127	28900
814.268	29003
814.41	28953
814.551	28786
814.692	28949
814.833	28869
814.974	28809
815.115	28748
815.256	28683
815.397	28721
815.539	28630
815.68	28668
815.821	28493
815.962	28691
816.103	28645
816.244	28557
816.385	28516
816.526	28485
816.666	28386
816.807	28166
816.948	28253
817.089	28253
817.23	28139
817.371	28116
817.512	28124
817.653	28086
817.793	28116
817.934	28093
818.075	28070
818.216	28173
818.356	28074
818.497	28074
818.638	28021
818.778	27922
818.919	27937
819.06	27918
819.2	28029
819.341	28059
819.481	28257
819.622	28363
819.762	28618
819.903	28470
820.043	28440
820.184	28371
820.324	28234
820.465	28295
820.605	28257
820.746	28223
820.886	28158
821.026	28287
821.167	28234
821.307	28356
821.447	28166
821.588	28234
821.728	27934
821.868	27800
822.008	27747
822.149	27549
822.289	27739
822.429	27359
822.569	27298
822.709	27332
822.849	27207
822.99	27112
823.13	27131
823.27	27176
823.41	27108
823.55	26777
823.69	27013
823.83	27005
823.97	26971
824.11	26868
824.25	26724
824.389	26716
824.529	26861
824.669	26785
824.809	26872
824.949	26925
825.089	26872
825.228	26868
825.368	26739
825.508	26735
825.648	26826
825.787	26769
825.927	26602
826.067	26617
826.206	26663
826.346	26746
826.485	26705
826.625	26648
826.765	26853
826.904	26689
827.044	26400
827.183	26423
827.323	26358
827.462	26499
827.601	26446
827.741	26442
827.88	26488
828.02	26218
828.159	26339
828.298	26351
828.437	26522
828.577	26457
828.716	26419
828.855	26355
828.994	26103
829.134	26180
829.273	26168
829.412	26103
829.551	26008
829.69	26206
829.829	26180
829.968	26107
830.107	26206
830.246	26161
830.385	25925
830.524	26073
830.663	25852
830.802	25670
830.941	25712
831.08	25674
831.219	25860
831.357	25742
831.496	25978
831.635	25670
831.774	25731
831.913	25571
832.051	25548
832.19	25460
832.329	25514
832.467	25476
832.606	25472
832.744	25327
832.883	25335
833.022	25468
833.16	25400
833.299	25453
833.437	25457
833.576	25449
833.714	25620
833.852	25464
833.991	25472
834.129	25460
834.267	25537
834.406	25468
834.544	25525
834.682	25354
834.821	25521
834.959	25597
835.097	25339
835.235	25434
835.373	25533
835.511	25460
835.65	25434
835.788	25411
835.926	25183
836.064	25175
836.202	25190
836.34	25362
836.478	25324
836.615	25278
836.753	25236
836.891	25304
837.029	25282
837.167	25091
837.305	25266
837.443	25061
837.58	25118
837.718	25160
837.856	25160
837.993	25031
838.131	25164
838.269	25053
838.406	25038
838.544	24817
838.681	24639
838.819	24673
838.956	24547
839.094	24601
839.231	24525
839.369	24711
839.506	24859
839.643	24894
839.781	24521
839.918	24540
840.055	24566
840.193	24479
840.33	24467
840.467	24403
840.604	24532
840.742	24665
840.879	24228
841.016	24460
841.153	24334
841.29	24509
841.427	24346
841.564	24475
841.701	24479
841.838	24346
841.975	24437
842.112	24380
842.249	24300
842.385	24292
842.522	24437
842.659	24422
842.796	24281
842.933	24155
843.069	24098
843.206	24049
843.343	24289
843.479	24319
843.616	24194
843.752	23942
843.889	23996
844.025	24106
844.162	23908
844.298	23999
844.435	24034
844.571	24007
844.708	24060
844.844	24121
844.98	24163
845.117	24018
845.253	23961
845.389	23893
845.525	23843
845.661	24003
845.798	23790
845.934	23756
846.07	23756
846.206	23775
846.342	23870
846.478	23657
846.614	23410
846.75	23368
846.886	23482
847.022	23566
847.158	23406
847.294	23414
847.429	23512
847.565	23379
847.701	23653
847.837	23170
847.972	23239
848.108	23261
848.244	23113
848.379	23086
848.515	22991
848.65	23147
848.786	23025
848.921	23079
849.057	23083
849.192	23147
849.328	23132
849.463	23037
849.598	22908
849.734	23003
849.869	22877
850.004	22809
850.14	22797
850.275	22873
850.41	22771
850.545	22889
850.68	22736
850.815	22873
850.95	22904
851.085	22934
851.22	22991
851.355	22854
851.49	22820
851.625	22790
851.76	22736
851.895	22710
852.03	22687
852.165	22607
852.299	22896
852.434	22847
852.569	22790
852.703	22778
852.838	22892
852.973	22877
853.107	22961
853.242	22801
853.376	22649
853.511	22421
853.645	22569
853.78	22687
853.914	22687
854.048	22588
854.183	22565
854.317	22736
854.451	22915
854.585	22691
854.72	22580
854.854	22656
854.988	22478
855.122	22626
855.256	22527
855.39	22615
855.524	22584
855.658	22656
855.792	22649
855.926	22649
856.06	22691
856.194	22778
856.327	22626
856.461	22653
856.595	22569
856.729	22618
856.862	22691
856.996	22786
857.13	22554
857.263	22752
857.397	22752
857.53	22508
857.664	22641
857.797	22660
857.931	22755
858.064	22554
858.197	22656
858.331	22527
858.464	22615
858.597	22455
858.731	22660
858.864	22580
858.997	22512
859.13	22584
859.263	22645
859.396	22573
859.529	22626
859.662	22626
859.795	22653
859.928	22641
860.061	22835
860.194	22786
860.327	22706
860.46	22755
860.592	22721
860.725	22744
860.858	22782
860.99	22538
861.123	22478
861.256	22615
861.388	22679
861.521	23311
861.653	22607
861.786	22409
861.918	22550
862.05	22413
862.183	22436
862.315	22622
862.447	22611
862.58	22550
862.712	22489
862.844	22306
862.976	22489
863.108	22352
863.24	22908
863.372	22287
863.504	22382
863.636	22459
863.768	22272
863.9	22390
864.032	22238
864.164	22265
864.296	22432
864.428	22417
864.559	22432
864.691	22424
864.823	22322
864.954	22249
865.086	22379
865.217	22230
865.349	22063
865.48	22249
865.612	22185
865.743	22367
865.875	22219
866.006	22116
866.137	22341
866.269	22188
866.4	22299
866.531	22192
866.662	22017
866.793	22112
866.924	22105
867.055	22215
867.186	22055
867.317	22059
867.448	22074
867.579	22166
867.71	22048
867.841	21998
867.972	22128
868.103	22074
868.233	22116
868.364	22154
868.495	22341
868.625	22314
868.756	22577
868.886	22268
869.017	22363
869.147	22478
869.278	22508
869.408	22436
869.539	22265
869.669	22512
869.799	22440
869.929	22519
870.06	22363
870.19	22721
870.32	22641
870.45	22729
870.58	22740
870.71	22896
870.84	22843
870.97	22645
871.1	22858
871.23	23048
871.36	22999
871.489	22786
871.619	22900
871.749	22984
871.879	22995
872.008	23090
872.138	23014
872.267	23025
872.397	22889
872.526	22972
872.656	22778
872.785	22793
872.915	23052
873.044	22976
873.173	23048
873.303	23083
873.432	23102
873.561	23166
873.69	23044
873.819	22949
873.948	23006
874.077	23090
874.206	23003
874.335	23022
874.464	23014
874.593	23235
874.722	23170
874.851	23326
874.979	23147
875.108	23231
875.237	23159
875.365	22976
875.494	23181
875.623	23098
875.751	23227
875.88	23337
876.008	23326
876.136	23376
876.265	23604
876.393	23718
876.521	23726
876.65	23726
876.778	23596
876.906	23570
877.034	23596
877.162	23539
877.29	23406
877.418	23490
877.546	23589
877.674	23551
877.802	23490
877.93	23581
878.058	23516
878.185	23387
878.313	23501
878.441	23471
878.568	23395
878.696	23501
878.824	23589
878.951	23649
879.079	23676
879.206	23821
879.333	23821
879.461	23627
879.588	23646
879.715	23707
879.842	23783
879.97	23611
880.097	23509
880.224	23410
880.351	23433
880.478	23395
880.605	23417
880.732	23417
880.859	23592
880.986	23360
881.112	23322
881.239	23246
881.366	23064
881.493	22923
881.619	22999
881.746	23056
881.872	22850
881.999	22923
882.125	22831
882.252	22999
882.378	22908
882.505	23060
882.631	22717
882.757	22740
882.883	22687
883.01	22645
883.136	22455
883.262	22447
883.388	22489
883.514	22599
883.64	22462
883.766	22497
883.892	22272
884.018	22493
884.143	22459
884.269	22485
884.395	22242
884.52	22162
884.646	22257
884.772	22173
884.897	22169
885.023	22249
885.148	22348
885.274	22413
885.399	22344
885.524	22238
885.65	22249
885.775	22284
885.9	22242
886.025	22265
886.15	22329
886.275	22105
886.4	22143
886.525	22109
886.65	22109
886.775	22135
886.9	22360
887.025	22337
887.149	22177
887.274	22135
887.399	22036
887.523	21941
887.648	21892
887.773	21892
887.897	22055
888.021	22040
888.146	21812
888.27	22200
888.395	22021
888.519	22067
888.643	21983
888.767	22032
888.891	21884
889.015	21751
889.139	21869
889.263	21781
889.387	21968
889.511	21941
889.635	21911
889.759	21808
889.883	21762
890.006	21747
890.13	21831
890.254	21618
890.377	21686
890.501	21507
890.624	21519
890.748	21511
890.871	21367
890.995	21233
891.118	21317
891.241	21237
891.364	21294
891.488	21348
891.611	21363
891.734	21279
891.857	21420
891.98	21317
892.103	21348
892.226	21313
892.349	21233
892.471	21112
892.594	21272
892.717	21283
892.839	21211
892.962	21233
893.085	21291
893.207	21161
893.33	21237
893.452	21070
893.575	21176
893.697	21169
893.819	21321
893.941	21431
894.064	21408
894.186	21096
894.308	21119
894.43	21252
894.552	21291
894.674	21249
894.796	21005
894.918	21108
895.04	20979
895.161	21237
895.283	21310
895.405	21081
895.526	21275
895.648	21161
895.769	21135
895.891	21226
896.012	21302
896.134	21264
896.255	21249
896.376	21055
896.498	21230
896.619	21161
896.74	21321
896.861	21154
896.982	21378
897.103	21572
897.224	21332
897.345	21382
897.466	21458
897.587	21374
897.708	21561
897.828	21317
897.949	21367
898.07	21279
898.19	21340
898.311	21542
898.431	21355
898.552	21405
898.672	21408
898.792	21435
898.913	21332
899.033	21329
899.153	21176
899.273	21066
899.393	21058
899.513	21188
899.633	21142
899.753	21039
899.873	21047
899.993	21150
900.113	21055
900.232	21138
900.352	20906
900.472	20944
900.591	20887
900.711	20937
900.83	20804
900.95	20979
901.069	20952
901.189	20773
901.308	20541
901.427	20362
901.546	20530
901.665	20503
901.784	20400
901.904	20328
902.023	20195
902.141	20096
902.26	19898
902.379	20084
902.498	19875
902.617	19883
902.735	20031
902.854	19875
902.973	19811
903.091	19487
903.21	19525
903.328	19601
903.446	19487
903.565	19464
903.683	19358
903.801	19384
903.919	19422
904.038	19358
904.156	19118
904.274	19141
904.392	19110
904.51	19015
904.627	19148
904.745	19171
904.863	19179
904.981	18901
905.098	18791
905.216	18871
905.334	18867
905.451	18863
905.569	18745
905.686	18677
905.803	18783
905.921	18642
906.038	18711
906.155	18547
906.272	18521
906.389	18555
906.506	18281
906.623	18315
906.74	18338
906.857	18239
906.974	18136
907.091	18437
907.208	18426
907.324	18289
907.441	18251
907.557	17942
907.674	17992
907.79	17992
907.907	17961
908.023	18003
908.139	18049
908.256	17961
908.372	18007
908.488	17950
908.604	17771
908.72	17619
908.836	17718
908.952	17828
909.068	17817
909.184	17832
909.3	17779
909.415	17737
909.531	17779
909.647	17467
909.762	17474
909.878	17376
909.993	17528
910.108	17356
910.224	17452
910.339	17433
910.454	17250
910.57	17330
910.685	17197
910.8	17448
910.915	17402
911.03	17216
911.145	17166
911.259	17006
911.374	17006
911.489	16980
911.604	16911
911.718	16820
911.833	16873
911.947	16710
912.062	16653
912.176	16847
912.291	16725
912.405	16634
912.519	16911
912.633	17010
912.748	16835
912.862	16691
912.976	16645
913.09	16405
913.204	16558
913.318	16615
913.431	16653
913.545	16618
913.659	16683
913.772	16451
913.886	16459
914	16379
914.113	16527
914.226	16379
914.34	16417
914.453	16200
914.566	16356
914.68	16249
914.793	16242
914.906	16074
915.019	16013
915.132	15880
915.245	15903
915.358	15934
915.47	15956
915.583	15884
915.696	15888
915.809	15987
915.921	16059
916.034	15907
916.146	15804
916.259	15793
916.371	15960
916.483	15903
916.595	15781
916.708	15793
916.82	15732
916.932	15675
917.044	15648
917.156	15663
917.268	15534
917.38	15587
917.491	15561
917.603	15641
917.715	15614
917.826	15667
917.938	15511
918.049	15439
918.161	15538
918.272	15561
918.384	15557
918.495	15603
918.606	15336
918.717	15313
918.828	15336
918.939	15241
919.05	15256
919.161	15214
919.272	15161
919.383	15123
919.494	15192
919.604	15412
919.715	15348
919.826	15180
919.936	15268
920.047	15370
920.157	15218
920.267	15439
920.378	15370
920.488	15230
920.598	15408
920.708	15591
920.818	15393
920.928	15439
921.038	15477
921.148	15515
921.258	15165
921.368	15154
921.477	14952
921.587	14883
921.697	14777
921.806	14960
921.916	14883
922.025	14552
922.134	14705
922.244	14568
922.353	14655
922.462	14438
922.571	14362
922.68	14271
922.789	14320
922.898	14199
923.007	14115
923.116	14290
923.224	14195
923.333	14206
923.442	14088
923.55	14115
923.659	14107
923.767	14164
923.876	14016
923.984	14039
924.092	14020
924.201	13974
924.309	13978
924.417	13963
924.525	13917
924.633	13909
924.741	14750
924.849	13651
924.956	13837
925.064	13750
925.172	13582
925.279	13685
925.387	13613
925.494	13636
925.602	13734
925.709	13643
925.816	13597
925.924	13624
926.031	13624
926.138	13578
926.245	13567
926.352	13396
926.459	13567
926.566	13597
926.673	13464
926.779	13426
926.886	13350
926.993	13263
927.099	13190
927.206	13095
927.312	13072
927.419	13168
927.525	13133
927.631	13225
927.737	13027
927.843	13008
927.95	13012
928.056	13012
928.162	13057
928.267	12993
928.373	13636
928.479	13050
928.585	12688
928.69	12966
928.796	13023
928.901	12875
929.007	12711
929.112	12825
929.218	12798
929.323	12734
929.428	12726
929.533	12779
929.638	12601
929.743	12692
929.848	12734
929.953	12700
930.058	12563
930.163	12346
930.267	12296
930.372	12513
930.477	12235
930.581	12521
930.685	12399
930.79	12148
930.894	12209
930.998	12251
931.103	12338
931.207	11912
931.311	11908
931.415	11828
931.519	11596
931.623	11577
