Data from test_V78500241_2382.txt Node
Date: Fri Mar 25 15:58:18 CST 2022
User: usil
Spectrometer: V785-0024
Trigger mode: 0
Integration Time (sec): 4.000000E-1
Scans to average: 1
Nonlinearity correction enabled: false
Boxcar width: 0
Storing dark spectrum: false
XAxis mode: Wavelengths
Number of Pixels in Spectrum: 1024
>>>>>Begin Spectral Data<<<<<
801.071	28660
801.214	28554
801.356	28573
801.499	28405
801.641	28154
801.783	28059
801.926	28139
802.068	28249
802.211	28158
802.353	28059
802.496	27964
802.638	27850
802.78	27926
802.923	27816
803.065	27819
803.208	27876
803.35	27793
803.492	28032
803.635	28105
803.777	27949
803.919	28215
804.061	28485
804.204	28162
804.346	28143
804.488	27930
804.63	28143
804.773	28154
804.915	28200
805.057	28337
805.199	28105
805.341	28291
805.483	28238
805.626	28329
805.768	28204
805.91	28280
806.052	28447
806.194	28306
806.336	28394
806.478	28154
806.62	28143
806.762	28337
806.904	28527
807.046	28729
807.188	28725
807.33	28679
807.472	28805
807.614	28721
807.756	28774
807.898	28729
808.04	28504
808.182	28512
808.324	28398
808.465	28660
808.607	28877
808.749	28987
808.891	28976
809.033	29170
809.174	29086
809.316	28991
809.458	28934
809.6	28801
809.741	28972
809.883	29124
810.025	29246
810.166	29239
810.308	29151
810.45	29048
810.591	29193
810.733	28984
810.875	28999
811.016	28881
811.158	28946
811.299	29098
811.441	29014
811.582	29064
811.724	29048
811.865	29010
812.007	29010
812.148	29025
812.29	29117
812.431	29033
812.573	29254
812.714	29410
812.855	29459
812.997	29543
813.138	29623
813.279	29566
813.421	29524
813.562	29436
813.703	29292
813.845	29204
813.986	28850
814.127	28892
814.268	28531
814.41	28752
814.551	28672
814.692	28774
814.833	28645
814.974	28615
815.115	28801
815.256	28478
815.397	28592
815.539	28519
815.68	28474
815.821	28489
815.962	28561
816.103	28401
816.244	28352
816.385	28287
816.526	28131
816.666	28135
816.807	27869
816.948	28154
817.089	28059
817.23	28044
817.371	27930
817.512	28074
817.653	28086
817.793	28078
817.934	27949
818.075	27892
818.216	28032
818.356	28070
818.497	27816
818.638	27610
818.778	27778
818.919	27812
819.06	27888
819.2	27960
819.341	27975
819.481	28032
819.622	28150
819.762	28375
819.903	28249
820.043	28219
820.184	28185
820.324	28135
820.465	28143
820.605	28093
820.746	28177
820.886	28010
821.026	28048
821.167	28017
821.307	28204
821.447	28013
821.588	27808
821.728	27842
821.868	27641
822.008	27416
822.149	27401
822.289	27416
822.429	27119
822.569	27051
822.709	27195
822.849	27058
822.99	27020
823.13	27009
823.27	26895
823.41	26880
823.55	26762
823.69	26800
823.83	26765
823.97	26655
824.11	26629
824.25	26667
824.389	26705
824.529	26644
824.669	26689
824.809	26746
824.949	26727
825.089	26750
825.228	26533
825.368	26507
825.508	26438
825.648	26423
825.787	26518
825.927	26431
826.067	26499
826.206	26549
826.346	26526
826.485	26541
826.625	26587
826.765	26663
826.904	26556
827.044	26355
827.183	26195
827.323	26172
827.462	26240
827.601	26282
827.741	26240
827.88	26317
828.02	26103
828.159	26138
828.298	26115
828.437	26237
828.577	26077
828.716	26244
828.855	26237
828.994	25936
829.134	25955
829.273	25940
829.412	25769
829.551	25772
829.69	25974
829.829	25978
829.968	25936
830.107	26054
830.246	25913
830.385	25814
830.524	25765
830.663	25632
830.802	25658
830.941	25472
831.08	25438
831.219	25578
831.357	25601
831.496	25750
831.635	25464
831.774	25518
831.913	25304
832.051	25285
832.19	25301
832.329	25259
832.467	25190
832.606	25209
832.744	25168
832.883	25168
833.022	25046
833.16	25202
833.299	25266
833.437	25107
833.576	25278
833.714	25206
833.852	25270
833.991	25320
834.129	25255
834.267	25335
834.406	25263
834.544	25266
834.682	25301
834.821	25209
834.959	25324
835.097	25145
835.235	25354
835.373	25141
835.511	25179
835.65	25118
835.788	25023
835.926	24875
836.064	24909
836.202	24871
836.34	24932
836.478	25141
836.615	25034
836.753	24981
836.891	25038
837.029	25107
837.167	25061
837.305	24856
837.443	24951
837.58	24897
837.718	24928
837.856	24928
837.993	24913
838.131	24802
838.269	24772
838.406	24757
838.544	24627
838.681	24407
838.819	24509
838.956	24418
839.094	24239
839.231	24395
839.369	24608
839.506	24730
839.643	24620
839.781	24437
839.918	24258
840.055	24410
840.193	24270
840.33	24155
840.467	24247
840.604	24308
840.742	24426
840.879	24300
841.016	24254
841.153	24277
841.29	24502
841.427	24239
841.564	24213
841.701	24258
841.838	24270
841.975	24098
842.112	24076
842.249	24076
842.385	24144
842.522	24178
842.659	24174
842.796	24060
842.933	23935
843.069	23942
843.206	23954
843.343	24087
843.479	24167
843.616	24041
843.752	23809
843.889	23760
844.025	23927
844.162	23840
844.298	23802
844.435	23718
844.571	23764
844.708	23783
844.844	23786
844.98	23935
845.117	23882
845.253	23680
845.389	23627
845.525	23619
845.661	23710
845.798	23433
845.934	23524
846.07	23379
846.206	23505
846.342	23729
846.478	23543
846.614	23200
846.75	23105
846.886	23296
847.022	23254
847.158	23223
847.294	23185
847.429	23204
847.565	23311
847.701	23505
847.837	22930
847.972	22930
848.108	23075
848.244	22987
848.379	22828
848.515	22858
848.65	22744
848.786	22736
848.921	22919
849.057	22812
849.192	22930
849.328	22896
849.463	22873
849.598	22847
849.734	22702
849.869	22580
850.004	22630
850.14	22618
850.275	22649
850.41	22489
850.545	22550
850.68	22497
850.815	22538
850.95	22535
851.085	22736
851.22	22793
851.355	22603
851.49	22516
851.625	22481
851.76	22634
851.895	22390
852.03	22516
852.165	22561
852.299	22645
852.434	22599
852.569	22588
852.703	22580
852.838	22740
852.973	22611
853.107	22660
853.242	22519
853.376	22481
853.511	22306
853.645	22398
853.78	22561
853.914	22535
854.048	22348
854.183	22299
854.317	22554
854.451	22580
854.585	22428
854.72	22474
854.854	22493
854.988	22367
855.122	22333
855.256	22322
855.39	22428
855.524	22432
855.658	22413
855.792	22436
855.926	22390
856.06	22447
856.194	22538
856.327	22455
856.461	22421
856.595	22310
856.729	22443
856.862	22489
856.996	22382
857.13	22500
857.263	22531
857.397	22504
857.53	22500
857.664	22363
857.797	22421
857.931	22535
858.064	22497
858.197	22500
858.331	22344
858.464	22352
858.597	22272
858.731	22348
858.864	22333
858.997	22443
859.13	22272
859.263	22481
859.396	22577
859.529	22478
859.662	22394
859.795	22379
859.928	22459
860.061	22580
860.194	22675
860.327	22432
860.46	22474
860.592	22561
860.725	22550
860.858	22455
860.99	22421
861.123	22265
861.256	22436
861.388	22295
861.521	23174
861.653	22390
861.786	22261
861.918	22230
862.05	22261
862.183	22371
862.315	22344
862.447	22329
862.58	22314
862.712	22044
862.844	22120
862.976	22158
863.108	22158
863.24	22641
863.372	22166
863.504	22211
863.636	22025
863.768	22276
863.9	22055
864.032	21987
864.164	22059
864.296	22105
864.428	22181
864.559	22219
864.691	22223
864.823	22154
864.954	22017
865.086	21979
865.217	22143
865.349	21907
865.48	22040
865.612	21975
865.743	22173
865.875	22143
866.006	21884
866.137	21968
866.269	21895
866.4	21960
866.531	21899
866.662	21918
866.793	21945
866.924	21979
867.055	21915
867.186	21956
867.317	22017
867.448	21846
867.579	21857
867.71	21854
867.841	21903
867.972	21930
868.103	21884
868.233	21899
868.364	21892
868.495	21998
868.625	22276
868.756	22268
868.886	22078
869.017	22078
869.147	22249
869.278	22230
869.408	22272
869.539	22147
869.669	22344
869.799	22207
869.929	22333
870.06	22196
870.19	22531
870.32	22451
870.45	22474
870.58	22504
870.71	22660
870.84	22645
870.97	22710
871.1	22550
871.23	22755
871.36	22717
871.489	22630
871.619	22736
871.749	22729
871.879	22862
872.008	22908
872.138	22782
872.267	22900
872.397	22603
872.526	22656
872.656	22592
872.785	22622
872.915	22801
873.044	23037
873.173	22820
873.303	22736
873.432	22885
873.561	22904
873.69	22782
873.819	22713
873.948	22797
874.077	22820
874.206	22763
874.335	22892
874.464	23071
874.593	22961
874.722	22927
874.851	22965
874.979	23121
875.108	23003
875.237	23075
875.365	22923
875.494	22984
875.623	23193
875.751	22953
875.88	23090
876.008	23048
876.136	23147
876.265	23444
876.393	23543
876.521	23391
876.65	23509
876.778	23459
876.906	23372
877.034	23318
877.162	23372
877.29	23360
877.418	23349
877.546	23482
877.674	23406
877.802	23383
877.93	23364
878.058	23322
878.185	23235
878.313	23220
878.441	23440
878.568	23231
878.696	23261
878.824	23311
878.951	23337
879.079	23543
879.206	23596
879.333	23543
879.461	23246
879.588	23509
879.715	23520
879.842	23486
879.97	23467
880.097	23208
880.224	23181
880.351	23166
880.478	23132
880.605	23254
880.732	23277
880.859	23516
880.986	23265
881.112	23227
881.239	23098
881.366	22866
881.493	22824
881.619	22793
881.746	22809
881.872	22710
881.999	22778
882.125	22740
882.252	22828
882.378	22679
882.505	22847
882.631	22569
882.757	22402
882.883	22440
883.01	22333
883.136	22363
883.262	22382
883.388	22177
883.514	22417
883.64	22470
883.766	22299
883.892	22139
884.018	22280
884.143	22322
884.269	22382
884.395	22101
884.52	22059
884.646	22086
884.772	22097
884.897	22021
885.023	22112
885.148	22124
885.274	22166
885.399	22109
885.524	21941
885.65	22013
885.775	22074
885.9	22010
886.025	22185
886.15	22112
886.275	22025
886.4	22082
886.525	22006
886.65	22006
886.775	21968
886.9	22059
887.025	22223
887.149	22044
887.274	21835
887.399	21835
887.523	21873
887.648	21808
887.773	21755
887.897	21835
888.021	21884
888.146	21720
888.27	21835
888.395	21869
888.519	21778
888.643	21759
888.767	21793
888.891	21778
889.015	21622
889.139	21576
889.263	21652
889.387	21694
889.511	21922
889.635	21930
889.759	21587
889.883	21728
890.006	21637
890.13	21713
890.254	21534
890.377	21606
890.501	21321
890.624	21435
890.748	21382
890.871	21211
890.995	21241
891.118	21017
891.241	21104
891.364	21131
891.488	21226
891.611	21104
891.734	21127
891.857	21146
891.98	21108
892.103	21230
892.226	21096
892.349	21112
892.471	21005
892.594	21039
892.717	21165
892.839	21051
892.962	21058
893.085	21161
893.207	20963
893.33	20895
893.452	21020
893.575	20994
893.697	21009
893.819	21142
893.941	21199
894.064	21135
894.186	21005
894.308	20952
894.43	21036
894.552	21074
894.674	21112
894.796	20834
894.918	21001
895.04	20921
895.161	21131
895.283	20994
895.405	20963
895.526	21074
895.648	21043
895.769	21116
895.891	21119
896.012	21180
896.134	20933
896.255	21047
896.376	20998
896.498	21062
896.619	21085
896.74	20941
896.861	21154
896.982	21275
897.103	21412
897.224	21245
897.345	21173
897.466	21176
897.587	21249
897.708	21374
897.828	21298
897.949	21157
898.07	21077
898.19	21173
898.311	21275
898.431	21184
898.552	21275
898.672	21370
898.792	21192
898.913	21188
899.033	21135
899.153	21013
899.273	20887
899.393	20815
899.513	20971
899.633	20982
899.753	20998
899.873	20925
899.993	20975
900.113	20902
900.232	21005
900.352	20929
900.472	20823
900.591	20636
900.711	20819
900.83	20655
900.95	20785
901.069	20765
901.189	20648
901.308	20446
901.427	20438
901.546	20385
901.665	20317
901.784	20199
901.904	20259
902.023	20012
902.141	19928
902.26	19902
902.379	19833
902.498	19746
902.617	19693
902.735	19811
902.854	19780
902.973	19776
903.091	19491
903.21	19506
903.328	19400
903.446	19354
903.565	19259
903.683	19285
903.801	19114
903.919	19236
904.038	19126
904.156	19031
904.274	19061
904.392	18932
904.51	19027
904.627	19019
904.745	19114
904.863	18970
904.981	18814
905.098	18684
905.216	18665
905.334	18745
905.451	18669
905.569	18620
905.686	18635
905.803	18741
905.921	18555
906.038	18551
906.155	18471
906.272	18323
906.389	18391
906.506	18285
906.623	18220
906.74	18178
906.857	18019
906.974	18163
907.091	18167
907.208	18391
907.324	18178
907.441	18095
907.557	17954
907.674	17923
907.79	17870
907.907	17878
908.023	17977
908.139	17931
908.256	17874
908.372	17794
908.488	17729
908.604	17665
908.72	17581
908.836	17589
908.952	17611
909.068	17665
909.184	17809
909.3	17661
909.415	17676
909.531	17684
909.647	17406
909.762	17322
909.878	17322
909.993	17402
910.108	17261
910.224	17303
910.339	17345
910.454	17155
910.57	17208
910.685	17045
910.8	17311
910.915	17231
911.03	17178
911.145	16942
911.259	16934
911.374	17045
911.489	16740
911.604	16687
911.718	16622
911.833	16641
911.947	16664
912.062	16470
912.176	16615
912.291	16668
912.405	16626
912.519	16885
912.633	16892
912.748	16611
912.862	16672
912.976	16447
913.09	16318
913.204	16519
913.318	16500
913.431	16462
913.545	16379
913.659	16607
913.772	16436
913.886	16306
914	16299
914.113	16272
914.226	16272
914.34	16329
914.453	16097
914.566	16207
914.68	16071
914.793	15998
914.906	15937
915.019	15759
915.132	15842
915.245	15629
915.358	15930
915.47	15846
915.583	15789
915.696	15842
915.809	15884
915.921	15854
916.034	15838
916.146	15663
916.259	15713
916.371	15793
916.483	15785
916.595	15648
916.708	15713
916.82	15652
916.932	15667
917.044	15599
917.156	15572
917.268	15488
917.38	15435
917.491	15439
917.603	15485
917.715	15523
917.826	15622
917.938	15310
918.049	15294
918.161	15310
918.272	15530
918.384	15408
918.495	15382
918.606	15127
918.717	15089
918.828	15283
918.939	15226
919.05	15097
919.161	15249
919.272	14902
919.383	15001
919.494	15135
919.604	15378
919.715	15108
919.826	15051
919.936	15203
920.047	15195
920.157	15142
920.267	15401
920.378	15207
920.488	15043
920.598	15363
920.708	15454
920.818	15287
920.928	15245
921.038	15496
921.148	15450
921.258	15097
921.368	15017
921.477	14941
921.587	14933
921.697	14765
921.806	14914
921.916	14712
922.025	14610
922.134	14450
922.244	14495
922.353	14560
922.462	14408
922.571	14309
922.68	14252
922.789	14153
922.898	14191
923.007	14103
923.116	14168
923.224	14031
923.333	14180
923.442	13921
923.55	13921
923.659	14035
923.767	14039
923.876	13906
923.984	13947
924.092	13822
924.201	13845
924.309	13970
924.417	13936
924.525	13887
924.633	13750
924.741	14739
924.849	13540
924.956	13769
925.064	13666
925.172	13495
925.279	13521
925.387	13529
925.494	13491
925.602	13704
925.709	13529
925.816	13499
925.924	13483
926.031	13521
926.138	13373
926.245	13407
926.352	13373
926.459	13453
926.566	13590
926.673	13308
926.779	13373
926.886	13259
926.993	13099
927.099	13080
927.206	13034
927.312	13072
927.419	13004
927.525	12981
927.631	13065
927.737	12973
927.843	12852
927.95	12749
928.056	12852
928.162	12958
928.267	13050
928.373	13582
928.479	12954
928.585	12703
928.69	12852
928.796	12935
928.901	12688
929.007	12566
929.112	12795
929.218	12711
929.323	12654
929.428	12566
929.533	12715
929.638	12437
929.743	12486
929.848	12608
929.953	12388
930.058	12407
930.163	12239
930.267	12270
930.372	12361
930.477	12239
930.581	12441
930.685	12342
930.79	12152
930.894	12216
930.998	12083
931.103	12300
931.207	11904
931.311	11760
931.415	11676
931.519	11551
931.623	11547
