Data from test_V78500241_1234.txt Node
Date: Fri Mar 25 15:50:20 CST 2022
User: usil
Spectrometer: V785-0024
Trigger mode: 0
Integration Time (sec): 4.000000E-1
Scans to average: 1
Nonlinearity correction enabled: false
Boxcar width: 0
Storing dark spectrum: false
XAxis mode: Wavelengths
Number of Pixels in Spectrum: 1024
>>>>>Begin Spectral Data<<<<<
801.071	28782
801.214	28603
801.356	28421
801.499	28417
801.641	28394
801.783	28318
801.926	28322
802.068	28265
802.211	28268
802.353	28196
802.496	27934
802.638	27895
802.78	28055
802.923	28006
803.065	27884
803.208	27956
803.35	28097
803.492	28173
803.635	28048
803.777	28226
803.919	28223
804.061	28618
804.204	28360
804.346	28230
804.488	28188
804.63	28299
804.773	28120
804.915	28207
805.057	28261
805.199	28246
805.341	28131
805.483	28303
805.626	28333
805.768	28333
805.91	28299
806.052	28489
806.194	28329
806.336	28637
806.478	28398
806.62	28504
806.762	28485
806.904	28786
807.046	29014
807.188	28892
807.33	28858
807.472	28957
807.614	28801
807.756	28831
807.898	28797
808.04	28729
808.182	28733
808.324	28721
808.465	28793
808.607	29025
808.749	29056
808.891	29170
809.033	29258
809.174	29151
809.316	29105
809.458	29113
809.6	29083
809.741	29197
809.883	29216
810.025	29292
810.166	29478
810.308	29368
810.45	29417
810.591	29429
810.733	29212
810.875	29193
811.016	29060
811.158	28995
811.299	29178
811.441	29303
811.582	29193
811.724	29136
811.865	29105
812.007	29075
812.148	29132
812.29	29322
812.431	29315
812.573	29452
812.714	29589
812.855	29760
812.997	29707
813.138	29859
813.279	29798
813.421	29821
813.562	29756
813.703	29554
813.845	29509
813.986	29124
814.127	28892
814.268	28904
814.41	28888
814.551	28767
814.692	28858
814.833	28908
814.974	28927
815.115	28915
815.256	28683
815.397	28786
815.539	28736
815.68	28710
815.821	28527
815.962	28698
816.103	28653
816.244	28451
816.385	28603
816.526	28462
816.666	28276
816.807	28162
816.948	28246
817.089	28223
817.23	28173
817.371	28284
817.512	28150
817.653	28143
817.793	28112
817.934	28196
818.075	28265
818.216	28295
818.356	28154
818.497	28051
818.638	28048
818.778	27922
818.919	27945
819.06	28044
819.2	28040
819.341	28177
819.481	28188
819.622	28265
819.762	28512
819.903	28401
820.043	28295
820.184	28299
820.324	28265
820.465	28413
820.605	28379
820.746	28265
820.886	28215
821.026	28287
821.167	28295
821.307	28390
821.447	28295
821.588	28124
821.728	28131
821.868	27797
822.008	27724
822.149	27804
822.289	27644
822.429	27443
822.569	27321
822.709	27207
822.849	27279
822.99	27157
823.13	27154
823.27	27131
823.41	27039
823.55	26819
823.69	27093
823.83	27001
823.97	26880
824.11	26796
824.25	26895
824.389	26902
824.529	27009
824.669	26880
824.809	26887
824.949	26971
825.089	26940
825.228	26929
825.368	26739
825.508	26655
825.648	26716
825.787	26708
825.927	26743
826.067	26686
826.206	26613
826.346	26815
826.485	26655
826.625	26739
826.765	26834
826.904	26575
827.044	26556
827.183	26625
827.323	26366
827.462	26583
827.601	26339
827.741	26476
827.88	26408
828.02	26313
828.159	26385
828.298	26355
828.437	26507
828.577	26453
828.716	26503
828.855	26320
828.994	26024
829.134	26065
829.273	26202
829.412	25978
829.551	26058
829.69	26214
829.829	26244
829.968	26187
830.107	26180
830.246	26161
830.385	26050
830.524	26001
830.663	26001
830.802	25788
830.941	25635
831.08	25689
831.219	25871
831.357	25738
831.496	26058
831.635	25639
831.774	25635
831.913	25464
832.051	25460
832.19	25556
832.329	25597
832.467	25438
832.606	25449
832.744	25362
832.883	25392
833.022	25270
833.16	25445
833.299	25518
833.437	25400
833.576	25483
833.714	25544
833.852	25445
833.991	25460
834.129	25624
834.267	25487
834.406	25628
834.544	25460
834.682	25392
834.821	25403
834.959	25590
835.097	25346
835.235	25499
835.373	25434
835.511	25415
835.65	25362
835.788	25297
835.926	25126
836.064	25012
836.202	25057
836.34	25388
836.478	25312
836.615	25091
836.753	25209
836.891	25343
837.029	25320
837.167	25247
837.305	25236
837.443	25240
837.58	25209
837.718	25107
837.856	25069
837.993	24989
838.131	24935
838.269	25038
838.406	24958
838.544	24909
838.681	24688
838.819	24665
838.956	24684
839.094	24486
839.231	24612
839.369	24745
839.506	24924
839.643	24726
839.781	24578
839.918	24486
840.055	24555
840.193	24486
840.33	24418
840.467	24563
840.604	24483
840.742	24814
840.879	24372
841.016	24456
841.153	24346
841.29	24570
841.427	24448
841.564	24589
841.701	24403
841.838	24521
841.975	24353
842.112	24391
842.249	24315
842.385	24163
842.522	24460
842.659	24300
842.796	24148
842.933	24258
843.069	23992
843.206	24182
843.343	24292
843.479	24319
843.616	24182
843.752	23916
843.889	24041
844.025	24144
844.162	23912
844.298	24057
844.435	23923
844.571	23942
844.708	24057
844.844	24220
844.98	24057
845.117	24114
845.253	23783
845.389	23718
845.525	23912
845.661	24007
845.798	23668
845.934	23748
846.07	23703
846.206	23843
846.342	23741
846.478	23596
846.614	23634
846.75	23440
846.886	23429
847.022	23493
847.158	23490
847.294	23531
847.429	23493
847.565	23436
847.701	23649
847.837	23113
847.972	23117
848.108	23227
848.244	23303
848.379	23117
848.515	22927
848.65	23006
848.786	23166
848.921	23033
849.057	23128
849.192	23204
849.328	22991
849.463	23090
849.598	23086
849.734	22915
849.869	22934
850.004	22649
850.14	22866
850.275	22763
850.41	22725
850.545	22634
850.68	22694
850.815	22774
850.95	22793
851.085	22965
851.22	22946
851.355	22854
851.49	22790
851.625	22759
851.76	22736
851.895	22679
852.03	22607
852.165	22847
852.299	22831
852.434	22881
852.569	22748
852.703	22793
852.838	22774
852.973	22976
853.107	22843
853.242	22691
853.376	22645
853.511	22481
853.645	22565
853.78	22843
853.914	22691
854.048	22519
854.183	22611
854.317	22729
854.451	22847
854.585	22497
854.72	22527
854.854	22672
854.988	22599
855.122	22584
855.256	22481
855.39	22497
855.524	22577
855.658	22588
855.792	22672
855.926	22634
856.06	22786
856.194	22721
856.327	22649
856.461	22542
856.595	22687
856.729	22519
856.862	22675
856.996	22615
857.13	22607
857.263	22839
857.397	22641
857.53	22546
857.664	22596
857.797	22649
857.931	22683
858.064	22698
858.197	22713
858.331	22565
858.464	22618
858.597	22504
858.731	22626
858.864	22603
858.997	22622
859.13	22569
859.263	22542
859.396	22649
859.529	22599
859.662	22577
859.795	22538
859.928	22603
860.061	22759
860.194	22904
860.327	22698
860.46	22679
860.592	22656
860.725	22725
860.858	22694
860.99	22725
861.123	22550
861.256	22580
861.388	22466
861.521	23376
861.653	22344
861.786	22432
861.918	22402
862.05	22402
862.183	22561
862.315	22527
862.447	22516
862.58	22615
862.712	22253
862.844	22246
862.976	22436
863.108	22356
863.24	22797
863.372	22333
863.504	22303
863.636	22291
863.768	22226
863.9	22344
864.032	22200
864.164	22322
864.296	22402
864.428	22466
864.559	22333
864.691	22344
864.823	22295
864.954	22341
865.086	22219
865.217	22093
865.349	22139
865.48	22131
865.612	22299
865.743	22261
865.875	22173
866.006	22215
866.137	22177
866.269	22116
866.4	22276
866.531	22090
866.662	22105
866.793	22063
866.924	22070
867.055	22188
867.186	22192
867.317	22101
867.448	21994
867.579	22059
867.71	22109
867.841	21979
867.972	22158
868.103	22120
868.233	22128
868.364	22044
868.495	22284
868.625	22295
868.756	22409
868.886	22333
869.017	22356
869.147	22428
869.278	22637
869.408	22325
869.539	22344
869.669	22413
869.799	22265
869.929	22538
870.06	22409
870.19	22611
870.32	22580
870.45	22694
870.58	22660
870.71	22919
870.84	22752
870.97	22782
871.1	22744
871.23	22801
871.36	23025
871.489	22911
871.619	22854
871.749	22946
871.879	22946
872.008	23128
872.138	22877
872.267	23090
872.397	22854
872.526	22752
872.656	22653
872.785	22755
872.915	23029
873.044	23029
873.173	22976
873.303	23094
873.432	23003
873.561	23052
873.69	23033
873.819	22938
873.948	23048
874.077	22942
874.206	22953
874.335	23025
874.464	23025
874.593	23223
874.722	23239
874.851	23079
874.979	23216
875.108	23166
875.237	23041
875.365	23117
875.494	23056
875.623	23258
875.751	23174
875.88	23250
876.008	23269
876.136	23231
876.265	23566
876.393	23657
876.521	23501
876.65	23611
876.778	23668
876.906	23509
877.034	23516
877.162	23562
877.29	23410
877.418	23531
877.546	23467
877.674	23471
877.802	23562
877.93	23433
878.058	23391
878.185	23311
878.313	23421
878.441	23497
878.568	23429
878.696	23440
878.824	23509
878.951	23611
879.079	23623
879.206	23870
879.333	23695
879.461	23531
879.588	23642
879.715	23718
879.842	23752
879.97	23505
880.097	23330
880.224	23349
880.351	23376
880.478	23280
880.605	23292
880.732	23383
880.859	23547
880.986	23307
881.112	23292
881.239	23265
881.366	23079
881.493	22991
881.619	22869
881.746	22934
881.872	22873
881.999	22892
882.125	22778
882.252	22904
882.378	22831
882.505	23014
882.631	22752
882.757	22596
882.883	22637
883.01	22519
883.136	22607
883.262	22470
883.388	22363
883.514	22649
883.64	22607
883.766	22424
883.892	22424
884.018	22348
884.143	22421
884.269	22550
884.395	22333
884.52	22192
884.646	22166
884.772	22154
884.897	21994
885.023	22185
885.148	22196
885.274	22276
885.399	22211
885.524	22173
885.65	22166
885.775	22109
885.9	22185
886.025	22356
886.15	22219
886.275	22101
886.4	22063
886.525	22082
886.65	22013
886.775	22109
886.9	22367
887.025	22443
887.149	22150
887.274	22067
887.399	22002
887.523	21941
887.648	21884
887.773	21876
887.897	21945
888.021	22036
888.146	21979
888.27	22082
888.395	22109
888.519	21918
888.643	21941
888.767	21998
888.891	21949
889.015	21812
889.139	21705
889.263	21698
889.387	21880
889.511	21907
889.635	21880
889.759	21717
889.883	21660
890.006	21713
890.13	21869
890.254	21591
890.377	21580
890.501	21496
890.624	21428
890.748	21519
890.871	21291
890.995	21332
891.118	21214
891.241	21264
891.364	21100
891.488	21370
891.611	21325
891.734	21226
891.857	21332
891.98	21310
892.103	21317
892.226	21252
892.349	21169
892.471	21051
892.594	21203
892.717	21119
892.839	21161
892.962	21222
893.085	21074
893.207	21138
893.33	21001
893.452	21043
893.575	21218
893.697	21218
893.819	21260
893.941	21348
894.064	21306
894.186	21127
894.308	21009
894.43	21180
894.552	21317
894.674	21218
894.796	21180
894.918	21123
895.04	21051
895.161	21188
895.283	21207
895.405	21096
895.526	21249
895.648	21165
895.769	21272
895.891	21146
896.012	21226
896.134	21119
896.255	21218
896.376	21062
896.498	21085
896.619	21195
896.74	21218
896.861	21272
896.982	21561
897.103	21644
897.224	21412
897.345	21340
897.466	21222
897.587	21310
897.708	21412
897.828	21275
897.949	21264
898.07	21188
898.19	21313
898.311	21488
898.431	21249
898.552	21279
898.672	21477
898.792	21412
898.913	21374
899.033	21138
899.153	21085
899.273	21047
899.393	21013
899.513	21024
899.633	21032
899.753	21081
899.873	20948
899.993	21070
900.113	21062
900.232	21028
900.352	21032
900.472	20891
900.591	20807
900.711	20906
900.83	20720
900.95	20906
901.069	20861
901.189	20629
901.308	20541
901.427	20400
901.546	20492
901.665	20484
901.784	20381
901.904	20244
902.023	20134
902.141	20077
902.26	19852
902.379	20035
902.498	19963
902.617	19917
902.735	19868
902.854	19913
902.973	19788
903.091	19578
903.21	19628
903.328	19544
903.446	19381
903.565	19308
903.683	19377
903.801	19221
903.919	19339
904.038	19312
904.156	19160
904.274	19069
904.392	19122
904.51	19187
904.627	19107
904.745	19118
904.863	19072
904.981	18958
905.098	18856
905.216	18821
905.334	18837
905.451	18829
905.569	18738
905.686	18768
905.803	18757
905.921	18601
906.038	18688
906.155	18627
906.272	18388
906.389	18544
906.506	18357
906.623	18308
906.74	18285
906.857	18167
906.974	18243
907.091	18418
907.208	18464
907.324	18216
907.441	18129
907.557	18083
907.674	18095
907.79	18076
907.907	17977
908.023	18167
908.139	17889
908.256	17977
908.372	17866
908.488	17805
908.604	17630
908.72	17707
908.836	17710
908.952	17767
909.068	17714
909.184	17897
909.3	17760
909.415	17764
909.531	17703
909.647	17478
909.762	17452
909.878	17421
909.993	17463
910.108	17337
910.224	17337
910.339	17421
910.454	17239
910.57	17189
910.685	17181
910.8	17360
910.915	17421
911.03	17212
911.145	16995
911.259	16980
911.374	16987
911.489	16927
911.604	16839
911.718	16752
911.833	16622
911.947	16626
912.062	16618
912.176	16672
912.291	16854
912.405	16767
912.519	16847
912.633	16980
912.748	16820
912.862	16713
912.976	16599
913.09	16474
913.204	16402
913.318	16637
913.431	16687
913.545	16603
913.659	16577
913.772	16508
913.886	16360
914	16276
914.113	16356
914.226	16497
914.34	16348
914.453	16150
914.566	16356
914.68	16173
914.793	16188
914.906	15968
915.019	15865
915.132	15903
915.245	15998
915.358	15922
915.47	15903
915.583	15937
915.696	15979
915.809	16067
915.921	16124
916.034	15922
916.146	15819
916.259	15873
916.371	15861
916.483	15857
916.595	15679
916.708	15766
916.82	15819
916.932	15728
917.044	15736
917.156	15652
917.268	15481
917.38	15504
917.491	15595
917.603	15618
917.715	15580
917.826	15637
917.938	15450
918.049	15424
918.161	15454
918.272	15557
918.384	15603
918.495	15526
918.606	15405
918.717	15268
918.828	15378
918.939	15348
919.05	15222
919.161	15264
919.272	15146
919.383	15195
919.494	15485
919.604	15496
919.715	15272
919.826	15188
919.936	15214
920.047	15378
920.157	15272
920.267	15397
920.378	15302
920.488	15287
920.598	15485
920.708	15622
920.818	15458
920.928	15462
921.038	15633
921.148	15538
921.258	15203
921.368	15112
921.477	14994
921.587	15001
921.697	14891
921.806	15055
921.916	14937
922.025	14655
922.134	14636
922.244	14648
922.353	14640
922.462	14530
922.571	14507
922.68	14324
922.789	14282
922.898	14221
923.007	14145
923.116	14309
923.224	14172
923.333	14176
923.442	14069
923.55	14092
923.659	14115
923.767	14138
923.876	14043
923.984	14218
924.092	14054
924.201	14046
924.309	13993
924.417	13989
924.525	13909
924.633	13940
924.741	14845
924.849	13727
924.956	13845
925.064	13727
925.172	13715
925.279	13636
925.387	13624
925.494	13651
925.602	13769
925.709	13677
925.816	13525
925.924	13495
926.031	13609
926.138	13540
926.245	13636
926.352	13400
926.459	13677
926.566	13696
926.673	13468
926.779	13384
926.886	13331
926.993	13270
927.099	13152
927.206	13225
927.312	13133
927.419	13149
927.525	13145
927.631	13221
927.737	13031
927.843	13031
927.95	12844
928.056	12939
928.162	13004
928.267	13065
928.373	13662
928.479	13076
928.585	12802
928.69	12924
928.796	12970
928.901	12798
929.007	12639
929.112	12848
929.218	12719
929.323	12696
929.428	12631
929.533	12901
929.638	12585
929.743	12711
929.848	12688
929.953	12650
930.058	12513
930.163	12357
930.267	12369
930.372	12566
930.477	12319
930.581	12582
930.685	12403
930.79	12277
930.894	12273
930.998	12224
931.103	12372
931.207	12019
931.311	11942
931.415	11714
931.519	11684
931.623	11551
