Data from test_V78500241_3274.txt Node
Date: Fri Mar 25 16:04:28 CST 2022
User: usil
Spectrometer: V785-0024
Trigger mode: 0
Integration Time (sec): 4.000000E-1
Scans to average: 1
Nonlinearity correction enabled: false
Boxcar width: 0
Storing dark spectrum: false
XAxis mode: Wavelengths
Number of Pixels in Spectrum: 1024
>>>>>Begin Spectral Data<<<<<
801.071	28386
801.214	28204
801.356	28044
801.499	28105
801.641	27857
801.783	27827
801.926	27964
802.068	27907
802.211	27759
802.353	27922
802.496	27545
802.638	27526
802.78	27523
802.923	27690
803.065	27545
803.208	27538
803.35	27542
803.492	27629
803.635	27816
803.777	27831
803.919	27785
804.061	28048
804.204	27861
804.346	27717
804.488	27720
804.63	27835
804.773	27675
804.915	27892
805.057	27888
805.199	27869
805.341	28029
805.483	27994
805.626	27895
805.768	27827
805.91	27964
806.052	27968
806.194	27911
806.336	28112
806.478	28017
806.62	28010
806.762	27998
806.904	28314
807.046	28512
807.188	28379
807.33	28303
807.472	28596
807.614	28424
807.756	28352
807.898	28109
808.04	28131
808.182	28249
808.324	28344
808.465	28386
808.607	28478
808.749	28584
808.891	28641
809.033	28752
809.174	28580
809.316	28706
809.458	28748
809.6	28531
809.741	28953
809.883	28691
810.025	29014
810.166	28980
810.308	28976
810.45	28900
810.591	28797
810.733	28645
810.875	28809
811.016	28725
811.158	28466
811.299	28759
811.441	28729
811.582	28831
811.724	28565
811.865	28630
812.007	28618
812.148	28790
812.29	28675
812.431	28847
812.573	29071
812.714	29014
812.855	29140
812.997	29337
813.138	29341
813.279	29159
813.421	29204
813.562	29159
813.703	28976
813.845	28885
813.986	28748
814.127	28512
814.268	28386
814.41	28405
814.551	28405
814.692	28352
814.833	28215
814.974	28291
815.115	28375
815.256	28139
815.397	28185
815.539	28204
815.68	28200
815.821	28135
815.962	28200
816.103	28215
816.244	27922
816.385	27907
816.526	27895
816.666	27701
816.807	27701
816.948	27732
817.089	27736
817.23	27606
817.371	27633
817.512	27622
817.653	27637
817.793	27633
817.934	27614
818.075	27641
818.216	27705
818.356	27622
818.497	27485
818.638	27488
818.778	27260
818.919	27424
819.06	27485
819.2	27538
819.341	27690
819.481	27622
819.622	27846
819.762	28101
819.903	27960
820.043	27922
820.184	27755
820.324	27827
820.465	27941
820.605	27720
820.746	27671
820.886	27618
821.026	27732
821.167	27827
821.307	27698
821.447	27774
821.588	27618
821.728	27447
821.868	27287
822.008	27081
822.149	27089
822.289	27112
822.429	26823
822.569	26796
822.709	26777
822.849	26781
822.99	26598
823.13	26606
823.27	26613
823.41	26503
823.55	26434
823.69	26575
823.83	26381
823.97	26495
824.11	26286
824.25	26244
824.389	26336
824.529	26377
824.669	26385
824.809	26370
824.949	26385
825.089	26305
825.228	26336
825.368	26183
825.508	26263
825.648	26202
825.787	26157
825.927	26229
826.067	26065
826.206	26256
826.346	26180
826.485	26267
826.625	26172
826.765	26218
826.904	26195
827.044	26012
827.183	25944
827.323	25849
827.462	25955
827.601	25871
827.741	25921
827.88	25856
828.02	25715
828.159	25620
828.298	25898
828.437	25986
828.577	25833
828.716	26054
828.855	25734
828.994	25483
829.134	25666
829.273	25666
829.412	25518
829.551	25476
829.69	25468
829.829	25510
829.968	25594
830.107	25632
830.246	25696
830.385	25445
830.524	25327
830.663	25396
830.802	25304
830.941	25091
831.08	25225
831.219	25206
831.357	25304
831.496	25335
831.635	25160
831.774	25004
831.913	25072
832.051	24954
832.19	24981
832.329	25042
832.467	24833
832.606	24749
832.744	24867
832.883	24871
833.022	24897
833.16	24787
833.299	24924
833.437	25012
833.576	24962
833.714	24878
833.852	25012
833.991	25015
834.129	25027
834.267	24913
834.406	24920
834.544	24996
834.682	24966
834.821	24992
834.959	25088
835.097	25000
835.235	24916
835.373	24848
835.511	24916
835.65	24798
835.788	24817
835.926	24646
836.064	24578
836.202	24707
836.34	24764
836.478	24738
836.615	24555
836.753	24665
836.891	24825
837.029	24806
837.167	24631
837.305	24627
837.443	24601
837.58	24604
837.718	24604
837.856	24730
837.993	24684
838.131	24661
838.269	24376
838.406	24479
838.544	24429
838.681	24292
838.819	24152
838.956	24087
839.094	24098
839.231	24106
839.369	24235
839.506	24399
839.643	24285
839.781	24026
839.918	24030
840.055	23901
840.193	24091
840.33	24034
840.467	23954
840.604	23973
840.742	24266
840.879	23805
841.016	23745
841.153	23832
841.29	23912
841.427	23961
841.564	23942
841.701	23897
841.838	23988
841.975	23809
842.112	23988
842.249	23798
842.385	23737
842.522	23885
842.659	23745
842.796	23604
842.933	23619
843.069	23634
843.206	23760
843.343	23771
843.479	23790
843.616	23684
843.752	23482
843.889	23455
844.025	23649
844.162	23398
844.298	23528
844.435	23467
844.571	23337
844.708	23444
844.844	23672
844.98	23592
845.117	23501
845.253	23368
845.389	23330
845.525	23315
845.661	23292
845.798	23223
845.934	23265
846.07	23345
846.206	23265
846.342	23455
846.478	23174
846.614	22999
846.75	23006
846.886	22923
847.022	23003
847.158	22953
847.294	23044
847.429	23052
847.565	22942
847.701	23265
847.837	22812
847.972	22561
848.108	22706
848.244	22843
848.379	22516
848.515	22512
848.65	22733
848.786	22481
848.921	22588
849.057	22637
849.192	22694
849.328	22478
849.463	22645
849.598	22451
849.734	22436
849.869	22504
850.004	22322
850.14	22367
850.275	22306
850.41	22158
850.545	22238
850.68	22143
850.815	22402
850.95	22284
851.085	22508
851.22	22451
851.355	22200
851.49	22348
851.625	22219
851.76	22169
851.895	22181
852.03	22135
852.165	22295
852.299	22287
852.434	22352
852.569	22379
852.703	22246
852.838	22356
852.973	22333
853.107	22405
853.242	22253
853.376	22154
853.511	22010
853.645	22074
853.78	22386
853.914	22253
854.048	22120
854.183	22154
854.317	22223
854.451	22371
854.585	22097
854.72	22143
854.854	22192
854.988	21972
855.122	22143
855.256	21918
855.39	22105
855.524	22074
855.658	22158
855.792	22025
855.926	22188
856.06	22211
856.194	22242
856.327	22036
856.461	22090
856.595	22101
856.729	22051
856.862	22173
856.996	22173
857.13	22173
857.263	22215
857.397	22337
857.53	22109
857.664	22230
857.797	22226
857.931	22207
858.064	22223
858.197	22276
858.331	22013
858.464	22010
858.597	21994
858.731	22128
858.864	22097
858.997	22032
859.13	22143
859.263	22097
859.396	22234
859.529	22105
859.662	22090
859.795	22086
859.928	22021
860.061	22211
860.194	22379
860.327	22272
860.46	22032
860.592	22219
860.725	22348
860.858	22284
860.99	22032
861.123	22040
861.256	21998
861.388	22192
861.521	22809
861.653	22025
861.786	21922
861.918	21941
862.05	21922
862.183	22013
862.315	22109
862.447	22120
862.58	22055
862.712	21861
862.844	21808
862.976	21838
863.108	21907
863.24	22192
863.372	21781
863.504	21903
863.636	21937
863.768	21922
863.9	21781
864.032	21701
864.164	21812
864.296	21857
864.428	21949
864.559	21907
864.691	21911
864.823	21899
864.954	21660
865.086	21759
865.217	21846
865.349	21652
865.48	21701
865.612	21717
865.743	21774
865.875	21732
866.006	21580
866.137	21789
866.269	21732
866.4	21778
866.531	21667
866.662	21759
866.793	21622
866.924	21568
867.055	21622
867.186	21671
867.317	21580
867.448	21698
867.579	21629
867.71	21530
867.841	21637
867.972	21648
868.103	21633
868.233	21561
868.364	21625
868.495	21766
868.625	21793
868.756	22025
868.886	21835
869.017	21850
869.147	21983
869.278	21960
869.408	21770
869.539	21797
869.669	21956
869.799	21918
869.929	21964
870.06	22044
870.19	22196
870.32	22249
870.45	22177
870.58	22253
870.71	22413
870.84	22341
870.97	22280
871.1	22306
871.23	22440
871.36	22561
871.489	22337
871.619	22462
871.749	22512
871.879	22523
872.008	22546
872.138	22527
872.267	22542
872.397	22318
872.526	22196
872.656	22280
872.785	22409
872.915	22577
873.044	22573
873.173	22512
873.303	22645
873.432	22584
873.561	22675
873.69	22565
873.819	22478
873.948	22645
874.077	22470
874.206	22573
874.335	22478
874.464	22634
874.593	22660
874.722	22622
874.851	22710
874.979	22816
875.108	22801
875.237	22660
875.365	22656
875.494	22645
875.623	22706
875.751	22630
875.88	22854
876.008	22889
876.136	22889
876.265	23151
876.393	23178
876.521	23102
876.65	23227
876.778	23071
876.906	23094
877.034	23098
877.162	22980
877.29	23140
877.418	23037
877.546	23132
877.674	23029
877.802	23159
877.93	23200
878.058	22980
878.185	22862
878.313	22949
878.441	22858
878.568	22949
878.696	22980
878.824	23128
878.951	23132
879.079	23307
879.206	23318
879.333	23250
879.461	23083
879.588	23204
879.715	23170
879.842	23387
879.97	23189
880.097	22911
880.224	22809
880.351	22934
880.478	22831
880.605	22877
880.732	22946
880.859	23109
880.986	22877
881.112	22812
881.239	22881
881.366	22656
881.493	22546
881.619	22314
881.746	22508
881.872	22516
881.999	22440
882.125	22390
882.252	22569
882.378	22516
882.505	22626
882.631	22360
882.757	22280
882.883	22261
883.01	22147
883.136	22105
883.262	21991
883.388	21983
883.514	22181
883.64	22188
883.766	22013
883.892	21823
884.018	21934
884.143	22051
884.269	22226
884.395	21854
884.52	21667
884.646	21785
884.772	21793
884.897	21534
885.023	21762
885.148	21922
885.274	21892
885.399	21983
885.524	21644
885.65	21854
885.775	21774
885.9	21793
886.025	21899
886.15	21876
886.275	21739
886.4	21682
886.525	21648
886.65	21755
886.775	21622
886.9	21911
887.025	21994
887.149	21713
887.274	21606
887.399	21576
887.523	21561
887.648	21519
887.773	21401
887.897	21599
888.021	21568
888.146	21485
888.27	21583
888.395	21477
888.519	21595
888.643	21496
888.767	21591
888.891	21523
889.015	21374
889.139	21428
889.263	21336
889.387	21515
889.511	21545
889.635	21477
889.759	21272
889.883	21348
890.006	21321
890.13	21416
890.254	21150
890.377	21218
890.501	21058
890.624	21036
890.748	21161
890.871	20952
890.995	20887
891.118	20895
891.241	20864
891.364	20914
891.488	21020
891.611	20937
891.734	20800
891.857	20929
891.98	21020
892.103	20849
892.226	20975
892.349	20864
892.471	20743
892.594	20777
892.717	20765
892.839	20815
892.962	20849
893.085	20819
893.207	20697
893.33	20716
893.452	20804
893.575	20891
893.697	20731
893.819	20956
893.941	21009
894.064	20891
894.186	20777
894.308	20659
894.43	20838
894.552	21009
894.674	20876
894.796	20594
894.918	20781
895.04	20724
895.161	20727
895.283	20937
895.405	20724
895.526	20781
895.648	20735
895.769	20678
895.891	20750
896.012	20819
896.134	20868
896.255	20716
896.376	20686
896.498	20731
896.619	20758
896.74	20746
896.861	20868
896.982	21123
897.103	21173
897.224	20933
897.345	21028
897.466	20838
897.587	21001
897.708	21116
897.828	21024
897.949	20956
898.07	20887
898.19	20910
898.311	21043
898.431	20781
898.552	20937
898.672	21001
898.792	21036
898.913	21066
899.033	20906
899.153	20762
899.273	20648
899.393	20689
899.513	20804
899.633	20686
899.753	20765
899.873	20663
899.993	20785
900.113	20674
900.232	20568
900.352	20682
900.472	20537
900.591	20511
900.711	20564
900.83	20434
900.95	20587
901.069	20571
901.189	20400
901.308	20183
901.427	20073
901.546	19989
901.665	20035
901.784	20024
901.904	19944
902.023	19738
902.141	19639
902.26	19575
902.379	19757
902.498	19556
902.617	19544
902.735	19529
902.854	19548
902.973	19460
903.091	19335
903.21	19221
903.328	19236
903.446	19072
903.565	19042
903.683	19107
903.801	18901
903.919	18909
904.038	18954
904.156	18852
904.274	18798
904.392	18760
904.51	18749
904.627	18669
904.745	18859
904.863	18829
904.981	18620
905.098	18540
905.216	18433
905.334	18502
905.451	18483
905.569	18433
905.686	18483
905.803	18486
905.921	18209
906.038	18350
906.155	18232
906.272	18186
906.389	18167
906.506	17954
906.623	18026
906.74	17939
906.857	17992
906.974	17916
907.091	18095
907.208	18114
907.324	18026
907.441	17843
907.557	17726
907.674	17729
907.79	17573
907.907	17657
908.023	17634
908.139	17627
908.256	17687
908.372	17539
908.488	17570
908.604	17463
908.72	17406
908.836	17490
908.952	17410
909.068	17436
909.184	17452
909.3	17311
909.415	17402
909.531	17414
909.647	17105
909.762	17075
909.878	17094
909.993	17079
910.108	17052
910.224	17022
910.339	17041
910.454	17018
910.57	16908
910.685	16980
910.8	17242
910.915	17014
911.03	16881
911.145	16713
911.259	16736
911.374	16694
911.489	16584
911.604	16478
911.718	16421
911.833	16459
911.947	16322
912.062	16280
912.176	16417
912.291	16440
912.405	16512
912.519	16645
912.633	16618
912.748	16466
912.862	16447
912.976	16280
913.09	16116
913.204	16329
913.318	16196
913.431	16386
913.545	16352
913.659	16306
913.772	16303
913.886	16101
914	16021
914.113	16131
914.226	16166
914.34	16169
914.453	16025
914.566	16078
914.68	15895
914.793	15895
914.906	15648
915.019	15667
915.132	15633
915.245	15614
915.358	15614
915.47	15587
915.583	15682
915.696	15618
915.809	15747
915.921	15732
916.034	15572
916.146	15523
916.259	15580
916.371	15557
916.483	15526
916.595	15393
916.708	15439
916.82	15447
916.932	15466
917.044	15477
917.156	15405
917.268	15363
917.38	15321
917.491	15291
917.603	15306
917.715	15355
917.826	15435
917.938	15203
918.049	15085
918.161	15192
918.272	15294
918.384	15294
918.495	15180
918.606	15032
918.717	15009
918.828	15123
918.939	15036
919.05	14921
919.161	14956
919.272	14781
919.383	14781
919.494	15028
919.604	15154
919.715	14998
919.826	14925
919.936	14982
920.047	15093
920.157	14944
920.267	15127
920.378	14956
920.488	14887
920.598	15180
920.708	15256
920.818	15135
920.928	15043
921.038	15233
921.148	15146
921.258	14925
921.368	14788
921.477	14765
921.587	14731
921.697	14511
921.806	14739
921.916	14617
922.025	14446
922.134	14377
922.244	14248
922.353	14423
922.462	14210
922.571	14100
922.68	14111
922.789	13951
922.898	13982
923.007	13890
923.116	13970
923.224	13967
923.333	13906
923.442	13875
923.55	13734
923.659	13784
923.767	13837
923.876	13788
923.984	13833
924.092	13609
924.201	13715
924.309	13723
924.417	13704
924.525	13624
924.633	13586
924.741	14347
924.849	13502
924.956	13571
925.064	13441
925.172	13343
925.279	13411
925.387	13343
925.494	13331
925.602	13514
925.709	13346
925.816	13263
925.924	13316
926.031	13384
926.138	13343
926.245	13396
926.352	13320
926.459	13312
926.566	13369
926.673	13179
926.779	13088
926.886	13072
926.993	12962
927.099	13023
927.206	12924
927.312	12905
927.419	13053
927.525	12935
927.631	12958
927.737	12791
927.843	12772
927.95	12608
928.056	12650
928.162	12642
928.267	12749
928.373	13365
928.479	12867
928.585	12582
928.69	12681
928.796	12772
928.901	12627
929.007	12490
929.112	12559
929.218	12521
929.323	12460
929.428	12410
929.533	12559
929.638	12422
929.743	12429
929.848	12456
929.953	12452
930.058	12350
930.163	12175
930.267	12117
930.372	12334
930.477	12098
930.581	12270
930.685	12125
930.79	12026
930.894	12003
930.998	11992
931.103	12057
931.207	11741
931.311	11699
931.415	11551
931.519	11429
931.623	11318
