Data from test_V78500241_2058.txt Node
Date: Fri Mar 25 15:56:03 CST 2022
User: usil
Spectrometer: V785-0024
Trigger mode: 0
Integration Time (sec): 4.000000E-1
Scans to average: 1
Nonlinearity correction enabled: false
Boxcar width: 0
Storing dark spectrum: false
XAxis mode: Wavelengths
Number of Pixels in Spectrum: 1024
>>>>>Begin Spectral Data<<<<<
801.071	28801
801.214	28675
801.356	28478
801.499	28504
801.641	28310
801.783	28394
801.926	28451
802.068	28386
802.211	28341
802.353	28280
802.496	28051
802.638	28105
802.78	28021
802.923	27972
803.065	27991
803.208	28048
803.35	28166
803.492	28268
803.635	28390
803.777	28116
803.919	28188
804.061	28717
804.204	28310
804.346	28215
804.488	28135
804.63	28371
804.773	28265
804.915	28295
805.057	28516
805.199	28291
805.341	28455
805.483	28577
805.626	28447
805.768	28432
805.91	28432
806.052	28561
806.194	28405
806.336	28675
806.478	28500
806.62	28432
806.762	28577
806.904	28698
807.046	29090
807.188	28885
807.33	28938
807.472	28938
807.614	28984
807.756	29029
807.898	28831
808.04	28786
808.182	28615
808.324	28660
808.465	28938
808.607	28911
808.749	29197
808.891	29227
809.033	29318
809.174	29159
809.316	29121
809.458	29212
809.6	29178
809.741	29254
809.883	29334
810.025	29417
810.166	29417
810.308	29417
810.45	29455
810.591	29265
810.733	29322
810.875	29178
811.016	29105
811.158	29064
811.299	29292
811.441	29353
811.582	29269
811.724	29250
811.865	29318
812.007	29246
812.148	29132
812.29	29273
812.431	29273
812.573	29501
812.714	29691
812.855	29695
812.997	29859
813.138	29912
813.279	29832
813.421	29798
813.562	29619
813.703	29490
813.845	29459
813.986	29159
814.127	28930
814.268	28717
814.41	28820
814.551	28949
814.692	29006
814.833	28850
814.974	28881
815.115	28828
815.256	28744
815.397	28790
815.539	28717
815.68	28854
815.821	28683
815.962	28679
816.103	28710
816.244	28656
816.385	28557
816.526	28405
816.666	28306
816.807	28219
816.948	28272
817.089	28314
817.23	28169
817.371	28272
817.512	28078
817.653	28173
817.793	28093
817.934	28173
818.075	28181
818.216	28192
818.356	28223
818.497	28116
818.638	27949
818.778	28116
818.919	27846
819.06	28006
819.2	28093
819.341	28185
819.481	28268
819.622	28455
819.762	28531
819.903	28573
820.043	28451
820.184	28284
820.324	28158
820.465	28417
820.605	28440
820.746	28363
820.886	28029
821.026	28341
821.167	28268
821.307	28363
821.447	28291
821.588	28185
821.728	27892
821.868	27854
822.008	27903
822.149	27800
822.289	27656
822.429	27378
822.569	27435
822.709	27363
822.849	27336
822.99	27192
823.13	27203
823.27	27085
823.41	27036
823.55	27058
823.69	27013
823.83	27020
823.97	26902
824.11	26914
824.25	26746
824.389	26826
824.529	26998
824.669	26792
824.809	26819
824.949	26948
825.089	27024
825.228	26849
825.368	26697
825.508	26579
825.648	26765
825.787	26785
825.927	26758
826.067	26883
826.206	26845
826.346	26807
826.485	26655
826.625	26762
826.765	26883
826.904	26678
827.044	26518
827.183	26511
827.323	26396
827.462	26499
827.601	26568
827.741	26366
827.88	26503
828.02	26271
828.159	26488
828.298	26389
828.437	26431
828.577	26374
828.716	26537
828.855	26320
828.994	26069
829.134	26111
829.273	26134
829.412	26225
829.551	26107
829.69	26058
829.829	26130
829.968	26286
830.107	26240
830.246	26100
830.385	26164
830.524	26065
830.663	25906
830.802	25852
830.941	25681
831.08	25712
831.219	25738
831.357	25887
831.496	26050
831.635	25712
831.774	25651
831.913	25662
832.051	25506
832.19	25708
832.329	25441
832.467	25392
832.606	25320
832.744	25487
832.883	25331
833.022	25514
833.16	25430
833.299	25419
833.437	25453
833.576	25453
833.714	25445
833.852	25563
833.991	25499
834.129	25514
834.267	25354
834.406	25548
834.544	25384
834.682	25441
834.821	25521
834.959	25502
835.097	25453
835.235	25548
835.373	25499
835.511	25350
835.65	25320
835.788	25312
835.926	25209
836.064	25076
836.202	25194
836.34	25236
836.478	25559
836.615	25190
836.753	25354
836.891	25369
837.029	25308
837.167	25236
837.305	25247
837.443	25129
837.58	25183
837.718	25148
837.856	25076
837.993	25008
838.131	25084
838.269	25000
838.406	25023
838.544	24871
838.681	24795
838.819	24650
838.956	24608
839.094	24593
839.231	24646
839.369	24802
839.506	24954
839.643	24829
839.781	24578
839.918	24536
840.055	24467
840.193	24490
840.33	24395
840.467	24475
840.604	24559
840.742	24760
840.879	24418
841.016	24399
841.153	24342
841.29	24585
841.427	24460
841.564	24544
841.701	24456
841.838	24407
841.975	24452
842.112	24445
842.249	24243
842.385	24178
842.522	24388
842.659	24235
842.796	24205
842.933	24289
843.069	24163
843.206	24277
843.343	24304
843.479	24186
843.616	24163
843.752	24026
843.889	24106
844.025	24133
844.162	24095
844.298	24072
844.435	24076
844.571	24007
844.708	24140
844.844	24171
844.98	24015
845.117	24095
845.253	23999
845.389	23927
845.525	23931
845.661	23935
845.798	23764
845.934	23824
846.07	23805
846.206	23794
846.342	23973
846.478	23710
846.614	23474
846.75	23592
846.886	23520
847.022	23474
847.158	23421
847.294	23395
847.429	23520
847.565	23471
847.701	23863
847.837	23246
847.972	23265
848.108	23277
848.244	23239
848.379	23159
848.515	23105
848.65	23105
848.786	23124
848.921	23090
849.057	23258
849.192	23113
849.328	23029
849.463	23181
849.598	22972
849.734	22930
849.869	22942
850.004	22885
850.14	22885
850.275	22831
850.41	22877
850.545	22824
850.68	22752
850.815	22805
850.95	22858
851.085	23064
851.22	22976
851.355	22900
851.49	22866
851.625	22767
851.76	22805
851.895	22839
852.03	22778
852.165	22980
852.299	22850
852.434	22915
852.569	22869
852.703	22854
852.838	22938
852.973	22942
853.107	22930
853.242	22763
853.376	22603
853.511	22622
853.645	22664
853.78	22717
853.914	22687
854.048	22542
854.183	22573
854.317	22790
854.451	22778
854.585	22721
854.72	22683
854.854	22820
854.988	22557
855.122	22637
855.256	22455
855.39	22634
855.524	22740
855.658	22790
855.792	22748
855.926	22721
856.06	22691
856.194	22634
856.327	22626
856.461	22542
856.595	22649
856.729	22702
856.862	22801
856.996	22694
857.13	22706
857.263	22805
857.397	22759
857.53	22622
857.664	22645
857.797	22713
857.931	22702
858.064	22755
858.197	22729
858.331	22641
858.464	22535
858.597	22569
858.731	22573
858.864	22611
858.997	22656
859.13	22675
859.263	22596
859.396	22683
859.529	22588
859.662	22660
859.795	22645
859.928	22752
860.061	22835
860.194	22915
860.327	22736
860.46	22691
860.592	22847
860.725	22786
860.858	22824
860.99	22653
861.123	22611
861.256	22611
861.388	22561
861.521	23303
861.653	22455
861.786	22348
861.918	22535
862.05	22443
862.183	22630
862.315	22565
862.447	22618
862.58	22580
862.712	22333
862.844	22337
862.976	22424
863.108	22523
863.24	22835
863.372	22363
863.504	22398
863.636	22280
863.768	22436
863.9	22398
864.032	22325
864.164	22272
864.296	22367
864.428	22459
864.559	22459
864.691	22386
864.823	22268
864.954	22291
865.086	22341
865.217	22268
865.349	22147
865.48	22276
865.612	22219
865.743	22485
865.875	22325
866.006	22169
866.137	22238
866.269	22322
866.4	22242
866.531	22143
866.662	22082
866.793	22204
866.924	22185
867.055	22215
867.186	22200
867.317	22169
867.448	22147
867.579	22158
867.71	22048
867.841	22067
867.972	22173
868.103	22196
868.233	22154
868.364	22169
868.495	22265
868.625	22352
868.756	22500
868.886	22382
869.017	22440
869.147	22474
869.278	22470
869.408	22382
869.539	22371
869.669	22352
869.799	22470
869.929	22462
870.06	22626
870.19	22729
870.32	22634
870.45	22710
870.58	22733
870.71	22953
870.84	22881
870.97	22790
871.1	22797
871.23	22889
871.36	22839
871.489	22881
871.619	22889
871.749	23121
871.879	23090
872.008	22987
872.138	22938
872.267	22999
872.397	22805
872.526	22824
872.656	22869
872.785	22809
872.915	22965
873.044	23037
873.173	23025
873.303	23147
873.432	23006
873.561	23086
873.69	22942
873.819	23060
873.948	23071
874.077	23006
874.206	22987
874.335	23033
874.464	23132
874.593	23140
874.722	23159
874.851	23162
874.979	23181
875.108	23269
875.237	23117
875.365	23048
875.494	23071
875.623	23254
875.751	23239
875.88	23326
876.008	23311
876.136	23478
876.265	23482
876.393	23722
876.521	23695
876.65	23726
876.778	23695
876.906	23581
877.034	23528
877.162	23649
877.29	23482
877.418	23592
877.546	23436
877.674	23440
877.802	23554
877.93	23478
878.058	23436
878.185	23452
878.313	23440
878.441	23547
878.568	23307
878.696	23471
878.824	23543
878.951	23699
879.079	23695
879.206	23794
879.333	23752
879.461	23646
879.588	23687
879.715	23741
879.842	23817
879.97	23581
880.097	23376
880.224	23288
880.351	23490
880.478	23315
880.605	23170
880.732	23436
880.859	23558
880.986	23372
881.112	23356
881.239	23277
881.366	23102
881.493	23041
881.619	22980
881.746	22968
881.872	22904
881.999	22801
882.125	22759
882.252	23044
882.378	22930
882.505	23025
882.631	22694
882.757	22592
882.883	22706
883.01	22542
883.136	22626
883.262	22538
883.388	22474
883.514	22637
883.64	22637
883.766	22557
883.892	22276
884.018	22432
884.143	22409
884.269	22592
884.395	22314
884.52	22223
884.646	22238
884.772	22188
884.897	22162
885.023	22306
885.148	22306
885.274	22348
885.399	22333
885.524	22276
885.65	22265
885.775	22166
885.9	22185
886.025	22390
886.15	22211
886.275	22169
886.4	22177
886.525	22173
886.65	22131
886.775	22181
886.9	22131
887.025	22504
887.149	22257
887.274	22055
887.399	21991
887.523	21960
887.648	21922
887.773	21895
887.897	22101
888.021	22036
888.146	21937
888.27	22116
888.395	22112
888.519	22017
888.643	21975
888.767	22112
888.891	21831
889.015	21766
889.139	21816
889.263	21641
889.387	21846
889.511	21903
889.635	21747
889.759	21736
889.883	21766
890.006	21804
890.13	21918
890.254	21667
890.377	21812
890.501	21500
890.624	21564
890.748	21526
890.871	21393
890.995	21272
891.118	21245
891.241	21389
891.364	21279
891.488	21481
891.611	21332
891.734	21321
891.857	21473
891.98	21329
892.103	21382
892.226	21344
892.349	21245
892.471	21184
892.594	21184
892.717	21252
892.839	21218
892.962	21230
893.085	21207
893.207	21218
893.33	21093
893.452	21100
893.575	21222
893.697	21226
893.819	21310
893.941	21405
894.064	21272
894.186	21089
894.308	21085
894.43	21230
894.552	21260
894.674	21256
894.796	21104
894.918	21157
895.04	21116
895.161	21241
895.283	21195
895.405	21161
895.526	21096
895.648	21226
895.769	21241
895.891	21302
896.012	21268
896.134	21207
896.255	21161
896.376	21207
896.498	21195
896.619	21184
896.74	21123
896.861	21279
896.982	21564
897.103	21679
897.224	21481
897.345	21439
897.466	21397
897.587	21389
897.708	21587
897.828	21420
897.949	21310
898.07	21298
898.19	21283
898.311	21355
898.431	21401
898.552	21306
898.672	21450
898.792	21367
898.913	21397
899.033	21268
899.153	21214
899.273	21036
899.393	21169
899.513	21119
899.633	21150
899.753	21024
899.873	21085
899.993	21081
900.113	21142
900.232	21066
900.352	21066
900.472	20895
900.591	20765
900.711	20876
900.83	20823
900.95	20887
901.069	20986
901.189	20739
901.308	20511
901.427	20427
901.546	20381
901.665	20423
901.784	20473
901.904	20301
902.023	20206
902.141	20103
902.26	20027
902.379	20020
902.498	19917
902.617	19784
902.735	19967
902.854	19894
902.973	19959
903.091	19548
903.21	19441
903.328	19590
903.446	19438
903.565	19457
903.683	19343
903.801	19335
903.919	19312
904.038	19373
904.156	19251
904.274	19316
904.392	19225
904.51	19122
904.627	19019
904.745	19206
904.863	19232
904.981	18962
905.098	18852
905.216	18696
905.334	18890
905.451	18916
905.569	18875
905.686	18821
905.803	18791
905.921	18494
906.038	18715
906.155	18738
906.272	18559
906.389	18467
906.506	18418
906.623	18323
906.74	18270
906.857	18285
906.974	18167
907.091	18410
907.208	18422
907.324	18376
907.441	18232
907.557	18121
907.674	18076
907.79	17927
907.907	17973
908.023	18136
908.139	18041
908.256	18003
908.372	17916
908.488	17954
908.604	17863
908.72	17771
908.836	17752
908.952	17668
909.068	17752
909.184	17901
909.3	17855
909.415	17805
909.531	17707
909.647	17417
909.762	17509
909.878	17463
909.993	17482
910.108	17296
910.224	17421
910.339	17501
910.454	17307
910.57	17258
910.685	17162
910.8	17463
910.915	17493
911.03	17254
911.145	17166
911.259	17079
911.374	17052
911.489	16957
911.604	16843
911.718	16748
911.833	16831
911.947	16702
912.062	16634
912.176	16831
912.291	16759
912.405	16759
912.519	16957
912.633	16987
912.748	16744
912.862	16656
912.976	16637
913.09	16405
913.204	16538
913.318	16634
913.431	16645
913.545	16603
913.659	16702
913.772	16561
913.886	16394
914	16352
914.113	16497
914.226	16440
914.34	16497
914.453	16348
914.566	16481
914.68	16348
914.793	16299
914.906	16059
915.019	15953
915.132	16002
915.245	15968
915.358	16036
915.47	16055
915.583	15979
915.696	15953
915.809	16036
915.921	16021
916.034	15964
916.146	15835
916.259	15759
916.371	15888
916.483	15880
916.595	15831
916.708	15793
916.82	15785
916.932	15819
917.044	15671
917.156	15694
917.268	15660
917.38	15675
917.491	15450
917.603	15561
917.715	15625
917.826	15603
917.938	15519
918.049	15382
918.161	15637
918.272	15633
918.384	15576
918.495	15530
918.606	15401
918.717	15351
918.828	15317
918.939	15382
919.05	15245
919.161	15325
919.272	15169
919.383	15131
919.494	15351
919.604	15561
919.715	15336
919.826	15146
919.936	15260
920.047	15332
920.157	15268
920.267	15454
920.378	15279
920.488	15131
920.598	15534
920.708	15682
920.818	15447
920.928	15428
921.038	15572
921.148	15420
921.258	15233
921.368	15112
921.477	15119
921.587	14982
921.697	14872
921.806	15043
921.916	14826
922.025	14807
922.134	14735
922.244	14724
922.353	14785
922.462	14530
922.571	14530
922.68	14377
922.789	14347
922.898	14294
923.007	14210
923.116	14381
923.224	14355
923.333	14263
923.442	14157
923.55	14096
923.659	14084
923.767	14267
923.876	14092
923.984	14103
924.092	13993
924.201	14100
924.309	14027
924.417	14001
924.525	13974
924.633	13947
924.741	14845
924.849	13734
924.956	13940
925.064	13613
925.172	13609
925.279	13628
925.387	13696
925.494	13712
925.602	13772
925.709	13700
925.816	13594
925.924	13559
926.031	13597
926.138	13480
926.245	13731
926.352	13556
926.459	13563
926.566	13613
926.673	13525
926.779	13346
926.886	13426
926.993	13301
927.099	13171
927.206	13244
927.312	13225
927.419	13168
927.525	13175
927.631	13266
927.737	13046
927.843	13129
927.95	12901
928.056	13012
928.162	12996
928.267	13023
928.373	13693
928.479	13183
928.585	12810
928.69	12894
928.796	12932
928.901	12840
929.007	12726
929.112	12848
929.218	12749
929.323	12745
929.428	12681
929.533	12814
929.638	12646
929.743	12635
929.848	12620
929.953	12658
930.058	12578
930.163	12357
930.267	12395
930.372	12544
930.477	12414
930.581	12612
930.685	12475
930.79	12224
930.894	12247
930.998	12235
931.103	12369
931.207	11992
931.311	11878
931.415	11817
931.519	11634
931.623	11570
