Data from test_V78500241_1754.txt Node
Date: Fri Mar 25 15:53:57 CST 2022
User: usil
Spectrometer: V785-0024
Trigger mode: 0
Integration Time (sec): 4.000000E-1
Scans to average: 1
Nonlinearity correction enabled: false
Boxcar width: 0
Storing dark spectrum: false
XAxis mode: Wavelengths
Number of Pixels in Spectrum: 1024
>>>>>Begin Spectral Data<<<<<
801.071	28691
801.214	28573
801.356	28360
801.499	28379
801.641	28287
801.783	28325
801.926	28363
802.068	28219
802.211	28169
802.353	28253
802.496	27941
802.638	27835
802.78	28025
802.923	27880
803.065	27869
803.208	27892
803.35	27983
803.492	28287
803.635	28261
803.777	28032
803.919	28128
804.061	28516
804.204	28276
804.346	28101
804.488	28185
804.63	28219
804.773	28234
804.915	28375
805.057	28428
805.199	28162
805.341	28314
805.483	28424
805.626	28363
805.768	28188
805.91	28451
806.052	28314
806.194	28268
806.336	28607
806.478	28474
806.62	28299
806.762	28573
806.904	28664
807.046	28915
807.188	28752
807.33	28888
807.472	28809
807.614	28839
807.756	28801
807.898	28687
808.04	28717
808.182	28622
808.324	28554
808.465	28740
808.607	28881
808.749	28946
808.891	29105
809.033	29124
809.174	29159
809.316	29064
809.458	28995
809.6	28999
809.741	29231
809.883	29166
810.025	29383
810.166	29250
810.308	29375
810.45	29212
810.591	29364
810.733	29064
810.875	29052
811.016	29037
811.158	28866
811.299	29140
811.441	29208
811.582	29136
811.724	29189
811.865	29029
812.007	29117
812.148	28995
812.29	29064
812.431	29299
812.573	29334
812.714	29604
812.855	29452
812.997	29524
813.138	29748
813.279	29764
813.421	29680
813.562	29471
813.703	29395
813.845	29391
813.986	28957
814.127	28653
814.268	28839
814.41	28767
814.551	28809
814.692	28740
814.833	28847
814.974	28805
815.115	28763
815.256	28626
815.397	28641
815.539	28687
815.68	28664
815.821	28660
815.962	28489
816.103	28599
816.244	28462
816.385	28440
816.526	28462
816.666	28390
816.807	28051
816.948	28200
817.089	28185
817.23	28090
817.371	27911
817.512	27857
817.653	28185
817.793	27975
817.934	28086
818.075	28006
818.216	28048
818.356	27998
818.497	27914
818.638	27838
818.778	27846
818.919	27869
819.06	27899
819.2	27987
819.341	28010
819.481	28112
819.622	28150
819.762	28352
819.903	28413
820.043	28223
820.184	28325
820.324	28238
820.465	28185
820.605	28219
820.746	28055
820.886	28105
821.026	28230
821.167	28093
821.307	28246
821.447	28078
821.588	28135
821.728	27914
821.868	27739
822.008	27606
822.149	27637
822.289	27614
822.429	27291
822.569	27298
822.709	27214
822.849	27074
822.99	27085
823.13	27131
823.27	26975
823.41	26834
823.55	26773
823.69	26842
823.83	26815
823.97	26804
824.11	26785
824.25	26537
824.389	26693
824.529	26754
824.669	26853
824.809	26769
824.949	26910
825.089	26929
825.228	26701
825.368	26625
825.508	26537
825.648	26625
825.787	26708
825.927	26651
826.067	26594
826.206	26716
826.346	26640
826.485	26716
826.625	26568
826.765	26667
826.904	26712
827.044	26412
827.183	26324
827.323	26450
827.462	26381
827.601	26423
827.741	26408
827.88	26385
828.02	26275
828.159	26309
828.298	26339
828.437	26476
828.577	26259
828.716	26431
828.855	26259
828.994	26012
829.134	26054
829.273	26100
829.412	25864
829.551	25856
829.69	25982
829.829	26012
829.968	26008
830.107	26031
830.246	26039
830.385	25947
830.524	25807
830.663	25757
830.802	25719
830.941	25575
831.08	25514
831.219	25727
831.357	25772
831.496	25807
831.635	25696
831.774	25533
831.913	25525
832.051	25426
832.19	25426
832.329	25449
832.467	25312
832.606	25228
832.744	25312
832.883	25285
833.022	25122
833.16	25327
833.299	25369
833.437	25198
833.576	25274
833.714	25407
833.852	25297
833.991	25415
834.129	25225
834.267	25476
834.406	25282
834.544	25312
834.682	25369
834.821	25247
834.959	25472
835.097	25263
835.235	25266
835.373	25373
835.511	25430
835.65	25171
835.788	25335
835.926	25160
836.064	24947
836.202	25023
836.34	25129
836.478	25247
836.615	25076
836.753	25145
836.891	25183
837.029	25141
837.167	25076
837.305	25050
837.443	25038
837.58	24962
837.718	25050
837.856	25050
837.993	24951
838.131	25103
838.269	24958
838.406	24916
838.544	24783
838.681	24654
838.819	24620
838.956	24399
839.094	24422
839.231	24456
839.369	24525
839.506	24897
839.643	24642
839.781	24502
839.918	24410
840.055	24433
840.193	24391
840.33	24448
840.467	24365
840.604	24388
840.742	24726
840.879	24311
841.016	24239
841.153	24266
841.29	24429
841.427	24505
841.564	24441
841.701	24327
841.838	24311
841.975	24300
842.112	24273
842.249	24194
842.385	24178
842.522	24235
842.659	24102
842.796	24053
842.933	24076
843.069	24018
843.206	24034
843.343	24140
843.479	24133
843.616	24076
843.752	23996
843.889	23980
844.025	24018
844.162	23779
844.298	23977
844.435	23950
844.571	23954
844.708	23961
844.844	24003
844.98	23950
845.117	23992
845.253	23790
845.389	23764
845.525	23775
845.661	23623
845.798	23665
845.934	23737
846.07	23421
846.206	23509
846.342	23707
846.478	23570
846.614	23444
846.75	23200
846.886	23296
847.022	23364
847.158	23391
847.294	23315
847.429	23395
847.565	23391
847.701	23520
847.837	23178
847.972	23064
848.108	23147
848.244	23109
848.379	23025
848.515	23128
848.65	22968
848.786	23010
848.921	22980
849.057	22984
849.192	22976
849.328	22930
849.463	22900
849.598	22854
849.734	22831
849.869	22809
850.004	22752
850.14	22637
850.275	22675
850.41	22603
850.545	22630
850.68	22580
850.815	22816
850.95	22660
851.085	22767
851.22	22702
851.355	22713
851.49	22687
851.625	22637
851.76	22721
851.895	22656
852.03	22721
852.165	22649
852.299	22687
852.434	22778
852.569	22645
852.703	22733
852.838	22759
852.973	22831
853.107	22839
853.242	22713
853.376	22546
853.511	22424
853.645	22417
853.78	22531
853.914	22489
854.048	22470
854.183	22504
854.317	22451
854.451	22615
854.585	22497
854.72	22565
854.854	22675
854.988	22363
855.122	22615
855.256	22440
855.39	22527
855.524	22577
855.658	22588
855.792	22561
855.926	22523
856.06	22432
856.194	22504
856.327	22523
856.461	22535
856.595	22508
856.729	22443
856.862	22436
856.996	22481
857.13	22630
857.263	22569
857.397	22573
857.53	22466
857.664	22717
857.797	22512
857.931	22641
858.064	22588
858.197	22550
858.331	22497
858.464	22462
858.597	22413
858.731	22367
858.864	22440
858.997	22493
859.13	22421
859.263	22535
859.396	22557
859.529	22504
859.662	22569
859.795	22436
859.928	22470
860.061	22603
860.194	22634
860.327	22611
860.46	22508
860.592	22527
860.725	22713
860.858	22516
860.99	22382
861.123	22474
861.256	22405
861.388	22337
861.521	23254
861.653	22405
861.786	22325
861.918	22310
862.05	22363
862.183	22402
862.315	22398
862.447	22516
862.58	22466
862.712	22200
862.844	22181
862.976	22268
863.108	22291
863.24	22649
863.372	22109
863.504	22109
863.636	22192
863.768	22265
863.9	22139
864.032	22166
864.164	22207
864.296	22219
864.428	22272
864.559	22325
864.691	22261
864.823	22147
864.954	22261
865.086	22139
865.217	22112
865.349	22059
865.48	22116
865.612	22074
865.743	22166
865.875	22101
866.006	21968
866.137	22109
866.269	22086
866.4	21998
866.531	21987
866.662	21991
866.793	21983
866.924	21945
867.055	22055
867.186	21991
867.317	21994
867.448	21945
867.579	22040
867.71	21998
867.841	21816
867.972	22044
868.103	22078
868.233	21987
868.364	21972
868.495	21934
868.625	22234
868.756	22295
868.886	22169
869.017	22337
869.147	22325
869.278	22310
869.408	22379
869.539	22287
869.669	22382
869.799	22325
869.929	22417
870.06	22306
870.19	22584
870.32	22470
870.45	22596
870.58	22615
870.71	22656
870.84	22733
870.97	22656
871.1	22717
871.23	22778
871.36	22919
871.489	22744
871.619	22767
871.749	22862
871.879	22858
872.008	22923
872.138	22904
872.267	22778
872.397	22847
872.526	22626
872.656	22622
872.785	22805
872.915	22816
873.044	22828
873.173	22889
873.303	22908
873.432	22938
873.561	22995
873.69	22812
873.819	22999
873.948	23003
874.077	22896
874.206	22835
874.335	22869
874.464	22976
874.593	23010
874.722	23159
874.851	23105
874.979	23086
875.108	23193
875.237	23117
875.365	23044
875.494	22995
875.623	23117
875.751	23117
875.88	23090
876.008	23200
876.136	23250
876.265	23566
876.393	23600
876.521	23497
876.65	23482
876.778	23493
876.906	23433
877.034	23265
877.162	23398
877.29	23337
877.418	23448
877.546	23482
877.674	23471
877.802	23356
877.93	23395
878.058	23395
878.185	23242
878.313	23471
878.441	23436
878.568	23269
878.696	23429
878.824	23440
878.951	23547
879.079	23600
879.206	23729
879.333	23600
879.461	23364
879.588	23581
879.715	23646
879.842	23840
879.97	23482
880.097	23239
880.224	23216
880.351	23322
880.478	23261
880.605	23223
880.732	23280
880.859	23497
880.986	23166
881.112	23261
881.239	23094
881.366	23037
881.493	22946
881.619	22820
881.746	22820
881.872	22805
881.999	22828
882.125	22755
882.252	22908
882.378	22816
882.505	22892
882.631	22869
882.757	22599
882.883	22474
883.01	22500
883.136	22451
883.262	22329
883.388	22325
883.514	22440
883.64	22443
883.766	22402
883.892	22276
884.018	22322
884.143	22455
884.269	22405
884.395	22188
884.52	22116
884.646	21998
884.772	22078
884.897	21926
885.023	22063
885.148	22215
885.274	22303
885.399	22181
885.524	22059
885.65	22074
885.775	22093
885.9	22086
886.025	22158
886.15	22173
886.275	22124
886.4	22059
886.525	22128
886.65	22032
886.775	22017
886.9	22131
887.025	22166
887.149	21926
887.274	22040
887.399	21861
887.523	21846
887.648	21781
887.773	21907
887.897	21911
888.021	21972
888.146	21827
888.27	21930
888.395	22055
888.519	21861
888.643	21873
888.767	21835
888.891	21816
889.015	21736
889.139	21781
889.263	21656
889.387	21739
889.511	21831
889.635	21720
889.759	21671
889.883	21610
890.006	21694
890.13	21793
890.254	21591
890.377	21515
890.501	21367
890.624	21450
890.748	21496
890.871	21370
890.995	21241
891.118	21081
891.241	21119
891.364	21249
891.488	21374
891.611	21279
891.734	21195
891.857	21192
891.98	21138
892.103	21173
892.226	21165
892.349	21096
892.471	20982
892.594	21017
892.717	21100
892.839	21127
892.962	21142
893.085	21165
893.207	21009
893.33	21001
893.452	21013
893.575	21218
893.697	21131
893.819	21245
893.941	21252
894.064	21085
894.186	21146
894.308	21013
894.43	21226
894.552	21245
894.674	21074
894.796	21020
894.918	21005
895.04	21154
895.161	21096
895.283	21116
895.405	21081
895.526	21074
895.648	21096
895.769	20998
895.891	21195
896.012	21173
896.134	21131
896.255	21009
896.376	21032
896.498	21081
896.619	21192
896.74	21028
896.861	21085
896.982	21393
897.103	21591
897.224	21389
897.345	21340
897.466	21218
897.587	21264
897.708	21378
897.828	21256
897.949	21157
898.07	21123
898.19	21165
898.311	21363
898.431	21093
898.552	21382
898.672	21230
898.792	21382
898.913	21325
899.033	21211
899.153	21043
899.273	20891
899.393	21032
899.513	21055
899.633	21154
899.753	20979
899.873	20979
899.993	21028
900.113	21032
900.232	20937
900.352	20811
900.472	20864
900.591	20739
900.711	20872
900.83	20705
900.95	20899
901.069	20883
901.189	20526
901.308	20568
901.427	20351
901.546	20332
901.665	20229
901.784	20286
901.904	20240
902.023	20046
902.141	19894
902.26	19837
902.379	19913
902.498	19864
902.617	19845
902.735	19803
902.854	19822
902.973	19791
903.091	19533
903.21	19537
903.328	19552
903.446	19297
903.565	19343
903.683	19396
903.801	19206
903.919	19190
904.038	19175
904.156	18985
904.274	19114
904.392	19122
904.51	19050
904.627	19053
904.745	19046
904.863	19072
904.981	18863
905.098	18730
905.216	18646
905.334	18787
905.451	18684
905.569	18623
905.686	18760
905.803	18677
905.921	18521
906.038	18566
906.155	18483
906.272	18483
906.389	18551
906.506	18254
906.623	18281
906.74	18155
906.857	18144
906.974	18213
907.091	18232
907.208	18334
907.324	18239
907.441	18076
907.557	18019
907.674	17935
907.79	17836
907.907	17847
908.023	18060
908.139	17961
908.256	17851
908.372	17840
908.488	17779
908.604	17714
908.72	17714
908.836	17722
908.952	17589
909.068	17642
909.184	17798
909.3	17608
909.415	17764
909.531	17707
909.647	17448
909.762	17417
909.878	17334
909.993	17311
910.108	17303
910.224	17376
910.339	17330
910.454	17189
910.57	17151
910.685	17174
910.8	17322
910.915	17246
911.03	17075
911.145	16919
911.259	16972
911.374	16927
911.489	16843
911.604	16881
911.718	16698
911.833	16691
911.947	16531
912.062	16603
912.176	16710
912.291	16713
912.405	16630
912.519	16908
912.633	16843
912.748	16710
912.862	16710
912.976	16485
913.09	16337
913.204	16455
913.318	16375
913.431	16565
913.545	16493
913.659	16531
913.772	16474
913.886	16219
914	16211
914.113	16432
914.226	16356
914.34	16314
914.453	16135
914.566	16284
914.68	16173
914.793	16101
914.906	16048
915.019	15804
915.132	15812
915.245	15827
915.358	15937
915.47	15880
915.583	15888
915.696	15808
915.809	15991
915.921	15991
916.034	15713
916.146	15694
916.259	15739
916.371	15930
916.483	15732
916.595	15614
916.708	15663
916.82	15625
916.932	15599
917.044	15622
917.156	15656
917.268	15519
917.38	15523
917.491	15557
917.603	15431
917.715	15580
917.826	15500
917.938	15435
918.049	15264
918.161	15500
918.272	15557
918.384	15526
918.495	15386
918.606	15279
918.717	15131
918.828	15256
918.939	15279
919.05	15100
919.161	15214
919.272	15028
919.383	15142
919.494	15165
919.604	15389
919.715	15161
919.826	15165
919.936	15097
920.047	15157
920.157	15138
920.267	15287
920.378	15226
920.488	15142
920.598	15325
920.708	15488
920.818	15283
920.928	15340
921.038	15424
921.148	15336
921.258	15100
921.368	14914
921.477	14887
921.587	14880
921.697	14781
921.806	14933
921.916	14697
922.025	14549
922.134	14522
922.244	14571
922.353	14560
922.462	14434
922.571	14343
922.68	14195
922.789	14199
922.898	14183
923.007	14145
923.116	14172
923.224	14096
923.333	14138
923.442	14088
923.55	13963
923.659	14020
923.767	14062
923.876	13955
923.984	14012
924.092	13830
924.201	13947
924.309	13932
924.417	13936
924.525	13761
924.633	13818
924.741	14537
924.849	13552
924.956	13689
925.064	13548
925.172	13499
925.279	13571
925.387	13544
925.494	13468
925.602	13662
925.709	13647
925.816	13381
925.924	13491
926.031	13563
926.138	13472
926.245	13544
926.352	13373
926.459	13529
926.566	13578
926.673	13377
926.779	13343
926.886	13312
926.993	13126
927.099	12981
927.206	13088
927.312	13103
927.419	13008
927.525	13103
927.631	13133
927.737	13034
927.843	12848
927.95	12814
928.056	12916
928.162	12954
928.267	12962
928.373	13567
928.479	13114
928.585	12757
928.69	12905
928.796	12939
928.901	12734
929.007	12669
929.112	12840
929.218	12677
929.323	12681
929.428	12650
929.533	12665
929.638	12513
929.743	12532
929.848	12612
929.953	12593
930.058	12429
930.163	12281
930.267	12201
930.372	12437
930.477	12175
930.581	12414
930.685	12319
930.79	12155
930.894	12201
930.998	12205
931.103	12311
931.207	11912
931.311	11798
931.415	11729
931.519	11509
931.623	11562
