Data from test_V78500241_747.txt Node
Date: Fri Mar 25 15:46:58 CST 2022
User: usil
Spectrometer: V785-0024
Trigger mode: 0
Integration Time (sec): 4.000000E-1
Scans to average: 1
Nonlinearity correction enabled: false
Boxcar width: 0
Storing dark spectrum: false
XAxis mode: Wavelengths
Number of Pixels in Spectrum: 1024
>>>>>Begin Spectral Data<<<<<
801.071	28101
801.214	27991
801.356	27812
801.499	27648
801.641	27614
801.783	27686
801.926	27717
802.068	27580
802.211	27652
802.353	27412
802.496	27226
802.638	27378
802.78	27272
802.923	27252
803.065	27214
803.208	27367
803.35	27268
803.492	27393
803.635	27481
803.777	27374
803.919	27473
804.061	27762
804.204	27583
804.346	27408
804.488	27507
804.63	27367
804.773	27466
804.915	27420
805.057	27641
805.199	27534
805.341	27656
805.483	27401
805.626	27648
805.768	27507
805.91	27595
806.052	27652
806.194	27526
806.336	27846
806.478	27660
806.62	27724
806.762	27751
806.904	27907
807.046	28006
807.188	28116
807.33	28185
807.472	28173
807.614	28120
807.756	28082
807.898	27880
808.04	27899
808.182	27945
808.324	27850
808.465	27911
808.607	28078
808.749	28409
808.891	28352
809.033	28421
809.174	28417
809.316	28325
809.458	28333
809.6	28405
809.741	28459
809.883	28485
810.025	28698
810.166	28565
810.308	28706
810.45	28424
810.591	28535
810.733	28314
810.875	28257
811.016	28287
811.158	28200
811.299	28569
811.441	28668
811.582	28519
811.724	28432
811.865	28333
812.007	28314
812.148	28360
812.29	28459
812.431	28401
812.573	28706
812.714	28649
812.855	28771
812.997	29102
813.138	29060
813.279	28976
813.421	28896
813.562	28786
813.703	28733
813.845	28466
813.986	28348
814.127	28086
814.268	28010
814.41	28067
814.551	27869
814.692	28135
814.833	27975
814.974	27964
815.115	28101
815.256	27914
815.397	27953
815.539	27945
815.68	27892
815.821	27603
815.962	27888
816.103	27876
816.244	27759
816.385	27644
816.526	27545
816.666	27367
816.807	27351
816.948	27420
817.089	27359
817.23	27401
817.371	27458
817.512	27336
817.653	27351
817.793	27264
817.934	27393
818.075	27374
818.216	27329
818.356	27374
818.497	27192
818.638	27142
818.778	27150
818.919	27104
819.06	27161
819.2	27245
819.341	27469
819.481	27211
819.622	27530
819.762	27599
819.903	27595
820.043	27633
820.184	27500
820.324	27367
820.465	27553
820.605	27526
820.746	27530
820.886	27252
821.026	27412
821.167	27291
821.307	27336
821.447	27386
821.588	27203
821.728	27123
821.868	26952
822.008	26693
822.149	26735
822.289	26788
822.429	26636
822.569	26511
822.709	26453
822.849	26358
822.99	26290
823.13	26282
823.27	26252
823.41	26119
823.55	26001
823.69	26142
823.83	26237
823.97	26062
824.11	25997
824.25	25997
824.389	25909
824.529	26092
824.669	26001
824.809	26001
824.949	26073
825.089	26020
825.228	26062
825.368	25818
825.508	25788
825.648	25795
825.787	25989
825.927	25978
826.067	25818
826.206	25856
826.346	25875
826.485	25883
826.625	25807
826.765	25913
826.904	25784
827.044	25715
827.183	25655
827.323	25499
827.462	25689
827.601	25628
827.741	25571
827.88	25552
828.02	25590
828.159	25438
828.298	25620
828.437	25628
828.577	25468
828.716	25632
828.855	25445
828.994	25156
829.134	25316
829.273	25316
829.412	25289
829.551	25171
829.69	25244
829.829	25274
829.968	25187
830.107	25301
830.246	25301
830.385	25000
830.524	25076
830.663	25072
830.802	24954
830.941	24840
831.08	24810
831.219	24958
831.357	24924
831.496	25118
831.635	24817
831.774	24665
831.913	24783
832.051	24642
832.19	24677
832.329	24616
832.467	24513
832.606	24445
832.744	24372
832.883	24502
833.022	24525
833.16	24563
833.299	24574
833.437	24555
833.576	24589
833.714	24582
833.852	24688
833.991	24631
834.129	24631
834.267	24692
834.406	24601
834.544	24623
834.682	24620
834.821	24540
834.959	24722
835.097	24547
835.235	24719
835.373	24521
835.511	24407
835.65	24483
835.788	24391
835.926	24372
836.064	24114
836.202	24186
836.34	24483
836.478	24521
836.615	24433
836.753	24471
836.891	24505
837.029	24460
837.167	24369
837.305	24395
837.443	24174
837.58	24197
837.718	24323
837.856	24319
837.993	24129
838.131	24251
838.269	24110
838.406	24216
838.544	23984
838.681	23920
838.819	23866
838.956	23760
839.094	23699
839.231	23760
839.369	23805
839.506	24098
839.643	23821
839.781	23589
839.918	23577
840.055	23695
840.193	23672
840.33	23680
840.467	23687
840.604	23623
840.742	23977
840.879	23615
841.016	23474
841.153	23596
841.29	23794
841.427	23558
841.564	23687
841.701	23630
841.838	23558
841.975	23452
842.112	23398
842.249	23482
842.385	23410
842.522	23665
842.659	23398
842.796	23417
842.933	23322
843.069	23372
843.206	23349
843.343	23402
843.479	23322
843.616	23368
843.752	23227
843.889	23102
844.025	23383
844.162	23109
844.298	23277
844.435	23060
844.571	23083
844.708	23147
844.844	23284
844.98	23299
845.117	23216
845.253	23098
845.389	22999
845.525	23067
845.661	22953
845.798	22862
845.934	22980
846.07	22805
846.206	22976
846.342	23006
846.478	22828
846.614	22713
846.75	22481
846.886	22584
847.022	22672
847.158	22721
847.294	22618
847.429	22721
847.565	22481
847.701	22862
847.837	22428
847.972	22352
848.108	22428
848.244	22443
848.379	22238
848.515	22154
848.65	22109
848.786	22280
848.921	22295
849.057	22306
849.192	22204
849.328	22306
849.463	22341
849.598	22150
849.734	22135
849.869	22063
850.004	21956
850.14	22055
850.275	21873
850.41	21854
850.545	21888
850.68	21998
850.815	21884
850.95	21968
851.085	22032
851.22	22101
851.355	21941
851.49	21949
851.625	21991
851.76	21945
851.895	21941
852.03	21979
852.165	21953
852.299	21949
852.434	21983
852.569	21884
852.703	21823
852.838	21979
852.973	22109
853.107	22173
853.242	21899
853.376	21838
853.511	21660
853.645	21739
853.78	21934
853.914	21808
854.048	21755
854.183	21743
854.317	21766
854.451	21975
854.585	21854
854.72	21778
854.854	21953
854.988	21671
855.122	21819
855.256	21606
855.39	21698
855.524	21762
855.658	21880
855.792	21797
855.926	21876
856.06	21854
856.194	21842
856.327	21732
856.461	21766
856.595	21709
856.729	21675
856.862	21895
856.996	21766
857.13	21869
857.263	21793
857.397	21838
857.53	21774
857.664	21762
857.797	21743
857.931	21835
858.064	21770
858.197	21876
858.331	21739
858.464	21660
858.597	21576
858.731	21819
858.864	21751
858.997	21637
859.13	21694
859.263	21793
859.396	21770
859.529	21720
859.662	21793
859.795	21728
859.928	21808
860.061	21941
860.194	22048
860.327	21922
860.46	21835
860.592	21915
860.725	21987
860.858	21934
860.99	21823
861.123	21682
861.256	21781
861.388	21838
861.521	22455
861.653	21671
861.786	21447
861.918	21641
862.05	21580
862.183	21603
862.315	21656
862.447	21736
862.58	21717
862.712	21454
862.844	21401
862.976	21652
863.108	21515
863.24	21960
863.372	21408
863.504	21439
863.636	21481
863.768	21614
863.9	21515
864.032	21386
864.164	21469
864.296	21504
864.428	21587
864.559	21572
864.691	21637
864.823	21519
864.954	21481
865.086	21488
865.217	21408
865.349	21382
865.48	21329
865.612	21416
865.743	21477
865.875	21420
866.006	21443
866.137	21382
866.269	21386
866.4	21252
866.531	21321
866.662	21389
866.793	21317
866.924	21260
867.055	21336
867.186	21389
867.317	21233
867.448	21199
867.579	21245
867.71	21313
867.841	21108
867.972	21226
868.103	21245
868.233	21393
868.364	21241
868.495	21397
868.625	21618
868.756	21648
868.886	21618
869.017	21622
869.147	21610
869.278	21530
869.408	21713
869.539	21542
869.669	21572
869.799	21526
869.929	21652
870.06	21618
870.19	21930
870.32	21899
870.45	21766
870.58	22070
870.71	21975
870.84	21991
870.97	21854
871.1	22002
871.23	22150
871.36	22120
871.489	22036
871.619	22109
871.749	22185
871.879	22188
872.008	22314
872.138	22040
872.267	22162
872.397	21998
872.526	21987
872.656	21915
872.785	21983
872.915	22265
873.044	22295
873.173	22200
873.303	22204
873.432	22196
873.561	22280
873.69	22219
873.819	22139
873.948	22204
874.077	22223
874.206	22200
874.335	22230
874.464	22303
874.593	22485
874.722	22409
874.851	22470
874.979	22337
875.108	22352
875.237	22455
875.365	22299
875.494	22371
875.623	22455
875.751	22295
875.88	22470
876.008	22523
876.136	22550
876.265	22744
876.393	22881
876.521	22763
876.65	22801
876.778	22816
876.906	22702
877.034	22660
877.162	22649
877.29	22694
877.418	22797
877.546	22782
877.674	22637
877.802	22782
877.93	22672
878.058	22790
878.185	22611
878.313	22691
878.441	22793
878.568	22569
878.696	22573
878.824	22687
878.951	22812
879.079	22934
879.206	23029
879.333	22881
879.461	22717
879.588	22900
879.715	22755
879.842	22999
879.97	22774
880.097	22542
880.224	22565
880.351	22588
880.478	22516
880.605	22447
880.732	22519
880.859	22835
880.986	22580
881.112	22519
881.239	22459
881.366	22268
881.493	22238
881.619	22131
881.746	22086
881.872	22059
881.999	22154
882.125	22147
882.252	22147
882.378	22154
882.505	22226
882.631	22032
882.757	21831
882.883	21850
883.01	21873
883.136	21781
883.262	21606
883.388	21625
883.514	21918
883.64	21797
883.766	21766
883.892	21591
884.018	21724
884.143	21759
884.269	21835
884.395	21523
884.52	21435
884.646	21530
884.772	21389
884.897	21348
885.023	21447
885.148	21538
885.274	21637
885.399	21561
885.524	21428
885.65	21481
885.775	21443
885.9	21523
886.025	21496
886.15	21466
886.275	21564
886.4	21370
886.525	21454
886.65	21462
886.775	21386
886.9	21591
887.025	21713
887.149	21393
887.274	21176
887.399	21233
887.523	21176
887.648	21173
887.773	21169
887.897	21393
888.021	21249
888.146	21085
888.27	21249
888.395	21393
888.519	21268
888.643	21298
888.767	21325
888.891	21135
889.015	20857
889.139	21051
889.263	20937
889.387	21146
889.511	21298
889.635	21226
889.759	20937
889.883	21051
890.006	21028
890.13	21051
890.254	20941
890.377	20925
890.501	20773
890.624	20655
890.748	20868
890.871	20826
890.995	20564
891.118	20575
891.241	20549
891.364	20476
891.488	20705
891.611	20655
891.734	20545
891.857	20712
891.98	20533
892.103	20674
892.226	20530
892.349	20495
892.471	20400
892.594	20564
892.717	20545
892.839	20476
892.962	20499
893.085	20415
893.207	20431
893.33	20438
893.452	20358
893.575	20560
893.697	20381
893.819	20549
893.941	20640
894.064	20632
894.186	20362
894.308	20381
894.43	20537
894.552	20739
894.674	20556
894.796	20320
894.918	20484
895.04	20446
895.161	20617
895.283	20526
895.405	20347
895.526	20450
895.648	20427
895.769	20469
895.891	20549
896.012	20564
896.134	20537
896.255	20434
896.376	20423
896.498	20537
896.619	20427
896.74	20442
896.861	20564
896.982	20853
897.103	20937
897.224	20800
897.345	20640
897.466	20739
897.587	20632
897.708	20849
897.828	20765
897.949	20663
898.07	20503
898.19	20606
898.311	20735
898.431	20659
898.552	20636
898.672	20689
898.792	20686
898.913	20667
899.033	20492
899.153	20469
899.273	20324
899.393	20465
899.513	20511
899.633	20526
899.753	20404
899.873	20324
899.993	20404
900.113	20343
900.232	20446
900.352	20336
900.472	20195
900.591	20115
900.711	20225
900.83	20221
900.95	20252
901.069	20358
901.189	20020
901.308	19769
901.427	19742
901.546	19822
901.665	19742
901.784	19868
901.904	19666
902.023	19552
902.141	19289
902.26	19221
902.379	19362
902.498	19316
902.617	19251
902.735	19247
902.854	19244
902.973	19266
903.091	18996
903.21	18954
903.328	18958
903.446	18768
903.565	18791
903.683	18696
903.801	18715
903.919	18661
904.038	18684
904.156	18494
904.274	18536
904.392	18593
904.51	18414
904.627	18559
904.745	18467
904.863	18642
904.981	18319
905.098	18182
905.216	18228
905.334	18258
905.451	18232
905.569	18205
905.686	18155
905.803	18076
905.921	17999
906.038	18098
906.155	17927
906.272	17817
906.389	17931
906.506	17748
906.623	17821
906.74	17695
906.857	17592
906.974	17634
907.091	17748
907.208	17741
907.324	17726
907.441	17615
907.557	17444
907.674	17398
907.79	17379
907.907	17478
908.023	17444
908.139	17387
908.256	17379
908.372	17360
908.488	17280
908.604	17322
908.72	17132
908.836	17090
908.952	17143
909.068	17151
909.184	17254
909.3	17124
909.415	17239
909.531	17113
909.647	16915
909.762	16961
909.878	16900
909.993	16763
910.108	16828
910.224	16824
910.339	16877
910.454	16717
910.57	16649
910.685	16656
910.8	16862
910.915	16820
911.03	16641
911.145	16447
911.259	16569
911.374	16443
911.489	16341
911.604	16360
911.718	16234
911.833	16230
911.947	16109
912.062	16124
912.176	16139
912.291	16135
912.405	16166
912.519	16352
912.633	16341
912.748	16223
912.862	16147
912.976	15987
913.09	15941
913.204	15937
913.318	15972
913.431	16074
913.545	16040
913.659	16071
913.772	15987
913.886	15804
914	15766
914.113	15774
914.226	15797
914.34	15827
914.453	15629
914.566	15808
914.68	15637
914.793	15644
914.906	15557
915.019	15416
915.132	15268
915.245	15321
915.358	15416
915.47	15420
915.583	15351
915.696	15450
915.809	15515
915.921	15462
916.034	15336
916.146	15176
916.259	15291
916.371	15321
916.483	15317
916.595	15256
916.708	15195
916.82	15275
916.932	15135
917.044	15161
917.156	15165
917.268	15062
917.38	15009
917.491	15009
917.603	15020
917.715	15116
917.826	15127
917.938	14998
918.049	14842
918.161	15017
918.272	15074
918.384	15100
918.495	14849
918.606	14910
918.717	14796
918.828	14758
918.939	14769
919.05	14705
919.161	14754
919.272	14598
919.383	14571
919.494	14861
919.604	14994
919.715	14785
919.826	14644
919.936	14731
920.047	14823
920.157	14773
920.267	15009
920.378	14762
920.488	14708
920.598	14925
920.708	15001
920.818	14883
920.928	14807
921.038	15043
921.148	14853
921.258	14644
921.368	14552
921.477	14492
921.587	14423
921.697	14377
921.806	14488
921.916	14339
922.025	14180
922.134	14077
922.244	14008
922.353	14176
922.462	14069
922.571	13883
922.68	13871
922.789	13757
922.898	13776
923.007	13696
923.116	13791
923.224	13700
923.333	13742
923.442	13590
923.55	13491
923.659	13571
923.767	13658
923.876	13605
923.984	13628
924.092	13441
924.201	13544
924.309	13525
924.417	13521
924.525	13407
924.633	13403
924.741	14389
924.849	13240
924.956	13381
925.064	13141
925.172	13107
925.279	13152
925.387	13122
925.494	13198
925.602	13377
925.709	13198
925.816	13042
925.924	13190
926.031	13187
926.138	13076
926.245	13072
926.352	13057
926.459	13149
926.566	13141
926.673	13114
926.779	12943
926.886	12966
926.993	12764
927.099	12673
927.206	12635
927.312	12650
927.419	12806
927.525	12734
927.631	12684
927.737	12608
927.843	12525
927.95	12475
928.056	12566
928.162	12547
928.267	12623
928.373	13160
928.479	12646
928.585	12422
928.69	12521
928.796	12544
928.901	12490
929.007	12228
929.112	12407
929.218	12353
929.323	12235
929.428	12281
929.533	12372
929.638	12167
929.743	12201
929.848	12353
929.953	12232
930.058	12079
930.163	11950
930.267	12076
930.372	12076
930.477	11893
930.581	12098
930.685	12060
930.79	11855
930.894	11931
930.998	11767
931.103	11946
931.207	11623
931.311	11528
931.415	11364
931.519	11212
931.623	11166
