Data from test_V78500241_1245.txt Node
Date: Fri Mar 25 15:50:25 CST 2022
User: usil
Spectrometer: V785-0024
Trigger mode: 0
Integration Time (sec): 4.000000E-1
Scans to average: 1
Nonlinearity correction enabled: false
Boxcar width: 0
Storing dark spectrum: false
XAxis mode: Wavelengths
Number of Pixels in Spectrum: 1024
>>>>>Begin Spectral Data<<<<<
801.071	28660
801.214	28538
801.356	28394
801.499	28360
801.641	28200
801.783	28204
801.926	28173
802.068	28242
802.211	28135
802.353	28181
802.496	27873
802.638	27869
802.78	27838
802.923	27831
803.065	27770
803.208	27747
803.35	27949
803.492	27911
803.635	28147
803.777	28109
803.919	28032
804.061	28527
804.204	28253
804.346	28002
804.488	27911
804.63	28196
804.773	28082
804.915	28158
805.057	28253
805.199	28109
805.341	28105
805.483	28276
805.626	28219
805.768	28192
805.91	28268
806.052	28249
806.194	28185
806.336	28474
806.478	28348
806.62	28295
806.762	28557
806.904	28538
807.046	28888
807.188	28725
807.33	28900
807.472	28740
807.614	28615
807.756	28744
807.898	28573
808.04	28615
808.182	28588
808.324	28672
808.465	28634
808.607	28831
808.749	28968
808.891	28999
809.033	29090
809.174	29102
809.316	28892
809.458	28881
809.6	28888
809.741	29296
809.883	29025
810.025	29242
810.166	29136
810.308	29292
810.45	29178
810.591	29227
810.733	29022
810.875	28999
811.016	28961
811.158	28976
811.299	29086
811.441	29155
811.582	29235
811.724	28934
811.865	29006
812.007	28957
812.148	29022
812.29	28934
812.431	29132
812.573	29337
812.714	29406
812.855	29444
812.997	29433
813.138	29665
813.279	29623
813.421	29668
813.562	29414
813.703	29448
813.845	29227
813.986	28938
814.127	28752
814.268	28816
814.41	28641
814.551	28649
814.692	28927
814.833	28603
814.974	28873
815.115	28774
815.256	28554
815.397	28653
815.539	28557
815.68	28641
815.821	28421
815.962	28508
816.103	28504
816.244	28424
816.385	28249
816.526	28310
816.666	28120
816.807	28002
816.948	28105
817.089	28314
817.23	28070
817.371	28185
817.512	27953
817.653	28006
817.793	28044
817.934	28078
818.075	28090
818.216	28086
818.356	28055
818.497	27873
818.638	27682
818.778	27812
818.919	27690
819.06	27861
819.2	27911
819.341	28101
819.481	27998
819.622	28173
819.762	28322
819.903	28367
820.043	28120
820.184	28067
820.324	28124
820.465	28249
820.605	28078
820.746	28044
820.886	28013
821.026	28253
821.167	28181
821.307	28192
821.447	28086
821.588	27968
821.728	27831
821.868	27686
822.008	27542
822.149	27557
822.289	27504
822.429	27291
822.569	27268
822.709	27222
822.849	26944
822.99	27028
823.13	27020
823.27	26940
823.41	26724
823.55	26663
823.69	26826
823.83	26891
823.97	26777
824.11	26651
824.25	26488
824.389	26640
824.529	26842
824.669	26575
824.809	26910
824.949	26853
825.089	26887
825.228	26788
825.368	26655
825.508	26492
825.648	26442
825.787	26640
825.927	26613
826.067	26533
826.206	26552
826.346	26667
826.485	26568
826.625	26514
826.765	26651
826.904	26697
827.044	26396
827.183	26225
827.323	26271
827.462	26355
827.601	26168
827.741	26313
827.88	26393
828.02	26031
828.159	26324
828.298	26115
828.437	26218
828.577	26195
828.716	26202
828.855	26164
828.994	26039
829.134	25951
829.273	25997
829.412	25906
829.551	25982
829.69	25894
829.829	25959
829.968	25966
830.107	25944
830.246	25868
830.385	25947
830.524	25791
830.663	25890
830.802	25632
830.941	25597
831.08	25537
831.219	25658
831.357	25502
831.496	25772
831.635	25605
831.774	25510
831.913	25392
832.051	25251
832.19	25415
832.329	25483
832.467	25274
832.606	25076
832.744	25114
832.883	25316
833.022	25141
833.16	25129
833.299	25308
833.437	25251
833.576	25331
833.714	25255
833.852	25293
833.991	25430
834.129	25365
834.267	25327
834.406	25247
834.544	25457
834.682	25270
834.821	25255
834.959	25426
835.097	25259
835.235	25270
835.373	25255
835.511	25297
835.65	25076
835.788	24989
835.926	24966
836.064	25107
836.202	24973
836.34	25209
836.478	25282
836.615	25107
836.753	25004
836.891	25190
837.029	25031
837.167	24985
837.305	24992
837.443	25050
837.58	25076
837.718	25076
837.856	25015
837.993	24958
838.131	24798
838.269	24958
838.406	24814
838.544	24806
838.681	24658
838.819	24650
838.956	24483
839.094	24338
839.231	24384
839.369	24604
839.506	24681
839.643	24639
839.781	24414
839.918	24346
840.055	24330
840.193	24388
840.33	24414
840.467	24281
840.604	24361
840.742	24673
840.879	24247
841.016	24353
841.153	24270
841.29	24498
841.427	24220
841.564	24399
841.701	24285
841.838	24342
841.975	24194
842.112	24285
842.249	24178
842.385	24171
842.522	24247
842.659	24270
842.796	24072
842.933	24007
843.069	23878
843.206	24072
843.343	24144
843.479	24106
843.616	24060
843.752	23855
843.889	23847
844.025	23992
844.162	23741
844.298	23855
844.435	23790
844.571	23805
844.708	23836
844.844	24068
844.98	23882
845.117	24030
845.253	23840
845.389	23684
845.525	23661
845.661	23642
845.798	23516
845.934	23562
846.07	23493
846.206	23596
846.342	23699
846.478	23539
846.614	23402
846.75	23223
846.886	23372
847.022	23429
847.158	23318
847.294	23288
847.429	23383
847.565	23258
847.701	23455
847.837	23018
847.972	23113
848.108	23124
848.244	23185
848.379	22900
848.515	22854
848.65	22774
848.786	22930
848.921	22748
849.057	23048
849.192	22961
849.328	22850
849.463	22972
849.598	22858
849.734	22736
849.869	22771
850.004	22759
850.14	22561
850.275	22656
850.41	22561
850.545	22687
850.68	22599
850.815	22649
850.95	22535
851.085	22736
851.22	22740
851.355	22546
851.49	22580
851.625	22542
851.76	22637
851.895	22512
852.03	22615
852.165	22565
852.299	22596
852.434	22679
852.569	22752
852.703	22531
852.838	22698
852.973	22812
853.107	22801
853.242	22653
853.376	22607
853.511	22417
853.645	22371
853.78	22649
853.914	22531
854.048	22497
854.183	22481
854.317	22508
854.451	22713
854.585	22474
854.72	22451
854.854	22577
854.988	22360
855.122	22325
855.256	22249
855.39	22413
855.524	22504
855.658	22668
855.792	22546
855.926	22489
856.06	22538
856.194	22554
856.327	22459
856.461	22382
856.595	22367
856.729	22443
856.862	22569
856.996	22519
857.13	22599
857.263	22580
857.397	22584
857.53	22421
857.664	22527
857.797	22421
857.931	22565
858.064	22557
858.197	22542
858.331	22344
858.464	22451
858.597	22421
858.731	22440
858.864	22371
858.997	22531
859.13	22367
859.263	22363
859.396	22615
859.529	22382
859.662	22428
859.795	22409
859.928	22466
860.061	22459
860.194	22645
860.327	22535
860.46	22386
860.592	22687
860.725	22580
860.858	22653
860.99	22409
861.123	22363
861.256	22367
861.388	22367
861.521	23220
861.653	22367
861.786	22276
861.918	22211
862.05	22299
862.183	22318
862.315	22424
862.447	22363
862.58	22421
862.712	22162
862.844	22120
862.976	22310
863.108	22188
863.24	22519
863.372	22150
863.504	22017
863.636	22109
863.768	22139
863.9	22070
864.032	22051
864.164	22238
864.296	22192
864.428	22238
864.559	22044
864.691	22147
864.823	22207
864.954	22109
865.086	22120
865.217	22048
865.349	21979
865.48	21994
865.612	21994
865.743	22162
865.875	22051
866.006	22090
866.137	22040
866.269	21972
866.4	22029
866.531	22002
866.662	21888
866.793	21926
866.924	21960
867.055	21960
867.186	21968
867.317	21922
867.448	21854
867.579	22036
867.71	21873
867.841	21812
867.972	21937
868.103	22010
868.233	22086
868.364	21987
868.495	22116
868.625	22070
868.756	22257
868.886	22109
869.017	22166
869.147	22284
869.278	22234
869.408	22158
869.539	22207
869.669	22390
869.799	22249
869.929	22432
870.06	22371
870.19	22512
870.32	22588
870.45	22554
870.58	22580
870.71	22546
870.84	22691
870.97	22443
871.1	22538
871.23	22687
871.36	22786
871.489	22687
871.619	22561
871.749	22877
871.879	22854
872.008	22843
872.138	22713
872.267	22778
872.397	22599
872.526	22702
872.656	22694
872.785	22611
872.915	22774
873.044	22904
873.173	22786
873.303	23033
873.432	22877
873.561	22965
873.69	22961
873.819	22885
873.948	22858
874.077	22915
874.206	22744
874.335	22797
874.464	22980
874.593	23079
874.722	22946
874.851	23105
874.979	23090
875.108	23083
875.237	22995
875.365	22930
875.494	23071
875.623	23140
875.751	22946
875.88	23079
876.008	23147
876.136	23303
876.265	23421
876.393	23478
876.521	23383
876.65	23524
876.778	23395
876.906	23311
877.034	23250
877.162	23398
877.29	23250
877.418	23353
877.546	23376
877.674	23398
877.802	23474
877.93	23322
878.058	23345
878.185	23269
878.313	23360
878.441	23368
878.568	23128
878.696	23353
878.824	23421
878.951	23512
879.079	23611
879.206	23642
879.333	23429
879.461	23341
879.588	23425
879.715	23577
879.842	23710
879.97	23417
880.097	23132
880.224	23143
880.351	23216
880.478	23212
880.605	23174
880.732	23193
880.859	23501
880.986	23239
881.112	23193
881.239	23064
881.366	22908
881.493	22824
881.619	22809
881.746	22755
881.872	22820
881.999	22774
882.125	22645
882.252	22812
882.378	22706
882.505	22850
882.631	22679
882.757	22409
882.883	22459
883.01	22390
883.136	22443
883.262	22261
883.388	22207
883.514	22348
883.64	22329
883.766	22196
883.892	22093
884.018	22112
884.143	22310
884.269	22504
884.395	22143
884.52	21987
884.646	22070
884.772	21998
884.897	21968
885.023	22139
885.148	22139
885.274	22150
885.399	22036
885.524	22017
885.65	21994
885.775	22006
885.9	21987
886.025	22185
886.15	22139
886.275	22017
886.4	21987
886.525	22169
886.65	22032
886.775	22013
886.9	22169
887.025	22139
887.149	21968
887.274	21861
887.399	21922
887.523	21819
887.648	21724
887.773	21682
887.897	21861
888.021	21743
888.146	21789
888.27	21873
888.395	21918
888.519	21759
888.643	21804
888.767	21751
888.891	21717
889.015	21625
889.139	21656
889.263	21686
889.387	21816
889.511	21846
889.635	21686
889.759	21576
889.883	21542
890.006	21667
890.13	21644
890.254	21447
890.377	21637
890.501	21370
890.624	21336
890.748	21428
890.871	21260
890.995	21017
891.118	21055
891.241	21256
891.364	21169
891.488	21218
891.611	21207
891.734	21222
891.857	21264
891.98	21294
892.103	21184
892.226	21116
892.349	21150
892.471	20994
892.594	21123
892.717	21043
892.839	20956
892.962	21081
893.085	21085
893.207	20956
893.33	20876
893.452	20891
893.575	21127
893.697	21043
893.819	21154
893.941	21218
894.064	21104
894.186	20994
894.308	20941
894.43	21119
894.552	21226
894.674	21199
894.796	20944
894.918	21062
895.04	20937
895.161	21104
895.283	21055
895.405	21005
895.526	21024
895.648	20963
895.769	21051
895.891	21146
896.012	21176
896.134	21100
896.255	21093
896.376	21062
896.498	20998
896.619	21009
896.74	21009
896.861	21077
896.982	21355
897.103	21477
897.224	21241
897.345	21195
897.466	21367
897.587	21169
897.708	21329
897.828	21397
897.949	21123
898.07	21001
898.19	21180
898.311	21176
898.431	21260
898.552	21252
898.672	21279
898.792	21348
898.913	21112
899.033	21055
899.153	21108
899.273	20773
899.393	20971
899.513	21043
899.633	20925
899.753	20906
899.873	20819
899.993	21001
900.113	20853
900.232	20906
900.352	20990
900.472	20902
900.591	20617
900.711	20754
900.83	20644
900.95	20861
901.069	20788
901.189	20613
901.308	20374
901.427	20263
901.546	20267
901.665	20358
901.784	20161
901.904	20210
902.023	19959
902.141	19791
902.26	19860
902.379	19811
902.498	19826
902.617	19822
902.735	19852
902.854	19715
902.973	19761
903.091	19510
903.21	19419
903.328	19533
903.446	19365
903.565	19221
903.683	19282
903.801	19160
903.919	19274
904.038	19274
904.156	18989
904.274	19107
904.392	18970
904.51	18882
904.627	18932
904.745	19042
904.863	19015
904.981	18886
905.098	18741
905.216	18684
905.334	18833
905.451	18734
905.569	18620
905.686	18802
905.803	18719
905.921	18494
906.038	18578
906.155	18429
906.272	18376
906.389	18399
906.506	18167
906.623	18213
906.74	18171
906.857	17969
906.974	18171
907.091	18327
907.208	18281
907.324	18205
907.441	18098
907.557	17980
907.674	17973
907.79	17878
907.907	17916
908.023	17920
908.139	17874
908.256	17904
908.372	17779
908.488	17760
908.604	17684
908.72	17630
908.836	17745
908.952	17615
909.068	17649
909.184	17745
909.3	17714
909.415	17737
909.531	17630
909.647	17261
909.762	17356
909.878	17334
909.993	17376
910.108	17410
910.224	17341
910.339	17117
910.454	17208
910.57	17132
910.685	17094
910.8	17421
910.915	17170
911.03	17185
911.145	16984
911.259	16831
911.374	16854
911.489	16904
911.604	16752
911.718	16668
911.833	16717
911.947	16554
912.062	16554
912.176	16698
912.291	16812
912.405	16679
912.519	16904
912.633	16801
912.748	16596
912.862	16561
912.976	16428
913.09	16394
913.204	16348
913.318	16504
913.431	16535
913.545	16512
913.659	16596
913.772	16375
913.886	16257
914	16253
914.113	16386
914.226	16382
914.34	16287
914.453	16253
914.566	16215
914.68	16128
914.793	16109
914.906	15899
915.019	15778
915.132	15823
915.245	15907
915.358	15785
915.47	15827
915.583	15911
915.696	15922
915.809	16013
915.921	16025
916.034	15808
916.146	15816
916.259	15762
916.371	15747
916.483	15728
916.595	15766
916.708	15846
916.82	15652
916.932	15663
917.044	15637
917.156	15629
917.268	15348
917.38	15500
917.491	15424
917.603	15447
917.715	15439
917.826	15641
917.938	15439
918.049	15226
918.161	15374
918.272	15610
918.384	15526
918.495	15412
918.606	15188
918.717	15249
918.828	15302
918.939	15226
919.05	15108
919.161	15169
919.272	15032
919.383	15074
919.494	15207
919.604	15336
919.715	15199
919.826	15192
919.936	15146
920.047	15249
920.157	15165
920.267	15302
920.378	15218
920.488	15081
920.598	15302
920.708	15439
920.818	15351
920.928	15336
921.038	15382
921.148	15317
921.258	15142
921.368	14998
921.477	14823
921.587	14849
921.697	14739
921.806	14921
921.916	14724
922.025	14537
922.134	14560
922.244	14503
922.353	14579
922.462	14396
922.571	14240
922.68	14176
922.789	14149
922.898	14157
923.007	14134
923.116	14145
923.224	14176
923.333	14062
923.442	14001
923.55	13940
923.659	14012
923.767	14008
923.876	13811
923.984	14008
924.092	13845
924.201	13826
924.309	13811
924.417	13837
924.525	13727
924.633	13845
924.741	14701
924.849	13620
924.956	13689
925.064	13499
925.172	13499
925.279	13449
925.387	13594
925.494	13491
925.602	13670
925.709	13552
925.816	13365
925.924	13506
926.031	13616
926.138	13430
926.245	13552
926.352	13358
926.459	13483
926.566	13540
926.673	13381
926.779	13266
926.886	13278
926.993	13110
927.099	13069
927.206	13069
927.312	12989
927.419	13168
927.525	13110
927.631	13084
927.737	12939
927.843	12932
927.95	12779
928.056	12859
928.162	12920
928.267	12871
928.373	13586
928.479	12954
928.585	12635
928.69	12806
928.796	12863
928.901	12658
929.007	12540
929.112	12772
929.218	12749
929.323	12646
929.428	12559
929.533	12791
929.638	12471
929.743	12536
929.848	12597
929.953	12582
930.058	12437
930.163	12273
930.267	12258
930.372	12452
930.477	12258
930.581	12502
930.685	12304
930.79	12140
930.894	12209
930.998	12057
931.103	12228
931.207	11901
931.311	11828
931.415	11726
931.519	11512
931.623	11463
