Data from test_V78500241_3242.txt Node
Date: Fri Mar 25 16:04:15 CST 2022
User: usil
Spectrometer: V785-0024
Trigger mode: 0
Integration Time (sec): 4.000000E-1
Scans to average: 1
Nonlinearity correction enabled: false
Boxcar width: 0
Storing dark spectrum: false
XAxis mode: Wavelengths
Number of Pixels in Spectrum: 1024
>>>>>Begin Spectral Data<<<<<
801.071	28976
801.214	28942
801.356	28698
801.499	28702
801.641	28622
801.783	28443
801.926	28622
802.068	28455
802.211	28432
802.353	28394
802.496	28363
802.638	28363
802.78	28196
802.923	28291
803.065	28090
803.208	28238
803.35	28166
803.492	28493
803.635	28508
803.777	28306
803.919	28599
804.061	28809
804.204	28603
804.346	28398
804.488	28405
804.63	28474
804.773	28405
804.915	28360
805.057	28755
805.199	28500
805.341	28535
805.483	28649
805.626	28641
805.768	28432
805.91	28603
806.052	28694
806.194	28672
806.336	28835
806.478	28687
806.62	28607
806.762	28820
806.904	28968
807.046	29254
807.188	28976
807.33	29185
807.472	29174
807.614	29086
807.756	29044
807.898	28923
808.04	28915
808.182	28862
808.324	28888
808.465	28972
808.607	29242
808.749	29292
808.891	29467
809.033	29608
809.174	29353
809.316	29471
809.458	29383
809.6	29269
809.741	29455
809.883	29547
810.025	29600
810.166	29531
810.308	29615
810.45	29577
810.591	29623
810.733	29284
810.875	29334
811.016	29258
811.158	29307
811.299	29425
811.441	29653
811.582	29531
811.724	29516
811.865	29326
812.007	29216
812.148	29402
812.29	29509
812.431	29710
812.573	29687
812.714	29859
812.855	30038
812.997	30083
813.138	30068
813.279	29946
813.421	29996
813.562	29882
813.703	29813
813.845	29531
813.986	29395
814.127	29155
814.268	29086
814.41	29136
814.551	29018
814.692	29105
814.833	29041
814.974	28953
815.115	29208
815.256	28984
815.397	29048
815.539	29029
815.68	29022
815.821	28862
815.962	29003
816.103	28999
816.244	28778
816.385	28710
816.526	28755
816.666	28630
816.807	28554
816.948	28584
817.089	28603
817.23	28382
817.371	28432
817.512	28398
817.653	28310
817.793	28497
817.934	28382
818.075	28462
818.216	28367
818.356	28573
818.497	28401
818.638	28207
818.778	28284
818.919	28207
819.06	28322
819.2	28325
819.341	28432
819.481	28584
819.622	28527
819.762	28911
819.903	28774
820.043	28577
820.184	28485
820.324	28428
820.465	28626
820.605	28554
820.746	28356
820.886	28401
821.026	28516
821.167	28516
821.307	28599
821.447	28618
821.588	28299
821.728	28303
821.868	28128
822.008	28013
822.149	27854
822.289	27865
822.429	27641
822.569	27660
822.709	27401
822.849	27458
822.99	27427
823.13	27462
823.27	27427
823.41	27154
823.55	27157
823.69	27256
823.83	27298
823.97	27264
824.11	27020
824.25	27009
824.389	27070
824.529	27077
824.669	27237
824.809	27241
824.949	27138
825.089	27135
825.228	27062
825.368	27001
825.508	26891
825.648	26937
825.787	26914
825.927	27055
826.067	27055
826.206	26975
826.346	27013
826.485	27017
826.625	26944
826.765	27169
826.904	26960
827.044	26773
827.183	26876
827.323	26682
827.462	26613
827.601	26739
827.741	26575
827.88	26686
828.02	26617
828.159	26579
828.298	26739
828.437	26815
828.577	26667
828.716	26735
828.855	26648
828.994	26240
829.134	26507
829.273	26484
829.412	26244
829.551	26229
829.69	26290
829.829	26465
829.968	26412
830.107	26461
830.246	26305
830.385	26294
830.524	26240
830.663	26256
830.802	26050
830.941	25989
831.08	25963
831.219	26107
831.357	26024
831.496	26225
831.635	25993
831.774	25841
831.913	25883
832.051	25776
832.19	25719
832.329	25860
832.467	25616
832.606	25639
832.744	25685
832.883	25533
833.022	25563
833.16	25704
833.299	25677
833.437	25731
833.576	25845
833.714	25799
833.852	25727
833.991	25852
834.129	25879
834.267	25765
834.406	25738
834.544	25746
834.682	25830
834.821	25750
834.959	25871
835.097	25578
835.235	25738
835.373	25719
835.511	25647
835.65	25624
835.788	25556
835.926	25613
836.064	25373
836.202	25289
836.34	25578
836.478	25575
836.615	25472
836.753	25468
836.891	25597
837.029	25533
837.167	25491
837.305	25381
837.443	25525
837.58	25468
837.718	25434
837.856	25244
837.993	25282
838.131	25358
838.269	25343
838.406	25377
838.544	25126
838.681	24928
838.819	24894
838.956	24719
839.094	24829
839.231	24791
839.369	25080
839.506	25194
839.643	25019
839.781	24943
839.918	24814
840.055	24772
840.193	24779
840.33	24779
840.467	24722
840.604	24795
840.742	25042
840.879	24578
841.016	24604
841.153	24665
841.29	24958
841.427	24730
841.564	24696
841.701	24738
841.838	24749
841.975	24623
842.112	24604
842.249	24540
842.385	24437
842.522	24707
842.659	24559
842.796	24452
842.933	24433
843.069	24403
843.206	24460
843.343	24604
843.479	24570
843.616	24407
843.752	24163
843.889	24243
844.025	24365
844.162	24281
844.298	24395
844.435	24327
844.571	24281
844.708	24270
844.844	24391
844.98	24391
845.117	24502
845.253	24178
845.389	24106
845.525	24133
845.661	24003
845.798	24018
845.934	24003
846.07	23863
846.206	23988
846.342	24247
846.478	24030
846.614	23775
846.75	23775
846.886	23604
847.022	23775
847.158	23745
847.294	23737
847.429	23794
847.565	23726
847.701	23870
847.837	23471
847.972	23410
848.108	23558
848.244	23516
848.379	23353
848.515	23429
848.65	23322
848.786	23341
848.921	23231
849.057	23467
849.192	23414
849.328	23425
849.463	23311
849.598	23280
849.734	23261
849.869	23083
850.004	22946
850.14	23098
850.275	23185
850.41	23010
850.545	23003
850.68	23003
850.815	23094
850.95	23143
851.085	23231
851.22	23140
851.355	23086
851.49	23006
851.625	22980
851.76	23083
851.895	22949
852.03	22915
852.165	23033
852.299	23155
852.434	23098
852.569	23124
852.703	23086
852.838	23060
852.973	23155
853.107	23022
853.242	23022
853.376	22839
853.511	22774
853.645	22835
853.78	23064
853.914	22987
854.048	22930
854.183	22930
854.317	23014
854.451	23056
854.585	23010
854.72	22953
854.854	22881
854.988	22896
855.122	22839
855.256	22843
855.39	22904
855.524	22934
855.658	22847
855.792	22862
855.926	22968
856.06	22911
856.194	22904
856.327	22835
856.461	22740
856.595	22748
856.729	22942
856.862	22934
856.996	22938
857.13	22908
857.263	22995
857.397	22942
857.53	22778
857.664	22999
857.797	22984
857.931	23064
858.064	22755
858.197	22900
858.331	22904
858.464	22824
858.597	22820
858.731	22835
858.864	22767
858.997	22767
859.13	22869
859.263	22904
859.396	22987
859.529	22900
859.662	22828
859.795	22831
859.928	22809
860.061	23006
860.194	23090
860.327	23075
860.46	22908
860.592	22923
860.725	23022
860.858	22976
860.99	22892
861.123	22824
861.256	22790
861.388	22930
861.521	23493
861.653	22850
861.786	22725
861.918	22645
862.05	22858
862.183	22873
862.315	22900
862.447	22778
862.58	22752
862.712	22637
862.844	22470
862.976	22767
863.108	22664
863.24	23071
863.372	22596
863.504	22588
863.636	22615
863.768	22599
863.9	22626
864.032	22519
864.164	22634
864.296	22519
864.428	22649
864.559	22694
864.691	22710
864.823	22493
864.954	22599
865.086	22531
865.217	22557
865.349	22386
865.48	22519
865.612	22417
865.743	22755
865.875	22542
866.006	22470
866.137	22436
866.269	22409
866.4	22375
866.531	22436
866.662	22386
866.793	22356
866.924	22474
867.055	22455
867.186	22402
867.317	22337
867.448	22303
867.579	22356
867.71	22417
867.841	22341
867.972	22398
868.103	22322
868.233	22337
868.364	22268
868.495	22557
868.625	22626
868.756	22656
868.886	22580
869.017	22565
869.147	22755
869.278	22721
869.408	22691
869.539	22561
869.669	22835
869.799	22778
869.929	22801
870.06	22786
870.19	22873
870.32	22927
870.45	23010
870.58	23060
870.71	23060
870.84	23140
870.97	22999
871.1	23067
871.23	23136
871.36	23254
871.489	23105
871.619	23162
871.749	23189
871.879	23216
872.008	23322
872.138	23242
872.267	23299
872.397	23117
872.526	22991
872.656	22991
872.785	23075
872.915	23204
873.044	23345
873.173	23124
873.303	23181
873.432	23288
873.561	23349
873.69	23159
873.819	23235
873.948	23391
874.077	23223
874.206	23128
874.335	23273
874.464	23337
874.593	23452
874.722	23429
874.851	23455
874.979	23524
875.108	23535
875.237	23395
875.365	23258
875.494	23463
875.623	23444
875.751	23452
875.88	23376
876.008	23558
876.136	23608
876.265	23878
876.393	23958
876.521	23988
876.65	23996
876.778	23790
876.906	23764
877.034	23729
877.162	23851
877.29	23733
877.418	23836
877.546	23863
877.674	23779
877.802	23817
877.93	23771
878.058	23771
878.185	23638
878.313	23760
878.441	23707
878.568	23676
878.696	23661
878.824	23870
878.951	23897
879.079	24095
879.206	24049
879.333	23999
879.461	23870
879.588	23794
879.715	23999
879.842	24121
879.97	23904
880.097	23577
880.224	23501
880.351	23482
880.478	23638
880.605	23646
880.732	23714
880.859	23821
880.986	23581
881.112	23680
881.239	23406
881.366	23296
881.493	23178
881.619	23345
881.746	23136
881.872	23296
881.999	23071
882.125	23090
882.252	23178
882.378	23227
882.505	23162
882.631	23117
882.757	22824
882.883	22869
883.01	22809
883.136	22733
883.262	22805
883.388	22645
883.514	22908
883.64	22896
883.766	22755
883.892	22580
884.018	22653
884.143	22729
884.269	22904
884.395	22580
884.52	22500
884.646	22565
884.772	22462
884.897	22341
885.023	22500
885.148	22485
885.274	22649
885.399	22508
885.524	22402
885.65	22607
885.775	22424
885.9	22485
886.025	22618
886.15	22622
886.275	22344
886.4	22363
886.525	22402
886.65	22424
886.775	22421
886.9	22573
887.025	22683
887.149	22459
887.274	22112
887.399	22139
887.523	22124
887.648	22207
887.773	22097
887.897	22379
888.021	22150
888.146	22112
888.27	22242
888.395	22344
888.519	22223
888.643	22299
888.767	22291
888.891	22109
889.015	22029
889.139	22025
889.263	22059
889.387	21972
889.511	22204
889.635	22177
889.759	21861
889.883	22059
890.006	21873
890.13	21857
890.254	21888
890.377	21835
890.501	21690
890.624	21751
890.748	21819
890.871	21580
890.995	21641
891.118	21580
891.241	21663
891.364	21538
891.488	21682
891.611	21477
891.734	21595
891.857	21466
891.98	21580
892.103	21580
892.226	21561
892.349	21450
892.471	21176
892.594	21572
892.717	21462
892.839	21424
892.962	21405
893.085	21435
893.207	21405
893.33	21306
893.452	21386
893.575	21473
893.697	21428
893.819	21534
893.941	21625
894.064	21545
894.186	21374
894.308	21336
894.43	21435
894.552	21542
894.674	21519
894.796	21264
894.918	21370
895.04	21420
895.161	21511
895.283	21408
895.405	21329
895.526	21351
895.648	21477
895.769	21408
895.891	21340
896.012	21450
896.134	21557
896.255	21515
896.376	21424
896.498	21317
896.619	21435
896.74	21374
896.861	21283
896.982	21629
897.103	21846
897.224	21595
897.345	21663
897.466	21485
897.587	21610
897.708	21663
897.828	21507
897.949	21694
898.07	21321
898.19	21488
898.311	21618
898.431	21599
898.552	21652
898.672	21580
898.792	21660
898.913	21549
899.033	21450
899.153	21492
899.273	21332
899.393	21374
899.513	21249
899.633	21325
899.753	21329
899.873	21359
899.993	21348
900.113	21249
900.232	21233
900.352	21249
900.472	21245
900.591	21058
900.711	21188
900.83	21032
900.95	21249
901.069	21127
901.189	20937
901.308	20686
901.427	20682
901.546	20678
901.665	20636
901.784	20621
901.904	20457
902.023	20259
902.141	20240
902.26	20138
902.379	20377
902.498	20107
902.617	20130
902.735	20199
902.854	20130
902.973	20096
903.091	19769
903.21	19712
903.328	19765
903.446	19616
903.565	19586
903.683	19693
903.801	19533
903.919	19590
904.038	19483
904.156	19354
904.274	19377
904.392	19289
904.51	19278
904.627	19369
904.745	19335
904.863	19365
904.981	19206
905.098	19008
905.216	19038
905.334	19023
905.451	19000
905.569	19015
905.686	19053
905.803	18962
905.921	18757
906.038	18810
906.155	18757
906.272	18692
906.389	18654
906.506	18585
906.623	18506
906.74	18585
906.857	18414
906.974	18395
907.091	18639
907.208	18677
907.324	18498
907.441	18559
907.557	18266
907.674	18315
907.79	18121
907.907	18228
908.023	18300
908.139	18300
908.256	18247
908.372	18076
908.488	18057
908.604	18045
908.72	17980
908.836	17939
908.952	18019
909.068	18019
909.184	17999
909.3	18053
909.415	17969
909.531	17889
909.647	17737
909.762	17596
909.878	17634
909.993	17737
910.108	17543
910.224	17627
910.339	17687
910.454	17425
910.57	17406
910.685	17429
910.8	17634
910.915	17535
911.03	17516
911.145	17269
911.259	17151
911.374	17109
911.489	17178
911.604	17056
911.718	17067
911.833	16942
911.947	16843
912.062	16900
912.176	16919
912.291	16968
912.405	17018
912.519	17151
912.633	17105
912.748	17022
912.862	16892
912.976	16771
913.09	16713
913.204	16748
913.318	16831
913.431	16828
913.545	16919
913.659	16877
913.772	16786
913.886	16660
914	16584
914.113	16641
914.226	16611
914.34	16481
914.453	16470
914.566	16630
914.68	16432
914.793	16367
914.906	16242
915.019	16242
915.132	16010
915.245	16086
915.358	16131
915.47	16116
915.583	16078
915.696	16101
915.809	16253
915.921	16295
916.034	16078
916.146	16006
916.259	15907
916.371	16074
916.483	16006
916.595	15884
916.708	15918
916.82	15911
916.932	15922
917.044	15880
917.156	15838
917.268	15736
917.38	15812
917.491	15778
917.603	15766
917.715	15850
917.826	15865
917.938	15644
918.049	15557
918.161	15690
918.272	15854
918.384	15717
918.495	15690
918.606	15500
918.717	15405
918.828	15561
918.939	15534
919.05	15287
919.161	15466
919.272	15249
919.383	15332
919.494	15485
919.604	15637
919.715	15424
919.826	15355
919.936	15332
920.047	15557
920.157	15408
920.267	15641
920.378	15435
920.488	15386
920.598	15591
920.708	15656
920.818	15530
920.928	15538
921.038	15644
921.148	15564
921.258	15348
921.368	15272
921.477	15146
921.587	15100
921.697	14941
921.806	15199
921.916	14910
922.025	14872
922.134	14743
922.244	14705
922.353	14811
922.462	14648
922.571	14602
922.68	14469
922.789	14423
922.898	14465
923.007	14339
923.116	14412
923.224	14362
923.333	14309
923.442	14275
923.55	14248
923.659	14248
923.767	14381
923.876	14142
923.984	14263
924.092	14111
924.201	14164
924.309	14149
924.417	14161
924.525	13978
924.633	14103
924.741	14826
924.849	13864
924.956	13970
925.064	13883
925.172	13727
925.279	13772
925.387	13795
925.494	13750
925.602	13894
925.709	13841
925.816	13662
925.924	13624
926.031	13788
926.138	13700
926.245	13723
926.352	13537
926.459	13765
926.566	13791
926.673	13651
926.779	13529
926.886	13419
926.993	13415
927.099	13289
927.206	13308
927.312	13175
927.419	13179
927.525	13278
927.631	13312
927.737	13247
927.843	13038
927.95	13061
928.056	13126
928.162	13168
928.267	13209
928.373	13666
928.479	13141
928.585	12939
928.69	13095
928.796	13076
928.901	12996
929.007	12920
929.112	12905
929.218	12897
929.323	12935
929.428	12798
929.533	12993
929.638	12798
929.743	12719
929.848	12741
929.953	12757
930.058	12604
930.163	12437
930.267	12357
930.372	12646
930.477	12407
930.581	12688
930.685	12650
930.79	12369
930.894	12391
930.998	12414
931.103	12441
931.207	12034
931.311	12015
931.415	11927
931.519	11794
931.623	11707
