Data from test_V78500241_2393.txt Node
Date: Fri Mar 25 15:58:22 CST 2022
User: usil
Spectrometer: V785-0024
Trigger mode: 0
Integration Time (sec): 4.000000E-1
Scans to average: 1
Nonlinearity correction enabled: false
Boxcar width: 0
Storing dark spectrum: false
XAxis mode: Wavelengths
Number of Pixels in Spectrum: 1024
>>>>>Begin Spectral Data<<<<<
801.071	28839
801.214	28923
801.356	28687
801.499	28561
801.641	28497
801.783	28474
801.926	28436
802.068	28428
802.211	28424
802.353	28459
802.496	28150
802.638	28131
802.78	28097
802.923	28044
803.065	28131
803.208	28082
803.35	28154
803.492	28238
803.635	28318
803.777	28246
803.919	28455
804.061	28786
804.204	28318
804.346	28257
804.488	28280
804.63	28436
804.773	28363
804.915	28512
805.057	28390
805.199	28443
805.341	28550
805.483	28504
805.626	28573
805.768	28436
805.91	28584
806.052	28592
806.194	28481
806.336	28691
806.478	28413
806.62	28607
806.762	28740
806.904	28888
807.046	29003
807.188	28946
807.33	28991
807.472	29105
807.614	28885
807.756	29052
807.898	28896
808.04	28835
808.182	28919
808.324	28877
808.465	28987
808.607	29105
808.749	29372
808.891	29356
809.033	29341
809.174	29254
809.316	29212
809.458	29216
809.6	29398
809.741	29200
809.883	29425
810.025	29665
810.166	29577
810.308	29528
810.45	29436
810.591	29372
810.733	29124
810.875	29220
811.016	29098
811.158	29109
811.299	29318
811.441	29280
811.582	29528
811.724	29318
811.865	29292
812.007	29204
812.148	29216
812.29	29220
812.431	29406
812.573	29630
812.714	29733
812.855	29809
812.997	29737
813.138	29939
813.279	29832
813.421	29786
813.562	29756
813.703	29672
813.845	29520
813.986	29162
814.127	29075
814.268	29090
814.41	28938
814.551	29022
814.692	29048
814.833	28927
814.974	28980
815.115	29044
815.256	28850
815.397	28816
815.539	28995
815.68	28763
815.821	28618
815.962	28850
816.103	28831
816.244	28752
816.385	28580
816.526	28546
816.666	28516
816.807	28219
816.948	28306
817.089	28344
817.23	28226
817.371	28276
817.512	28287
817.653	28329
817.793	28116
817.934	28280
818.075	28310
818.216	28284
818.356	28360
818.497	28185
818.638	27934
818.778	28101
818.919	28048
819.06	28105
819.2	28246
819.341	28440
819.481	28299
819.622	28379
819.762	28637
819.903	28516
820.043	28584
820.184	28459
820.324	28466
820.465	28516
820.605	28542
820.746	28481
820.886	28352
821.026	28322
821.167	28367
821.307	28352
821.447	28341
821.588	28196
821.728	28112
821.868	28021
822.008	27994
822.149	27698
822.289	27770
822.429	27526
822.569	27412
822.709	27519
822.849	27355
822.99	27321
823.13	27310
823.27	27260
823.41	27291
823.55	26933
823.69	27066
823.83	27184
823.97	27104
824.11	26853
824.25	26838
824.389	26937
824.529	26868
824.669	27062
824.809	27047
824.949	27032
825.089	27093
825.228	26880
825.368	26864
825.508	26636
825.648	26830
825.787	26925
825.927	26982
826.067	26705
826.206	26838
826.346	26883
826.485	26788
826.625	26785
826.765	26918
826.904	26823
827.044	26530
827.183	26583
827.323	26537
827.462	26598
827.601	26522
827.741	26625
827.88	26571
828.02	26389
828.159	26579
828.298	26549
828.437	26438
828.577	26484
828.716	26670
828.855	26526
828.994	26161
829.134	26149
829.273	26237
829.412	26218
829.551	26252
829.69	26210
829.829	26195
829.968	26244
830.107	26275
830.246	26199
830.385	26187
830.524	26043
830.663	26046
830.802	25887
830.941	25761
831.08	25803
831.219	25917
831.357	25944
831.496	26103
831.635	25822
831.774	25772
831.913	25635
832.051	25632
832.19	25632
832.329	25639
832.467	25567
832.606	25407
832.744	25457
832.883	25438
833.022	25510
833.16	25483
833.299	25594
833.437	25514
833.576	25506
833.714	25525
833.852	25499
833.991	25704
834.129	25723
834.267	25677
834.406	25472
834.544	25510
834.682	25635
834.821	25468
834.959	25689
835.097	25415
835.235	25601
835.373	25544
835.511	25635
835.65	25464
835.788	25457
835.926	25278
836.064	25069
836.202	25202
836.34	25346
836.478	25403
836.615	25350
836.753	25392
836.891	25392
837.029	25495
837.167	25384
837.305	25278
837.443	25148
837.58	25133
837.718	25255
837.856	25331
837.993	25099
838.131	25129
838.269	25000
838.406	25198
838.544	24947
838.681	24833
838.819	24795
838.956	24665
839.094	24650
839.231	24715
839.369	24806
839.506	25141
839.643	25069
839.781	24760
839.918	24570
840.055	24612
840.193	24631
840.33	24582
840.467	24623
840.604	24570
840.742	24802
840.879	24433
841.016	24426
841.153	24563
841.29	24631
841.427	24467
841.564	24517
841.701	24426
841.838	24464
841.975	24502
842.112	24433
842.249	24395
842.385	24365
842.522	24582
842.659	24388
842.796	24319
842.933	24338
843.069	24190
843.206	24285
843.343	24391
843.479	24327
843.616	24342
843.752	24136
843.889	23999
844.025	24197
844.162	24182
844.298	24171
844.435	24003
844.571	24007
844.708	24136
844.844	24064
844.98	24304
845.117	24148
845.253	23889
845.389	24079
845.525	23965
845.661	23996
845.798	23775
845.934	23832
846.07	23786
846.206	23760
846.342	23870
846.478	23809
846.614	23562
846.75	23368
846.886	23455
847.022	23661
847.158	23611
847.294	23596
847.429	23630
847.565	23672
847.701	23752
847.837	23299
847.972	23277
848.108	23376
848.244	23360
848.379	23216
848.515	23204
848.65	23109
848.786	23178
848.921	23178
849.057	23235
849.192	23204
849.328	23121
849.463	22999
849.598	23109
849.734	22991
849.869	22965
850.004	22972
850.14	22877
850.275	23041
850.41	22850
850.545	22653
850.68	22885
850.815	22930
850.95	22862
851.085	23098
851.22	22957
851.355	22885
851.49	22911
851.625	22862
851.76	22896
851.895	22752
852.03	22831
852.165	22885
852.299	22968
852.434	22965
852.569	22896
852.703	22862
852.838	22866
852.973	23102
853.107	22915
853.242	22755
853.376	22790
853.511	22630
853.645	22645
853.78	22881
853.914	22683
854.048	22668
854.183	22744
854.317	22736
854.451	22915
854.585	22656
854.72	22759
854.854	22748
854.988	22736
855.122	22809
855.256	22683
855.39	22687
855.524	22759
855.658	22733
855.792	22755
855.926	22736
856.06	22748
856.194	22790
856.327	22679
856.461	22717
856.595	22645
856.729	22755
856.862	22713
856.996	22752
857.13	22805
857.263	22812
857.397	22691
857.53	22694
857.664	22706
857.797	22805
857.931	22752
858.064	22748
858.197	22656
858.331	22729
858.464	22740
858.597	22557
858.731	22771
858.864	22778
858.997	22557
859.13	22683
859.263	22721
859.396	22721
859.529	22603
859.662	22755
859.795	22512
859.928	22672
860.061	22957
860.194	22915
860.327	22771
860.46	22797
860.592	22786
860.725	22965
860.858	22717
860.99	22721
861.123	22618
861.256	22702
861.388	22672
861.521	23398
861.653	22504
861.786	22500
861.918	22516
862.05	22519
862.183	22622
862.315	22713
862.447	22664
862.58	22637
862.712	22341
862.844	22356
862.976	22546
863.108	22535
863.24	22866
863.372	22402
863.504	22390
863.636	22512
863.768	22497
863.9	22356
864.032	22284
864.164	22478
864.296	22348
864.428	22451
864.559	22519
864.691	22550
864.823	22546
864.954	22470
865.086	22382
865.217	22303
865.349	22287
865.48	22379
865.612	22219
865.743	22390
865.875	22409
866.006	22234
866.137	22230
866.269	22253
866.4	22344
866.531	22185
866.662	22211
866.793	22207
866.924	22280
867.055	22196
867.186	22284
867.317	22234
867.448	22143
867.579	22188
867.71	22143
867.841	22143
867.972	22234
868.103	22223
868.233	22143
868.364	22287
868.495	22265
868.625	22402
868.756	22462
868.886	22371
869.017	22436
869.147	22485
869.278	22470
869.408	22508
869.539	22325
869.669	22470
869.799	22417
869.929	22527
870.06	22573
870.19	22740
870.32	22736
870.45	22847
870.58	22938
870.71	22938
870.84	22968
870.97	22984
871.1	22904
871.23	22942
871.36	22949
871.489	22938
871.619	22984
871.749	23033
871.879	23048
872.008	23159
872.138	23056
872.267	23048
872.397	23010
872.526	22862
872.656	22900
872.785	22767
872.915	23159
873.044	23132
873.173	23006
873.303	23159
873.432	23083
873.561	23178
873.69	23128
873.819	23079
873.948	23143
874.077	23105
874.206	23048
874.335	23075
874.464	23159
874.593	23292
874.722	23231
874.851	23235
874.979	23318
875.108	23379
875.237	23330
875.365	23216
875.494	23197
875.623	23414
875.751	23258
875.88	23280
876.008	23425
876.136	23467
876.265	23691
876.393	23786
876.521	23665
876.65	23847
876.778	23729
876.906	23558
877.034	23661
877.162	23687
877.29	23493
877.418	23657
877.546	23649
877.674	23589
877.802	23539
877.93	23600
878.058	23699
878.185	23493
878.313	23531
878.441	23611
878.568	23433
878.696	23554
878.824	23615
878.951	23764
879.079	23779
879.206	23859
879.333	23741
879.461	23684
879.588	23707
879.715	23764
879.842	23996
879.97	23741
880.097	23455
880.224	23452
880.351	23421
880.478	23539
880.605	23497
880.732	23296
880.859	23600
880.986	23372
881.112	23452
881.239	23318
881.366	23223
881.493	23113
881.619	23090
881.746	22999
881.872	22930
881.999	23048
882.125	22927
882.252	22938
882.378	22972
882.505	23216
882.631	22961
882.757	22748
882.883	22850
883.01	22713
883.136	22535
883.262	22523
883.388	22535
883.514	22744
883.64	22637
883.766	22607
883.892	22413
884.018	22394
884.143	22577
884.269	22634
884.395	22287
884.52	22287
884.646	22295
884.772	22169
884.897	22226
885.023	22185
885.148	22409
885.274	22538
885.399	22371
885.524	22246
885.65	22405
885.775	22268
885.9	22333
886.025	22337
886.15	22390
886.275	22230
886.4	22207
886.525	22329
886.65	22131
886.775	22128
886.9	22348
887.025	22428
887.149	22200
887.274	22032
887.399	22082
887.523	22040
887.648	22025
887.773	22029
887.897	22078
888.021	22040
888.146	22097
888.27	22188
888.395	22211
888.519	22078
888.643	22082
888.767	22112
888.891	21998
889.015	21835
889.139	21888
889.263	21854
889.387	21850
889.511	22025
889.635	21915
889.759	21846
889.883	21816
890.006	21892
890.13	21987
890.254	21831
890.377	21679
890.501	21713
890.624	21534
890.748	21652
890.871	21378
890.995	21389
891.118	21264
891.241	21469
891.364	21393
891.488	21431
891.611	21359
891.734	21401
891.857	21401
891.98	21416
892.103	21485
892.226	21393
892.349	21245
892.471	21184
892.594	21332
892.717	21321
892.839	21363
892.962	21412
893.085	21344
893.207	21359
893.33	21176
893.452	21119
893.575	21340
893.697	21245
893.819	21355
893.941	21481
894.064	21473
894.186	21184
894.308	21252
894.43	21329
894.552	21488
894.674	21272
894.796	21176
894.918	21302
895.04	21222
895.161	21218
895.283	21310
895.405	21142
895.526	21176
895.648	21249
895.769	21336
895.891	21199
896.012	21363
896.134	21313
896.255	21237
896.376	21207
896.498	21306
896.619	21287
896.74	21154
896.861	21317
896.982	21561
897.103	21709
897.224	21481
897.345	21420
897.466	21313
897.587	21367
897.708	21500
897.828	21591
897.949	21420
898.07	21275
898.19	21325
898.311	21633
898.431	21431
898.552	21420
898.672	21424
898.792	21583
898.913	21496
899.033	21264
899.153	21188
899.273	21062
899.393	21226
899.513	21252
899.633	21169
899.753	21173
899.873	21173
899.993	21241
900.113	21131
900.232	21116
900.352	21104
900.472	20971
900.591	20845
900.711	20952
900.83	20891
900.95	20979
901.069	21001
901.189	20769
901.308	20674
901.427	20613
901.546	20526
901.665	20499
901.784	20434
901.904	20343
902.023	20229
902.141	20100
902.26	20073
902.379	20088
902.498	19864
902.617	19921
902.735	19993
902.854	20081
902.973	19883
903.091	19700
903.21	19674
903.328	19601
903.446	19582
903.565	19434
903.683	19422
903.801	19354
903.919	19426
904.038	19441
904.156	19274
904.274	19320
904.392	19251
904.51	19095
904.627	19228
904.745	19236
904.863	19206
904.981	19053
905.098	18840
905.216	18935
905.334	18970
905.451	18802
905.569	18852
905.686	19008
905.803	18852
905.921	18753
906.038	18753
906.155	18589
906.272	18623
906.389	18391
906.506	18437
906.623	18403
906.74	18426
906.857	18262
906.974	18266
907.091	18426
907.208	18467
907.324	18494
907.441	18205
907.557	18311
907.674	18091
907.79	18079
907.907	18133
908.023	18171
908.139	18102
908.256	17965
908.372	17908
908.488	18003
908.604	17878
908.72	17851
908.836	17775
908.952	17710
909.068	17767
909.184	17897
909.3	17851
909.415	17980
909.531	17878
909.647	17615
909.762	17528
909.878	17554
909.993	17543
910.108	17528
910.224	17474
910.339	17554
910.454	17334
910.57	17364
910.685	17277
910.8	17478
910.915	17444
911.03	17303
911.145	17208
911.259	17098
911.374	17075
911.489	17029
911.604	16930
911.718	16748
911.833	16812
911.947	16736
912.062	16725
912.176	16869
912.291	16858
912.405	16824
912.519	17014
912.633	16972
912.748	16904
912.862	16839
912.976	16725
913.09	16630
913.204	16664
913.318	16729
913.431	16725
913.545	16641
913.659	16866
913.772	16668
913.886	16417
914	16459
914.113	16535
914.226	16500
914.34	16500
914.453	16390
914.566	16398
914.68	16268
914.793	16238
914.906	15994
915.019	16154
915.132	15873
915.245	16040
915.358	16051
915.47	15987
915.583	15949
915.696	16055
915.809	16109
915.921	16200
916.034	16036
916.146	15865
916.259	15804
916.371	15892
916.483	15998
916.595	15842
916.708	15747
916.82	15854
916.932	15778
917.044	15774
917.156	15728
917.268	15728
917.38	15614
917.491	15644
917.603	15576
917.715	15618
917.826	15705
917.938	15599
918.049	15473
918.161	15587
918.272	15713
918.384	15663
918.495	15603
918.606	15435
918.717	15401
918.828	15454
918.939	15389
919.05	15249
919.161	15340
919.272	15192
919.383	15245
919.494	15492
919.604	15599
919.715	15348
919.826	15249
919.936	15313
920.047	15412
920.157	15298
920.267	15416
920.378	15367
920.488	15302
920.598	15507
920.708	15564
920.818	15431
920.928	15481
921.038	15557
921.148	15443
921.258	15218
921.368	15146
921.477	15116
921.587	15093
921.697	14811
921.806	15001
921.916	14967
922.025	14674
922.134	14686
922.244	14659
922.353	14686
922.462	14594
922.571	14499
922.68	14332
922.789	14339
922.898	14256
923.007	14244
923.116	14332
923.224	14244
923.333	14180
923.442	14153
923.55	14176
923.659	14119
923.767	14134
923.876	14050
923.984	14115
924.092	14088
924.201	13997
924.309	14043
924.417	14096
924.525	13879
924.633	13982
924.741	14899
924.849	13746
924.956	13944
925.064	13746
925.172	13567
925.279	13636
925.387	13742
925.494	13685
925.602	13837
925.709	13719
925.816	13563
925.924	13533
926.031	13723
926.138	13548
926.245	13662
926.352	13495
926.459	13681
926.566	13628
926.673	13506
926.779	13468
926.886	13411
926.993	13221
927.099	13270
927.206	13114
927.312	13099
927.419	13213
927.525	13190
927.631	13213
927.737	13088
927.843	12977
927.95	12947
928.056	12981
928.162	13091
928.267	13046
928.373	13704
928.479	13110
928.585	12833
928.69	12958
928.796	12989
928.901	12833
929.007	12760
929.112	12848
929.218	12848
929.323	12783
929.428	12703
929.533	12802
929.638	12639
929.743	12639
929.848	12688
929.953	12589
930.058	12532
930.163	12414
930.267	12486
930.372	12563
930.477	12426
930.581	12570
930.685	12388
930.79	12213
930.894	12292
930.998	12327
931.103	12456
931.207	12015
931.311	11897
931.415	11882
931.519	11695
931.623	11676
