Data from test_V78500241_3271.txt Node
Date: Fri Mar 25 16:04:27 CST 2022
User: usil
Spectrometer: V785-0024
Trigger mode: 0
Integration Time (sec): 4.000000E-1
Scans to average: 1
Nonlinearity correction enabled: false
Boxcar width: 0
Storing dark spectrum: false
XAxis mode: Wavelengths
Number of Pixels in Spectrum: 1024
>>>>>Begin Spectral Data<<<<<
801.071	28223
801.214	28044
801.356	28048
801.499	27998
801.641	28063
801.783	27846
801.926	27892
802.068	27907
802.211	27869
802.353	27819
802.496	27667
802.638	27599
802.78	27542
802.923	27462
803.065	27386
803.208	27405
803.35	27557
803.492	27778
803.635	27679
803.777	27671
803.919	27808
804.061	28101
804.204	27770
804.346	27717
804.488	27808
804.63	27656
804.773	27728
804.915	27888
805.057	27892
805.199	27846
805.341	27880
805.483	27903
805.626	27899
805.768	27793
805.91	28010
806.052	27869
806.194	27983
806.336	28032
806.478	28013
806.62	27869
806.762	28048
806.904	28112
807.046	28318
807.188	28421
807.33	28455
807.472	28375
807.614	28436
807.756	28272
807.898	28207
808.04	28105
808.182	28207
808.324	28253
808.465	28242
808.607	28504
808.749	28527
808.891	28599
809.033	28694
809.174	28725
809.316	28527
809.458	28584
809.6	28611
809.741	28653
809.883	28816
810.025	28984
810.166	28961
810.308	28888
810.45	28919
810.591	28850
810.733	28736
810.875	28592
811.016	28462
811.158	28462
811.299	28653
811.441	28774
811.582	28797
811.724	28535
811.865	28508
812.007	28599
812.148	28546
812.29	28599
812.431	28748
812.573	28991
812.714	29075
812.855	29075
812.997	29296
813.138	29364
813.279	29227
813.421	29098
813.562	29033
813.703	29018
813.845	28839
813.986	28592
814.127	28569
814.268	28295
814.41	28470
814.551	28303
814.692	28401
814.833	28310
814.974	28238
815.115	28356
815.256	28276
815.397	28185
815.539	28196
815.68	28086
815.821	27979
815.962	28040
816.103	28097
816.244	27998
816.385	27945
816.526	27823
816.666	27663
816.807	27561
816.948	27686
817.089	27797
817.23	27671
817.371	27595
817.512	27591
817.653	27682
817.793	27583
817.934	27534
818.075	27625
818.216	27625
818.356	27481
818.497	27572
818.638	27382
818.778	27359
818.919	27363
819.06	27466
819.2	27507
819.341	27701
819.481	27583
819.622	27797
819.762	28032
819.903	27854
820.043	27907
820.184	27823
820.324	27679
820.465	27873
820.605	27907
820.746	27641
820.886	27622
821.026	27747
821.167	27774
821.307	27667
821.447	27739
821.588	27557
821.728	27458
821.868	27317
822.008	27135
822.149	27108
822.289	27085
822.429	26735
822.569	26823
822.709	26678
822.849	26648
822.99	26678
823.13	26571
823.27	26579
823.41	26530
823.55	26453
823.69	26305
823.83	26324
823.97	26336
824.11	26187
824.25	26362
824.389	26126
824.529	26252
824.669	26180
824.809	26434
824.949	26286
825.089	26343
825.228	26294
825.368	26122
825.508	26084
825.648	26161
825.787	26111
825.927	26237
826.067	26221
826.206	26073
826.346	26221
826.485	26214
826.625	26149
826.765	26355
826.904	26183
827.044	26005
827.183	25925
827.323	25887
827.462	25902
827.601	25894
827.741	25902
827.88	25845
828.02	25734
828.159	25776
828.298	25868
828.437	25852
828.577	25750
828.716	25951
828.855	25742
828.994	25453
829.134	25594
829.273	25502
829.412	25430
829.551	25495
829.69	25445
829.829	25548
829.968	25521
830.107	25544
830.246	25415
830.385	25468
830.524	25491
830.663	25346
830.802	25198
830.941	25019
831.08	25023
831.219	25225
831.357	25187
831.496	25381
831.635	25133
831.774	25046
831.913	25027
832.051	24894
832.19	24852
832.329	24973
832.467	24833
832.606	24730
832.744	24787
832.883	24821
833.022	24871
833.16	24856
833.299	24772
833.437	24814
833.576	24909
833.714	24863
833.852	24901
833.991	24844
834.129	25027
834.267	24962
834.406	24928
834.544	24867
834.682	24924
834.821	24867
834.959	25065
835.097	24802
835.235	24875
835.373	24817
835.511	25012
835.65	24741
835.788	24867
835.926	24559
836.064	24544
836.202	24395
836.34	24669
836.478	24757
836.615	24665
836.753	24890
836.891	24707
837.029	24601
837.167	24684
837.305	24639
837.443	24555
837.58	24498
837.718	24658
837.856	24486
837.993	24525
838.131	24582
838.269	24342
838.406	24475
838.544	24323
838.681	24266
838.819	24167
838.956	24011
839.094	23977
839.231	24152
839.369	24251
839.506	24403
839.643	24213
839.781	24003
839.918	24003
840.055	23980
840.193	23988
840.33	23817
840.467	23950
840.604	23999
840.742	24228
840.879	23775
841.016	23885
841.153	23824
841.29	24003
841.427	23874
841.564	23996
841.701	23836
841.838	23783
841.975	23779
842.112	23836
842.249	23691
842.385	23779
842.522	23999
842.659	23786
842.796	23672
842.933	23726
843.069	23714
843.206	23623
843.343	23627
843.479	23615
843.616	23577
843.752	23497
843.889	23558
844.025	23596
844.162	23299
844.298	23604
844.435	23444
844.571	23398
844.708	23505
844.844	23630
844.98	23680
845.117	23440
845.253	23395
845.389	23261
845.525	23334
845.661	23376
845.798	23181
845.934	23239
846.07	23170
846.206	23227
846.342	23296
846.478	23284
846.614	23048
846.75	22869
846.886	22843
847.022	23014
847.158	23006
847.294	22881
847.429	23056
847.565	22904
847.701	23124
847.837	22675
847.972	22782
848.108	22843
848.244	22672
848.379	22634
848.515	22440
848.65	22462
848.786	22447
848.921	22413
849.057	22565
849.192	22527
849.328	22519
849.463	22462
849.598	22272
849.734	22382
849.869	22432
850.004	22265
850.14	22261
850.275	22325
850.41	22166
850.545	22325
850.68	22158
850.815	22226
850.95	22382
851.085	22504
851.22	22314
851.355	22341
851.49	22265
851.625	22200
851.76	22181
851.895	22135
852.03	22185
852.165	22322
852.299	22360
852.434	22379
852.569	22382
852.703	22348
852.838	22329
852.973	22371
853.107	22314
853.242	22219
853.376	22021
853.511	22032
853.645	22070
853.78	22166
853.914	22105
854.048	22105
854.183	22025
854.317	22074
854.451	22177
854.585	22036
854.72	22276
854.854	22166
854.988	22067
855.122	22082
855.256	21991
855.39	22105
855.524	22090
855.658	22185
855.792	21991
855.926	22112
856.06	22070
856.194	22162
856.327	21953
856.461	21987
856.595	22112
856.729	22139
856.862	22261
856.996	22097
857.13	21991
857.263	22154
857.397	22169
857.53	22059
857.664	22074
857.797	22177
857.931	22196
858.064	22169
858.197	22181
858.331	22032
858.464	22013
858.597	22025
858.731	22010
858.864	22002
858.997	21945
859.13	22173
859.263	22112
859.396	22169
859.529	22112
859.662	22006
859.795	22051
859.928	22200
860.061	22120
860.194	22173
860.327	22185
860.46	22109
860.592	22253
860.725	22402
860.858	22192
860.99	22131
861.123	21964
861.256	22063
861.388	22048
861.521	22797
861.653	21960
861.786	21831
861.918	21964
862.05	21964
862.183	21983
862.315	22029
862.447	21987
862.58	21964
862.712	21701
862.844	21835
862.976	22002
863.108	21876
863.24	22128
863.372	21751
863.504	21918
863.636	21778
863.768	21831
863.9	21808
864.032	21751
864.164	21698
864.296	21842
864.428	21915
864.559	21918
864.691	21762
864.823	21823
864.954	21694
865.086	21747
865.217	21705
865.349	21701
865.48	21690
865.612	21705
865.743	21808
865.875	21656
866.006	21587
866.137	21625
866.269	21637
866.4	21736
866.531	21580
866.662	21595
866.793	21660
866.924	21538
867.055	21679
867.186	21648
867.317	21481
867.448	21603
867.579	21675
867.71	21500
867.841	21492
867.972	21656
868.103	21545
868.233	21587
868.364	21606
868.495	21812
868.625	21857
868.756	21937
868.886	21751
869.017	21911
869.147	22002
869.278	21922
869.408	21861
869.539	21937
869.669	21911
869.799	21926
869.929	21998
870.06	21926
870.19	22158
870.32	22128
870.45	22169
870.58	22280
870.71	22268
870.84	22398
870.97	22257
871.1	22226
871.23	22459
871.36	22348
871.489	22306
871.619	22424
871.749	22508
871.879	22493
872.008	22664
872.138	22481
872.267	22634
872.397	22421
872.526	22215
872.656	22333
872.785	22272
872.915	22470
873.044	22485
873.173	22481
873.303	22493
873.432	22470
873.561	22672
873.69	22542
873.819	22447
873.948	22554
874.077	22535
874.206	22375
874.335	22550
874.464	22596
874.593	22660
874.722	22641
874.851	22698
874.979	22721
875.108	22733
875.237	22599
875.365	22550
875.494	22672
875.623	22809
875.751	22649
875.88	22786
876.008	22752
876.136	22881
876.265	23018
876.393	23174
876.521	23029
876.65	23185
876.778	23117
876.906	23025
877.034	22946
877.162	22999
877.29	22919
877.418	23041
877.546	23025
877.674	23098
877.802	23102
877.93	22991
878.058	23018
878.185	22919
878.313	22942
878.441	22961
878.568	22900
878.696	22881
878.824	22991
878.951	23128
879.079	23220
879.206	23299
879.333	23265
879.461	23140
879.588	23105
879.715	23261
879.842	23307
879.97	23121
880.097	22904
880.224	22793
880.351	22968
880.478	22801
880.605	22752
880.732	22908
880.859	23033
880.986	22858
881.112	22778
881.239	22740
881.366	22664
881.493	22421
881.619	22402
881.746	22394
881.872	22497
881.999	22542
882.125	22462
882.252	22538
882.378	22459
882.505	22485
882.631	22299
882.757	22192
882.883	22284
883.01	22120
883.136	22059
883.262	21945
883.388	21994
883.514	22017
883.64	22124
883.766	21934
883.892	21926
884.018	21865
884.143	22006
884.269	22154
884.395	21819
884.52	21694
884.646	21838
884.772	21660
884.897	21637
885.023	21884
885.148	21789
885.274	21831
885.399	21831
885.524	21751
885.65	21797
885.775	21629
885.9	21804
886.025	21789
886.15	21785
886.275	21603
886.4	21698
886.525	21599
886.65	21549
886.775	21690
886.9	21816
887.025	21835
887.149	21622
887.274	21473
887.399	21580
887.523	21466
887.648	21504
887.773	21542
887.897	21610
888.021	21599
888.146	21504
888.27	21492
888.395	21519
888.519	21428
888.643	21458
888.767	21542
888.891	21420
889.015	21173
889.139	21233
889.263	21321
889.387	21530
889.511	21492
889.635	21439
889.759	21230
889.883	21416
890.006	21272
890.13	21348
890.254	21245
890.377	21180
890.501	21077
890.624	21028
890.748	20990
890.871	20990
890.995	20800
891.118	20883
891.241	20895
891.364	20857
891.488	20937
891.611	20899
891.734	20960
891.857	20906
891.98	20979
892.103	20921
892.226	20910
892.349	20739
892.471	20716
892.594	20746
892.717	20746
892.839	20804
892.962	20758
893.085	20914
893.207	20765
893.33	20629
893.452	20838
893.575	20739
893.697	20743
893.819	20876
893.941	20914
894.064	20880
894.186	20777
894.308	20594
894.43	20872
894.552	20918
894.674	20807
894.796	20758
894.918	20705
895.04	20632
895.161	20815
895.283	20815
895.405	20674
895.526	20845
895.648	20594
895.769	20689
895.891	20663
896.012	20815
896.134	20781
896.255	20792
896.376	20708
896.498	20697
896.619	20773
896.74	20617
896.861	20727
896.982	21077
897.103	21169
897.224	21043
897.345	20830
897.466	20701
897.587	20910
897.708	21028
897.828	20899
897.949	20902
898.07	20834
898.19	20853
898.311	21020
898.431	20864
898.552	20902
898.672	21157
898.792	21062
898.913	20857
899.033	20868
899.153	20697
899.273	20644
899.393	20648
899.513	20762
899.633	20629
899.753	20708
899.873	20613
899.993	20739
900.113	20609
900.232	20625
900.352	20651
900.472	20549
900.591	20492
900.711	20518
900.83	20400
900.95	20488
901.069	20461
901.189	20351
901.308	20161
901.427	19997
901.546	20065
901.665	19959
901.784	20050
901.904	19921
902.023	19765
902.141	19750
902.26	19704
902.379	19715
902.498	19499
902.617	19590
902.735	19700
902.854	19460
902.973	19453
903.091	19247
903.21	19308
903.328	19183
903.446	19069
903.565	18989
903.683	18943
903.801	18897
903.919	18897
904.038	18932
904.156	18920
904.274	18886
904.392	18749
904.51	18749
904.627	18745
904.745	18814
904.863	18814
904.981	18589
905.098	18414
905.216	18429
905.334	18551
905.451	18555
905.569	18433
905.686	18399
905.803	18304
905.921	18239
906.038	18232
906.155	18266
906.272	18216
906.389	18110
906.506	17999
906.623	17950
906.74	18038
906.857	17798
906.974	17950
907.091	17977
907.208	18152
907.324	18015
907.441	17863
907.557	17756
907.674	17726
907.79	17680
907.907	17676
908.023	17562
908.139	17695
908.256	17592
908.372	17429
908.488	17581
908.604	17433
908.72	17410
908.836	17326
908.952	17474
909.068	17448
909.184	17436
909.3	17368
909.415	17417
909.531	17402
909.647	17109
909.762	17147
909.878	17086
909.993	17151
910.108	17151
910.224	17094
910.339	17033
910.454	16858
910.57	16957
910.685	16816
910.8	17178
910.915	17029
911.03	16869
911.145	16736
911.259	16615
911.374	16630
911.489	16478
911.604	16569
911.718	16409
911.833	16394
911.947	16303
912.062	16268
912.176	16413
912.291	16443
912.405	16413
912.519	16607
912.633	16645
912.748	16455
912.862	16314
912.976	16219
913.09	16112
913.204	16188
913.318	16219
913.431	16287
913.545	16219
913.659	16310
913.772	16147
913.886	15979
914	15968
914.113	16036
914.226	16150
914.34	16078
914.453	15949
914.566	16021
914.68	15975
914.793	15789
914.906	15717
915.019	15534
915.132	15572
915.245	15561
915.358	15675
915.47	15587
915.583	15637
915.696	15675
915.809	15713
915.921	15728
916.034	15534
916.146	15561
916.259	15504
916.371	15580
916.483	15443
916.595	15504
916.708	15355
916.82	15420
916.932	15466
917.044	15378
917.156	15370
917.268	15230
917.38	15264
917.491	15184
917.603	15272
917.715	15287
917.826	15359
917.938	15150
918.049	15047
918.161	15222
918.272	15268
918.384	15310
918.495	15203
918.606	15020
918.717	14956
918.828	15047
918.939	15032
919.05	14937
919.161	14975
919.272	14735
919.383	14891
919.494	14944
919.604	15093
919.715	14986
919.826	14925
919.936	14933
920.047	14933
920.157	14925
920.267	15146
920.378	14845
920.488	14998
920.598	15116
920.708	15272
920.818	15047
920.928	15077
921.038	15131
921.148	15154
921.258	14861
921.368	14804
921.477	14746
921.587	14712
921.697	14533
921.806	14663
921.916	14533
922.025	14423
922.134	14473
922.244	14256
922.353	14377
922.462	14214
922.571	14153
922.68	14054
922.789	14016
922.898	13963
923.007	13894
923.116	13932
923.224	13959
923.333	13902
923.442	13814
923.55	13693
923.659	13845
923.767	13799
923.876	13769
923.984	13856
924.092	13685
924.201	13666
924.309	13723
924.417	13677
924.525	13578
924.633	13639
924.741	14446
924.849	13377
924.956	13533
925.064	13396
925.172	13327
925.279	13293
925.387	13331
925.494	13285
925.602	13445
925.709	13285
925.816	13198
925.924	13244
926.031	13282
926.138	13327
926.245	13358
926.352	13069
926.459	13381
926.566	13327
926.673	13259
926.779	13228
926.886	13080
926.993	12970
927.099	12924
927.206	12913
927.312	12837
927.419	12859
927.525	12840
927.631	12863
927.737	12749
927.843	12760
927.95	12612
928.056	12757
928.162	12741
928.267	12837
928.373	13247
928.479	12806
928.585	12536
928.69	12700
928.796	12715
928.901	12597
929.007	12490
929.112	12570
929.218	12471
929.323	12403
929.428	12403
929.533	12570
929.638	12289
929.743	12342
929.848	12327
929.953	12327
930.058	12296
930.163	12091
930.267	12102
930.372	12254
930.477	12041
930.581	12296
930.685	12114
930.79	11965
930.894	12011
930.998	11999
931.103	12034
931.207	11726
931.311	11646
931.415	11630
931.519	11467
931.623	11421
