Data from test_V78500241_810.txt Node
Date: Fri Mar 25 15:47:24 CST 2022
User: usil
Spectrometer: V785-0024
Trigger mode: 0
Integration Time (sec): 4.000000E-1
Scans to average: 1
Nonlinearity correction enabled: false
Boxcar width: 0
Storing dark spectrum: false
XAxis mode: Wavelengths
Number of Pixels in Spectrum: 1024
>>>>>Begin Spectral Data<<<<<
801.071	28006
801.214	27983
801.356	27553
801.499	27603
801.641	27633
801.783	27439
801.926	27553
802.068	27542
802.211	27325
802.353	27481
802.496	27268
802.638	27180
802.78	27062
802.923	27214
803.065	27047
803.208	27135
803.35	27287
803.492	27306
803.635	27401
803.777	27291
803.919	27412
804.061	27728
804.204	27572
804.346	27283
804.488	27382
804.63	27211
804.773	27237
804.915	27408
805.057	27473
805.199	27393
805.341	27553
805.483	27603
805.626	27412
805.768	27458
805.91	27401
806.052	27519
806.194	27378
806.336	27747
806.478	27625
806.62	27443
806.762	27694
806.904	27846
807.046	28013
807.188	27930
807.33	27838
807.472	27949
807.614	27854
807.756	27842
807.898	27873
808.04	27603
808.182	27698
808.324	27850
808.465	27975
808.607	27907
808.749	28082
808.891	28207
809.033	28329
809.174	28257
809.316	28192
809.458	28154
809.6	28253
809.741	28325
809.883	28360
810.025	28580
810.166	28325
810.308	28398
810.45	28443
810.591	28276
810.733	28265
810.875	28192
811.016	28067
811.158	28120
811.299	28333
811.441	28325
811.582	28424
811.724	28223
811.865	28105
812.007	28192
812.148	28192
812.29	28070
812.431	28352
812.573	28573
812.714	28580
812.855	28824
812.997	28820
813.138	28965
813.279	28900
813.421	28710
813.562	28687
813.703	28577
813.845	28375
813.986	28135
814.127	28021
814.268	27991
814.41	28006
814.551	27869
814.692	27953
814.833	27926
814.974	27835
815.115	27861
815.256	27720
815.397	27728
815.539	27793
815.68	27671
815.821	27667
815.962	27610
816.103	27625
816.244	27523
816.385	27534
816.526	27515
816.666	27169
816.807	27176
816.948	27275
817.089	27298
817.23	27230
817.371	27142
817.512	27195
817.653	27188
817.793	27127
817.934	27310
818.075	27272
818.216	27218
818.356	27096
818.497	27039
818.638	26857
818.778	26830
818.919	26998
819.06	27005
819.2	27051
819.341	27203
819.481	27192
819.622	27260
819.762	27542
819.903	27336
820.043	27348
820.184	27329
820.324	27275
820.465	27336
820.605	27336
820.746	27370
820.886	27173
821.026	27230
821.167	27264
821.307	27329
821.447	27146
821.588	27157
821.728	26925
821.868	26876
822.008	26689
822.149	26693
822.289	26659
822.429	26305
822.569	26450
822.709	26324
822.849	26065
822.99	26134
823.13	26107
823.27	26103
823.41	26005
823.55	25883
823.69	26020
823.83	25928
823.97	25986
824.11	25807
824.25	25776
824.389	25799
824.529	25955
824.669	25761
824.809	25955
824.949	25887
825.089	25811
825.228	25772
825.368	25772
825.508	25616
825.648	25666
825.787	25791
825.927	25776
826.067	25567
826.206	25662
826.346	25693
826.485	25689
826.625	25681
826.765	25708
826.904	25685
827.044	25525
827.183	25502
827.323	25316
827.462	25476
827.601	25472
827.741	25343
827.88	25354
828.02	25251
828.159	25335
828.298	25502
828.437	25445
828.577	25251
828.716	25460
828.855	25301
828.994	25266
829.134	25046
829.273	25156
829.412	25053
829.551	25023
829.69	25202
829.829	25122
829.968	25088
830.107	25126
830.246	25046
830.385	24909
830.524	24981
830.663	25008
830.802	24821
830.941	24757
831.08	24696
831.219	24795
831.357	24897
831.496	24878
831.635	24684
831.774	24745
831.913	24601
832.051	24570
832.19	24464
832.329	24505
832.467	24433
832.606	24289
832.744	24270
832.883	24426
833.022	24410
833.16	24494
833.299	24437
833.437	24266
833.576	24460
833.714	24475
833.852	24574
833.991	24418
834.129	24376
834.267	24505
834.406	24357
834.544	24403
834.682	24479
834.821	24376
834.959	24525
835.097	24327
835.235	24365
835.373	24395
835.511	24384
835.65	24388
835.788	24296
835.926	24178
836.064	24098
836.202	24091
836.34	24174
836.478	24365
836.615	24281
836.753	24262
836.891	24338
837.029	24311
837.167	24209
837.305	24167
837.443	24163
837.58	24022
837.718	24098
837.856	24152
837.993	24022
838.131	24171
838.269	23961
838.406	24125
838.544	23908
838.681	23809
838.819	23661
838.956	23516
839.094	23512
839.231	23611
839.369	23649
839.506	23942
839.643	23847
839.781	23710
839.918	23589
840.055	23505
840.193	23604
840.33	23512
840.467	23421
840.604	23619
840.742	23726
840.879	23337
841.016	23581
841.153	23478
841.29	23589
841.427	23349
841.564	23436
841.701	23486
841.838	23463
841.975	23421
842.112	23410
842.249	23334
842.385	23296
842.522	23433
842.659	23406
842.796	23155
842.933	23159
843.069	23098
843.206	23322
843.343	23414
843.479	23311
843.616	23250
843.752	23060
843.889	23029
844.025	23022
844.162	23075
844.298	23041
844.435	23117
844.571	23029
844.708	22968
844.844	23064
844.98	23094
845.117	23037
845.253	22930
845.389	22889
845.525	22991
845.661	22911
845.798	22733
845.934	22771
846.07	22687
846.206	22881
846.342	22889
846.478	22733
846.614	22485
846.75	22478
846.886	22455
847.022	22584
847.158	22436
847.294	22516
847.429	22424
847.565	22451
847.701	22713
847.837	22246
847.972	22116
848.108	22421
848.244	22211
848.379	22207
848.515	22070
848.65	22017
848.786	22166
848.921	22082
849.057	22158
849.192	22211
849.328	22169
849.463	22173
849.598	22040
849.734	22017
849.869	21994
850.004	21755
850.14	21865
850.275	21850
850.41	21743
850.545	21770
850.68	21846
850.815	21797
850.95	21880
851.085	22025
851.22	22032
851.355	21892
851.49	21762
851.625	21926
851.76	21899
851.895	21778
852.03	21770
852.165	21774
852.299	21808
852.434	21915
852.569	21869
852.703	21842
852.838	21835
852.973	21964
853.107	21937
853.242	21850
853.376	21633
853.511	21599
853.645	21572
853.78	21804
853.914	21686
854.048	21709
854.183	21732
854.317	21652
854.451	21876
854.585	21652
854.72	21652
854.854	21679
854.988	21564
855.122	21671
855.256	21511
855.39	21682
855.524	21709
855.658	21766
855.792	21679
855.926	21572
856.06	21797
856.194	21736
856.327	21694
856.461	21675
856.595	21523
856.729	21542
856.862	21724
856.996	21709
857.13	21648
857.263	21747
857.397	21709
857.53	21675
857.664	21698
857.797	21686
857.931	21709
858.064	21618
858.197	21774
858.331	21504
858.464	21625
858.597	21599
858.731	21656
858.864	21603
858.997	21713
859.13	21682
859.263	21603
859.396	21720
859.529	21663
859.662	21564
859.795	21580
859.928	21629
860.061	21720
860.194	21785
860.327	21854
860.46	21667
860.592	21766
860.725	21812
860.858	21743
860.99	21633
861.123	21542
861.256	21557
861.388	21766
861.521	22257
861.653	21526
861.786	21298
861.918	21542
862.05	21477
862.183	21515
862.315	21656
862.447	21701
862.58	21618
862.712	21260
862.844	21279
862.976	21363
863.108	21428
863.24	21819
863.372	21317
863.504	21412
863.636	21367
863.768	21454
863.9	21393
864.032	21226
864.164	21279
864.296	21355
864.428	21473
864.559	21389
864.691	21355
864.823	21359
864.954	21287
865.086	21313
865.217	21283
865.349	21218
865.48	21074
865.612	21291
865.743	21374
865.875	21313
866.006	21104
866.137	21302
866.269	21340
866.4	21241
866.531	21085
866.662	21214
866.793	21207
866.924	21146
867.055	21173
867.186	21127
867.317	21264
867.448	21051
867.579	21096
867.71	21093
867.841	21085
867.972	21233
868.103	21081
868.233	21165
868.364	21165
868.495	21165
868.625	21477
868.756	21618
868.886	21298
869.017	21443
869.147	21515
869.278	21576
869.408	21462
869.539	21473
869.669	21435
869.799	21447
869.929	21500
870.06	21526
870.19	21778
870.32	21736
870.45	21720
870.58	21888
870.71	21895
870.84	21835
870.97	21808
871.1	21797
871.23	22025
871.36	21949
871.489	21899
871.619	22067
871.749	21949
871.879	22147
872.008	22059
872.138	22124
872.267	22002
872.397	21880
872.526	21937
872.656	21949
872.785	21895
872.915	21994
873.044	22112
873.173	22051
873.303	22044
873.432	22059
873.561	22192
873.69	22070
873.819	22097
873.948	22219
874.077	22036
874.206	22044
874.335	22044
874.464	22105
874.593	22268
874.722	22249
874.851	22253
874.979	22287
875.108	22287
875.237	22162
875.365	22097
875.494	22181
875.623	22367
875.751	22253
875.88	22223
876.008	22405
876.136	22432
876.265	22687
876.393	22755
876.521	22717
876.65	22691
876.778	22698
876.906	22561
877.034	22554
877.162	22679
877.29	22527
877.418	22683
877.546	22630
877.674	22557
877.802	22626
877.93	22588
878.058	22611
878.185	22500
878.313	22500
878.441	22691
878.568	22485
878.696	22504
878.824	22599
878.951	22687
879.079	22869
879.206	22987
879.333	22687
879.461	22637
879.588	22782
879.715	22706
879.842	22869
879.97	22592
880.097	22580
880.224	22394
880.351	22352
880.478	22421
880.605	22356
880.732	22402
880.859	22653
880.986	22421
881.112	22447
881.239	22379
881.366	22177
881.493	22112
881.619	21941
881.746	22112
881.872	21941
881.999	22010
882.125	22021
882.252	22044
882.378	22086
882.505	22059
882.631	21918
882.757	21682
882.883	21880
883.01	21759
883.136	21701
883.262	21511
883.388	21523
883.514	21720
883.64	21656
883.766	21568
883.892	21355
884.018	21424
884.143	21739
884.269	21629
884.395	21378
884.52	21332
884.646	21272
884.772	21294
884.897	21188
885.023	21389
885.148	21389
885.274	21561
885.399	21424
885.524	21249
885.65	21416
885.775	21302
885.9	21272
886.025	21363
886.15	21511
886.275	21340
886.4	21218
886.525	21230
886.65	21447
886.775	21192
886.9	21504
887.025	21534
887.149	21321
887.274	21218
887.399	21051
887.523	21039
887.648	21085
887.773	20982
887.897	21184
888.021	21119
888.146	21055
888.27	21188
888.395	21222
888.519	20971
888.643	21188
888.767	21100
888.891	21047
889.015	20845
889.139	20944
889.263	20918
889.387	21017
889.511	21032
889.635	20902
889.759	20754
889.883	20826
890.006	20724
890.13	20937
890.254	20857
890.377	20800
890.501	20537
890.624	20545
890.748	20724
890.871	20476
890.995	20484
891.118	20374
891.241	20385
891.364	20454
891.488	20625
891.611	20400
891.734	20442
891.857	20484
891.98	20408
892.103	20507
892.226	20423
892.349	20298
892.471	20408
892.594	20282
892.717	20244
892.839	20457
892.962	20381
893.085	20377
893.207	20370
893.33	20309
893.452	20256
893.575	20412
893.697	20301
893.819	20461
893.941	20465
894.064	20457
894.186	20305
894.308	20199
894.43	20370
894.552	20438
894.674	20358
894.796	20290
894.918	20248
895.04	20355
895.161	20313
895.283	20393
895.405	20240
895.526	20256
895.648	20317
895.769	20305
895.891	20286
896.012	20484
896.134	20332
896.255	20396
896.376	20290
896.498	20400
896.619	20362
896.74	20320
896.861	20370
896.982	20735
897.103	20765
897.224	20568
897.345	20454
897.466	20564
897.587	20526
897.708	20625
897.828	20590
897.949	20415
898.07	20385
898.19	20511
898.311	20602
898.431	20552
898.552	20579
898.672	20560
898.792	20629
898.913	20507
899.033	20393
899.153	20381
899.273	20229
899.393	20317
899.513	20343
899.633	20256
899.753	20389
899.873	20396
899.993	20298
900.113	20267
900.232	20256
900.352	20073
900.472	20115
900.591	20073
900.711	20145
900.83	20126
900.95	20164
901.069	20263
901.189	19974
901.308	19807
901.427	19677
901.546	19731
901.665	19727
901.784	19609
901.904	19533
902.023	19445
902.141	19278
902.26	19198
902.379	19251
902.498	19137
902.617	19168
902.735	19270
902.854	19103
902.973	18954
903.091	18878
903.21	18852
903.328	18848
903.446	18726
903.565	18589
903.683	18650
903.801	18570
903.919	18688
904.038	18616
904.156	18369
904.274	18422
904.392	18464
904.51	18429
904.627	18372
904.745	18334
904.863	18422
904.981	18232
905.098	18148
905.216	18106
905.334	18102
905.451	18110
905.569	18030
905.686	18102
905.803	18129
905.921	17779
906.038	17923
906.155	17851
906.272	17741
906.389	17790
906.506	17615
906.623	17581
906.74	17589
906.857	17474
906.974	17512
907.091	17661
907.208	17718
907.324	17653
907.441	17493
907.557	17284
907.674	17307
907.79	17254
907.907	17322
908.023	17341
908.139	17311
908.256	17223
908.372	17242
908.488	17220
908.604	17060
908.72	16968
908.836	16987
908.952	17067
909.068	17067
909.184	17128
909.3	17037
909.415	17109
909.531	17098
909.647	16892
909.762	16759
909.878	16706
909.993	16797
910.108	16774
910.224	16725
910.339	16767
910.454	16535
910.57	16599
910.685	16493
910.8	16763
910.915	16596
911.03	16546
911.145	16436
911.259	16371
911.374	16329
911.489	16299
911.604	16177
911.718	16002
911.833	16048
911.947	16055
912.062	15968
912.176	16112
912.291	16059
912.405	16063
912.519	16284
912.633	16261
912.748	16109
912.862	16097
912.976	15865
913.09	15850
913.204	15850
913.318	15785
913.431	15907
913.545	16017
913.659	15956
913.772	15827
913.886	15736
914	15671
914.113	15739
914.226	15812
914.34	15835
914.453	15614
914.566	15671
914.68	15614
914.793	15576
914.906	15321
915.019	15325
915.132	15199
915.245	15363
915.358	15264
915.47	15294
915.583	15294
915.696	15359
915.809	15340
915.921	15382
916.034	15173
916.146	15294
916.259	15207
916.371	15294
916.483	15195
916.595	15100
916.708	15138
916.82	15097
916.932	15097
917.044	15157
917.156	15028
917.268	14872
917.38	14902
917.491	14944
917.603	14929
917.715	15085
917.826	15043
917.938	15024
918.049	14823
918.161	14929
918.272	14975
918.384	14960
918.495	14910
918.606	14746
918.717	14678
918.828	14602
918.939	14750
919.05	14564
919.161	14674
919.272	14522
919.383	14560
919.494	14682
919.604	14944
919.715	14712
919.826	14629
919.936	14629
920.047	14724
920.157	14541
920.267	14819
920.378	14746
920.488	14621
920.598	14864
920.708	14883
920.818	14819
920.928	14773
921.038	14887
921.148	14902
921.258	14655
921.368	14556
921.477	14495
921.587	14434
921.697	14282
921.806	14412
921.916	14286
922.025	14126
922.134	14054
922.244	13989
922.353	14035
922.462	13925
922.571	13803
922.68	13647
922.789	13662
922.898	13639
923.007	13632
923.116	13689
923.224	13594
923.333	13586
923.442	13449
923.55	13506
923.659	13487
923.767	13552
923.876	13457
923.984	13540
924.092	13327
924.201	13472
924.309	13415
924.417	13460
924.525	13316
924.633	13335
924.741	14240
924.849	13137
924.956	13335
925.064	13149
925.172	13137
925.279	13118
925.387	13114
925.494	13084
925.602	13206
925.709	13046
925.816	13023
925.924	13038
926.031	13217
926.138	12909
926.245	13034
926.352	13012
926.459	13072
926.566	13053
926.673	12924
926.779	12810
926.886	12776
926.993	12612
927.099	12639
927.206	12696
927.312	12631
927.419	12650
927.525	12734
927.631	12696
927.737	12551
927.843	12486
927.95	12384
928.056	12426
928.162	12475
928.267	12502
928.373	13175
928.479	12513
928.585	12285
928.69	12471
928.796	12422
928.901	12372
929.007	12285
929.112	12369
929.218	12304
929.323	12213
929.428	12224
929.533	12327
929.638	12091
929.743	12175
929.848	12243
929.953	12159
930.058	12049
930.163	11805
930.267	11878
930.372	11999
930.477	11897
930.581	12038
930.685	11920
930.79	11756
930.894	11729
930.998	11775
931.103	11859
931.207	11516
931.311	11383
931.415	11398
931.519	11052
931.623	11147
