Data from test_V78500241_2539.txt Node
Date: Fri Mar 25 15:59:23 CST 2022
User: usil
Spectrometer: V785-0024
Trigger mode: 0
Integration Time (sec): 4.000000E-1
Scans to average: 1
Nonlinearity correction enabled: false
Boxcar width: 0
Storing dark spectrum: false
XAxis mode: Wavelengths
Number of Pixels in Spectrum: 1024
>>>>>Begin Spectral Data<<<<<
801.071	28535
801.214	28603
801.356	28185
801.499	28230
801.641	28101
801.783	28036
801.926	28181
802.068	28223
802.211	28063
802.353	28010
802.496	27930
802.638	27770
802.78	27873
802.923	27793
803.065	27637
803.208	27682
803.35	27842
803.492	28105
803.635	27911
803.777	27975
803.919	28101
804.061	28299
804.204	28143
804.346	27945
804.488	27994
804.63	28143
804.773	28029
804.915	28105
805.057	28055
805.199	27842
805.341	28147
805.483	28257
805.626	28078
805.768	28055
805.91	28196
806.052	28204
806.194	28276
806.336	28333
806.478	28169
806.62	28192
806.762	28230
806.904	28428
807.046	28706
807.188	28729
807.33	28744
807.472	28649
807.614	28607
807.756	28557
807.898	28565
808.04	28519
808.182	28371
808.324	28405
808.465	28527
808.607	28752
808.749	28862
808.891	29124
809.033	28965
809.174	28866
809.316	28957
809.458	28847
809.6	28854
809.741	28824
809.883	29010
810.025	29060
810.166	29090
810.308	29212
810.45	29143
810.591	29025
810.733	28877
810.875	28812
811.016	28908
811.158	28866
811.299	29067
811.441	28987
811.582	29128
811.724	28953
811.865	28793
812.007	28752
812.148	28801
812.29	28980
812.431	29109
812.573	29231
812.714	29292
812.855	29364
812.997	29326
813.138	29653
813.279	29459
813.421	29353
813.562	29242
813.703	29216
813.845	29079
813.986	28790
814.127	28675
814.268	28634
814.41	28618
814.551	28527
814.692	28683
814.833	28550
814.974	28504
815.115	28523
815.256	28577
815.397	28542
815.539	28462
815.68	28500
815.821	28196
815.962	28432
816.103	28462
816.244	28246
816.385	28154
816.526	28063
816.666	27987
816.807	27861
816.948	28040
817.089	27937
817.23	27808
817.371	27850
817.512	27838
817.653	27838
817.793	27648
817.934	27922
818.075	27895
818.216	27895
818.356	27873
818.497	27682
818.638	27854
818.778	27671
818.919	27557
819.06	27656
819.2	27823
819.341	27873
819.481	27797
819.622	27975
819.762	28192
819.903	28078
820.043	28051
820.184	28036
820.324	27964
820.465	28082
820.605	27930
820.746	27934
820.886	27930
821.026	28029
821.167	27968
821.307	28017
821.447	27846
821.588	27934
821.728	27755
821.868	27523
822.008	27412
822.149	27427
822.289	27325
822.429	27066
822.569	27036
822.709	27157
822.849	26880
822.99	26838
823.13	27009
823.27	26895
823.41	26617
823.55	26678
823.69	26613
823.83	26636
823.97	26617
824.11	26492
824.25	26453
824.389	26457
824.529	26511
824.669	26499
824.809	26609
824.949	26526
825.089	26613
825.228	26564
825.368	26282
825.508	26393
825.648	26465
825.787	26408
825.927	26571
826.067	26294
826.206	26419
826.346	26431
826.485	26453
826.625	26294
826.765	26434
826.904	26465
827.044	26199
827.183	26119
827.323	26062
827.462	26153
827.601	26012
827.741	26103
827.88	26043
828.02	26058
828.159	26020
828.298	26130
828.437	26126
828.577	25940
828.716	26119
828.855	25917
828.994	25788
829.134	25890
829.273	25856
829.412	25864
829.551	25753
829.69	25769
829.829	25890
829.968	25803
830.107	25898
830.246	25742
830.385	25635
830.524	25803
830.663	25658
830.802	25460
830.941	25308
831.08	25403
831.219	25441
831.357	25479
831.496	25559
831.635	25548
831.774	25373
831.913	25251
832.051	25190
832.19	25263
832.329	25194
832.467	25061
832.606	25038
832.744	24958
832.883	25122
833.022	25042
833.16	25031
833.299	25095
833.437	24977
833.576	25145
833.714	25213
833.852	25126
833.991	25247
834.129	25346
834.267	25236
834.406	25008
834.544	25160
834.682	25171
834.821	25145
834.959	25274
835.097	25053
835.235	25213
835.373	25145
835.511	25061
835.65	24913
835.788	25088
835.926	24867
836.064	24856
836.202	24875
836.34	24924
836.478	24989
836.615	24837
836.753	24985
836.891	24943
837.029	24894
837.167	25053
837.305	24814
837.443	24726
837.58	24677
837.718	24825
837.856	24852
837.993	24749
838.131	24871
838.269	24604
838.406	24578
838.544	24521
838.681	24399
838.819	24460
838.956	24243
839.094	24133
839.231	24296
839.369	24391
839.506	24612
839.643	24528
839.781	24277
839.918	24273
840.055	24228
840.193	24213
840.33	24133
840.467	24072
840.604	24205
840.742	24403
840.879	24003
841.016	24106
841.153	23961
841.29	24327
841.427	24144
841.564	24213
841.701	24079
841.838	24216
841.975	23939
842.112	23984
842.249	24072
842.385	23870
842.522	24102
842.659	24030
842.796	23866
842.933	23901
843.069	23901
843.206	23798
843.343	24041
843.479	23939
843.616	23828
843.752	23733
843.889	23657
844.025	23927
844.162	23714
844.298	23756
844.435	23786
844.571	23596
844.708	23760
844.844	23790
844.98	23836
845.117	23623
845.253	23562
845.389	23695
845.525	23505
845.661	23524
845.798	23554
845.934	23573
846.07	23448
846.206	23493
846.342	23531
846.478	23497
846.614	23185
846.75	23018
846.886	23212
847.022	23277
847.158	23178
847.294	23181
847.429	23170
847.565	23155
847.701	23429
847.837	22835
847.972	22847
848.108	23086
848.244	22889
848.379	22717
848.515	22843
848.65	22729
848.786	22672
848.921	22675
849.057	22805
849.192	22835
849.328	22755
849.463	22736
849.598	22687
849.734	22611
849.869	22588
850.004	22542
850.14	22519
850.275	22493
850.41	22367
850.545	22318
850.68	22481
850.815	22500
850.95	22493
851.085	22691
851.22	22618
851.355	22554
851.49	22432
851.625	22424
851.76	22287
851.895	22451
852.03	22523
852.165	22554
852.299	22561
852.434	22474
852.569	22481
852.703	22417
852.838	22603
852.973	22504
853.107	22500
853.242	22379
853.376	22299
853.511	22131
853.645	22284
853.78	22303
853.914	22272
854.048	22169
854.183	22367
854.317	22291
854.451	22535
854.585	22306
854.72	22242
854.854	22443
854.988	22188
855.122	22344
855.256	22257
855.39	22223
855.524	22402
855.658	22379
855.792	22352
855.926	22341
856.06	22405
856.194	22382
856.327	22242
856.461	22329
856.595	22318
856.729	22261
856.862	22417
856.996	22379
857.13	22303
857.263	22432
857.397	22386
857.53	22238
857.664	22356
857.797	22516
857.931	22432
858.064	22405
858.197	22508
858.331	22257
858.464	22341
858.597	22097
858.731	22230
858.864	22238
858.997	22204
859.13	22265
859.263	22371
859.396	22394
859.529	22124
859.662	22268
859.795	22344
859.928	22177
860.061	22478
860.194	22535
860.327	22474
860.46	22329
860.592	22409
860.725	22447
860.858	22455
860.99	22287
861.123	22246
861.256	22196
861.388	22291
861.521	23098
861.653	22169
861.786	22147
861.918	22215
862.05	22101
862.183	22268
862.315	22276
862.447	22314
862.58	22131
862.712	22048
862.844	21934
862.976	22090
863.108	22166
863.24	22565
863.372	21926
863.504	21960
863.636	21937
863.768	21998
863.9	22036
864.032	22051
864.164	22036
864.296	21956
864.428	22109
864.559	22177
864.691	22204
864.823	22017
864.954	22025
865.086	22082
865.217	21857
865.349	21915
865.48	21915
865.612	21888
865.743	22082
865.875	21819
866.006	21922
866.137	21911
866.269	21831
866.4	21789
866.531	21835
866.662	21732
866.793	21766
866.924	21785
867.055	21812
867.186	21846
867.317	21789
867.448	21755
867.579	21762
867.71	21663
867.841	21713
867.972	21857
868.103	21831
868.233	21918
868.364	21926
868.495	21960
868.625	22055
868.756	22147
868.886	21907
869.017	22032
869.147	22192
869.278	22230
869.408	22067
869.539	22082
869.669	22093
869.799	22169
869.929	22265
870.06	22242
870.19	22341
870.32	22421
870.45	22390
870.58	22428
870.71	22500
870.84	22493
870.97	22504
871.1	22497
871.23	22660
871.36	22596
871.489	22626
871.619	22645
871.749	22698
871.879	22653
872.008	22809
872.138	22721
872.267	22588
872.397	22637
872.526	22512
872.656	22557
872.785	22478
872.915	22698
873.044	22828
873.173	22641
873.303	22668
873.432	22812
873.561	22778
873.69	22660
873.819	22790
873.948	22862
874.077	22596
874.206	22561
874.335	22706
874.464	22664
874.593	22915
874.722	22908
874.851	22980
874.979	23018
875.108	22972
875.237	22831
875.365	22843
875.494	22782
875.623	23010
875.751	22923
875.88	22858
876.008	22957
876.136	23117
876.265	23516
876.393	23512
876.521	23326
876.65	23425
876.778	23364
876.906	23303
877.034	23216
877.162	23345
877.29	23235
877.418	23212
877.546	23299
877.674	23330
877.802	23288
877.93	23239
878.058	23258
878.185	23086
878.313	23132
878.441	23258
878.568	23067
878.696	23140
878.824	23284
878.951	23421
879.079	23531
879.206	23608
879.333	23387
879.461	23315
879.588	23296
879.715	23421
879.842	23520
879.97	23387
880.097	23029
880.224	23022
880.351	23220
880.478	23006
880.605	22927
880.732	23121
880.859	23292
880.986	22999
881.112	23094
881.239	22885
881.366	22687
881.493	22713
881.619	22725
881.746	22698
881.872	22634
881.999	22565
882.125	22459
882.252	22668
882.378	22588
882.505	22702
882.631	22618
882.757	22363
882.883	22379
883.01	22322
883.136	22219
883.262	22234
883.388	22135
883.514	22360
883.64	22306
883.766	22230
883.892	22040
884.018	22116
884.143	22150
884.269	22413
884.395	21983
884.52	21781
884.646	21987
884.772	21854
884.897	21869
885.023	21964
885.148	22029
885.274	22021
885.399	22040
885.524	22010
885.65	22021
885.775	21903
885.9	21888
886.025	22017
886.15	21911
886.275	21861
886.4	21915
886.525	21968
886.65	21861
886.775	21804
886.9	21964
887.025	22154
887.149	21915
887.274	21625
887.399	21732
887.523	21713
887.648	21701
887.773	21633
887.897	21854
888.021	21743
888.146	21625
888.27	21812
888.395	21880
888.519	21739
888.643	21686
888.767	21644
888.891	21648
889.015	21450
889.139	21511
889.263	21428
889.387	21515
889.511	21762
889.635	21542
889.759	21496
889.883	21469
890.006	21477
890.13	21644
890.254	21473
890.377	21351
890.501	21211
890.624	21195
890.748	21363
890.871	21157
890.995	20994
891.118	20975
891.241	21214
891.364	21020
891.488	21207
891.611	20914
891.734	20929
891.857	21161
891.98	21066
892.103	20990
892.226	21001
892.349	20975
892.471	20887
892.594	20918
892.717	20952
892.839	20902
892.962	20925
893.085	21020
893.207	20910
893.33	20918
893.452	20883
893.575	20902
893.697	20986
893.819	21005
893.941	21180
894.064	21024
894.186	20853
894.308	20819
894.43	20979
894.552	21055
894.674	20990
894.796	20887
894.918	20849
895.04	20883
895.161	21028
895.283	20937
895.405	20937
895.526	20918
895.648	20872
895.769	20933
895.891	20895
896.012	21070
896.134	20872
896.255	20948
896.376	20895
896.498	20971
896.619	20902
896.74	21043
896.861	20899
896.982	21329
897.103	21386
897.224	21199
897.345	21211
897.466	21070
897.587	21135
897.708	21275
897.828	21142
897.949	21013
898.07	21024
898.19	20933
898.311	21214
898.431	20982
898.552	21028
898.672	21192
898.792	21192
898.913	21123
899.033	21051
899.153	20853
899.273	20788
899.393	20853
899.513	20853
899.633	20864
899.753	20902
899.873	20834
899.993	20941
900.113	20845
900.232	20804
900.352	20811
900.472	20686
900.591	20663
900.711	20602
900.83	20648
900.95	20785
901.069	20663
901.189	20571
901.308	20237
901.427	20206
901.546	20298
901.665	20244
901.784	20176
901.904	20130
902.023	20035
902.141	19723
902.26	19791
902.379	19723
902.498	19655
902.617	19628
902.735	19708
902.854	19567
902.973	19670
903.091	19434
903.21	19377
903.328	19308
903.446	19327
903.565	19187
903.683	19213
903.801	19053
903.919	19027
904.038	19080
904.156	18890
904.274	19008
904.392	19000
904.51	18840
904.627	18852
904.745	19019
904.863	18943
904.981	18760
905.098	18631
905.216	18711
905.334	18654
905.451	18627
905.569	18528
905.686	18623
905.803	18631
905.921	18418
906.038	18513
906.155	18319
906.272	18262
906.389	18258
906.506	18121
906.623	18144
906.74	18038
906.857	18026
906.974	18041
907.091	18186
907.208	18292
907.324	18136
907.441	18060
907.557	17897
907.674	17813
907.79	17756
907.907	17756
908.023	17836
908.139	17767
908.256	17703
908.372	17695
908.488	17767
908.604	17573
908.72	17471
908.836	17611
908.952	17573
909.068	17608
909.184	17687
909.3	17520
909.415	17539
909.531	17562
909.647	17360
909.762	17261
909.878	17227
909.993	17258
910.108	17223
910.224	17128
910.339	17098
910.454	17151
910.57	17048
910.685	16980
910.8	17231
910.915	17086
911.03	17010
911.145	16930
911.259	16790
911.374	16736
911.489	16786
911.604	16679
911.718	16558
911.833	16542
911.947	16519
912.062	16314
912.176	16519
912.291	16554
912.405	16542
912.519	16786
912.633	16736
912.748	16607
912.862	16607
912.976	16314
913.09	16280
913.204	16341
913.318	16341
913.431	16443
913.545	16417
913.659	16527
913.772	16360
913.886	16223
914	16150
914.113	16223
914.226	16341
914.34	16234
914.453	16010
914.566	16223
914.68	16112
914.793	15991
914.906	15918
915.019	15717
915.132	15789
915.245	15663
915.358	15686
915.47	15701
915.583	15785
915.696	15778
915.809	15747
915.921	15736
916.034	15759
916.146	15671
916.259	15652
916.371	15755
916.483	15686
916.595	15584
916.708	15576
916.82	15538
916.932	15557
917.044	15557
917.156	15462
917.268	15469
917.38	15367
917.491	15317
917.603	15378
917.715	15401
917.826	15507
917.938	15325
918.049	15306
918.161	15291
918.272	15443
918.384	15447
918.495	15245
918.606	15157
918.717	15123
918.828	15195
918.939	15146
919.05	15112
919.161	15043
919.272	14914
919.383	14918
919.494	15176
919.604	15230
919.715	15074
919.826	15009
919.936	15074
920.047	15119
920.157	15123
920.267	15256
920.378	15028
920.488	15097
920.598	15199
920.708	15317
920.818	15161
920.928	15108
921.038	15355
921.148	15180
921.258	14971
921.368	14891
921.477	14769
921.587	14769
921.697	14655
921.806	14720
921.916	14674
922.025	14606
922.134	14408
922.244	14404
922.353	14579
922.462	14202
922.571	14298
922.68	14145
922.789	14088
922.898	14081
923.007	14092
923.116	14065
923.224	14103
923.333	13986
923.442	13902
923.55	13830
923.659	13951
923.767	13978
923.876	13852
923.984	13856
924.092	13856
924.201	13776
924.309	13799
924.417	13757
924.525	13727
924.633	13693
924.741	14526
924.849	13480
924.956	13681
925.064	13563
925.172	13495
925.279	13483
925.387	13483
925.494	13616
925.602	13605
925.709	13521
925.816	13460
925.924	13457
926.031	13529
926.138	13453
926.245	13373
926.352	13343
926.459	13453
926.566	13468
926.673	13346
926.779	13164
926.886	13183
926.993	13050
927.099	13084
927.206	13000
927.312	12928
927.419	13171
927.525	13019
927.631	13088
927.737	12875
927.843	12867
927.95	12776
928.056	12783
928.162	12882
928.267	12897
928.373	13594
928.479	12890
928.585	12650
928.69	12787
928.796	12875
928.901	12612
929.007	12635
929.112	12734
929.218	12673
929.323	12665
929.428	12574
929.533	12711
929.638	12464
929.743	12479
929.848	12517
929.953	12536
930.058	12460
930.163	12327
930.267	12262
930.372	12350
930.477	12148
930.581	12467
930.685	12292
930.79	12155
930.894	12175
930.998	12083
931.103	12224
931.207	11809
931.311	11813
931.415	11756
931.519	11509
931.623	11379
