Data from test_V78500241_2219.txt Node
Date: Fri Mar 25 15:57:10 CST 2022
User: usil
Spectrometer: V785-0024
Trigger mode: 0
Integration Time (sec): 4.000000E-1
Scans to average: 1
Nonlinearity correction enabled: false
Boxcar width: 0
Storing dark spectrum: false
XAxis mode: Wavelengths
Number of Pixels in Spectrum: 1024
>>>>>Begin Spectral Data<<<<<
801.071	29136
801.214	28835
801.356	28797
801.499	28710
801.641	28599
801.783	28516
801.926	28626
802.068	28565
802.211	28436
802.353	28413
802.496	28344
802.638	28310
802.78	28352
802.923	28287
803.065	28158
803.208	28215
803.35	28287
803.492	28371
803.635	28451
803.777	28417
803.919	28504
804.061	28873
804.204	28603
804.346	28447
804.488	28474
804.63	28519
804.773	28550
804.915	28493
805.057	28656
805.199	28580
805.341	28588
805.483	28763
805.626	28637
805.768	28615
805.91	28626
806.052	28790
806.194	28557
806.336	28911
806.478	28698
806.62	28698
806.762	28839
806.904	29041
807.046	29204
807.188	29037
807.33	29174
807.472	29220
807.614	29231
807.756	29121
807.898	29083
808.04	29117
808.182	28873
808.324	29025
808.465	29109
808.607	29364
808.749	29474
808.891	29391
809.033	29570
809.174	29474
809.316	29444
809.458	29315
809.6	29474
809.741	29516
809.883	29421
810.025	29630
810.166	29687
810.308	29832
810.45	29623
810.591	29600
810.733	29528
810.875	29383
811.016	29311
811.158	29246
811.299	29562
811.441	29798
811.582	29748
811.724	29452
811.865	29326
812.007	29429
812.148	29444
812.29	29505
812.431	29600
812.573	29767
812.714	29756
812.855	29946
812.997	30098
813.138	30152
813.279	30053
813.421	29958
813.562	29737
813.703	29912
813.845	29611
813.986	29452
814.127	29124
814.268	29109
814.41	29220
814.551	29200
814.692	29250
814.833	29064
814.974	29102
815.115	29208
815.256	29048
815.397	29025
815.539	29067
815.68	28972
815.821	28869
815.962	28976
816.103	28995
816.244	28710
816.385	28687
816.526	28733
816.666	28565
816.807	28481
816.948	28550
817.089	28538
817.23	28462
817.371	28497
817.512	28485
817.653	28424
817.793	28303
817.934	28447
818.075	28436
818.216	28626
818.356	28401
818.497	28314
818.638	28352
818.778	28265
818.919	28162
819.06	28169
819.2	28303
819.341	28470
819.481	28466
819.622	28561
819.762	28919
819.903	28713
820.043	28664
820.184	28470
820.324	28721
820.465	28580
820.605	28630
820.746	28516
820.886	28542
821.026	28462
821.167	28550
821.307	28565
821.447	28538
821.588	28474
821.728	28367
821.868	28017
822.008	28025
822.149	27831
822.289	27975
822.429	27732
822.569	27606
822.709	27736
822.849	27485
822.99	27424
823.13	27378
823.27	27397
823.41	27367
823.55	27157
823.69	27313
823.83	27279
823.97	27199
824.11	27135
824.25	26994
824.389	27013
824.529	27256
824.669	27157
824.809	27173
824.949	27173
825.089	27279
825.228	27157
825.368	27009
825.508	26853
825.648	26975
825.787	27154
825.927	27131
826.067	26925
826.206	27066
826.346	26952
826.485	26963
826.625	27009
826.765	26925
826.904	27013
827.044	26815
827.183	26746
827.323	26674
827.462	26716
827.601	26792
827.741	26727
827.88	26655
828.02	26670
828.159	26583
828.298	26792
828.437	26845
828.577	26655
828.716	26590
828.855	26522
828.994	26495
829.134	26427
829.273	26412
829.412	26381
829.551	26275
829.69	26473
829.829	26404
829.968	26473
830.107	26381
830.246	26419
830.385	26431
830.524	26343
830.663	26134
830.802	26096
830.941	25997
831.08	25963
831.219	26122
831.357	26164
831.496	26214
831.635	25909
831.774	26031
831.913	25909
832.051	25776
832.19	25849
832.329	25719
832.467	25761
832.606	25719
832.744	25681
832.883	25784
833.022	25731
833.16	25818
833.299	25693
833.437	25639
833.576	25772
833.714	25666
833.852	25830
833.991	25795
834.129	25818
834.267	25928
834.406	25620
834.544	25803
834.682	25658
834.821	25860
834.959	25978
835.097	25658
835.235	25769
835.373	25875
835.511	25693
835.65	25544
835.788	25605
835.926	25335
836.064	25449
836.202	25373
836.34	25476
836.478	25655
836.615	25468
836.753	25499
836.891	25643
837.029	25514
837.167	25510
837.305	25407
837.443	25457
837.58	25339
837.718	25434
837.856	25468
837.993	25266
838.131	25335
838.269	25217
838.406	25278
838.544	25232
838.681	24962
838.819	25012
838.956	24772
839.094	24795
839.231	24977
839.369	24932
839.506	25190
839.643	25228
839.781	24878
839.918	24825
840.055	24817
840.193	24711
840.33	24821
840.467	24696
840.604	24954
840.742	25015
840.879	24604
841.016	24658
841.153	24582
841.29	24768
841.427	24673
841.564	24616
841.701	24772
841.838	24745
841.975	24593
842.112	24677
842.249	24585
842.385	24414
842.522	24753
842.659	24513
842.796	24410
842.933	24509
843.069	24395
843.206	24346
843.343	24532
843.479	24566
843.616	24509
843.752	24270
843.889	24254
844.025	24372
844.162	24277
844.298	24292
844.435	24213
844.571	24262
844.708	24216
844.844	24414
844.98	24479
845.117	24311
845.253	24315
845.389	24121
845.525	24228
845.661	24110
845.798	23939
845.934	23992
846.07	24015
846.206	23931
846.342	24060
846.478	23992
846.614	23783
846.75	23676
846.886	23722
847.022	23802
847.158	23691
847.294	23760
847.429	23737
847.565	23798
847.701	23992
847.837	23482
847.972	23429
848.108	23482
848.244	23509
848.379	23360
848.515	23246
848.65	23273
848.786	23292
848.921	23250
849.057	23512
849.192	23429
849.328	23459
849.463	23326
849.598	23197
849.734	23151
849.869	23200
850.004	23071
850.14	23075
850.275	22908
850.41	23056
850.545	22862
850.68	23056
850.815	23029
850.95	22999
851.085	23220
851.22	23162
851.355	23064
851.49	23048
851.625	23090
851.76	22915
851.895	22934
852.03	22930
852.165	23071
852.299	23067
852.434	23162
852.569	23075
852.703	23189
852.838	23128
852.973	23124
853.107	23178
853.242	22869
853.376	23022
853.511	22786
853.645	22854
853.78	22862
853.914	22896
854.048	22923
854.183	22900
854.317	22915
854.451	22885
854.585	22930
854.72	22923
854.854	23014
854.988	22904
855.122	22949
855.256	22653
855.39	22767
855.524	22957
855.658	22885
855.792	22896
855.926	22877
856.06	22923
856.194	22984
856.327	22904
856.461	22717
856.595	22790
856.729	22774
856.862	22930
856.996	22934
857.13	22934
857.263	23075
857.397	23041
857.53	22816
857.664	22919
857.797	22908
857.931	22915
858.064	22877
858.197	23022
858.331	22881
858.464	22866
858.597	22774
858.731	22744
858.864	22805
858.997	22816
859.13	22908
859.263	22869
859.396	23048
859.529	22873
859.662	22801
859.795	22828
859.928	22938
860.061	22938
860.194	23109
860.327	22824
860.46	22953
860.592	23052
860.725	22953
860.858	22873
860.99	22900
861.123	22809
861.256	22862
861.388	22839
861.521	23535
861.653	22801
861.786	22561
861.918	22744
862.05	22748
862.183	22771
862.315	22911
862.447	22873
862.58	22771
862.712	22615
862.844	22645
862.976	22691
863.108	22626
863.24	23037
863.372	22554
863.504	22618
863.636	22519
863.768	22584
863.9	22596
864.032	22462
864.164	22523
864.296	22622
864.428	22656
864.559	22607
864.691	22569
864.823	22626
864.954	22645
865.086	22421
865.217	22527
865.349	22466
865.48	22402
865.612	22523
865.743	22649
865.875	22459
866.006	22413
866.137	22352
866.269	22538
866.4	22459
866.531	22402
866.662	22432
866.793	22348
866.924	22466
867.055	22424
867.186	22310
867.317	22436
867.448	22329
867.579	22276
867.71	22242
867.841	22295
867.972	22280
868.103	22493
868.233	22325
868.364	22375
868.495	22535
868.625	22626
868.756	22740
868.886	22603
869.017	22523
869.147	22771
869.278	22790
869.408	22584
869.539	22523
869.669	22588
869.799	22611
869.929	22580
870.06	22653
870.19	22976
870.32	22923
870.45	22953
870.58	22987
870.71	23189
870.84	23147
870.97	23006
871.1	23037
871.23	23044
871.36	23280
871.489	23143
871.619	23208
871.749	23246
871.879	23193
872.008	23189
872.138	23231
872.267	23208
872.397	23132
872.526	23037
872.656	23079
872.785	23071
872.915	23147
873.044	23258
873.173	23254
873.303	23227
873.432	23258
873.561	23242
873.69	23349
873.819	23162
873.948	23307
874.077	23258
874.206	23136
874.335	23178
874.464	23376
874.593	23528
874.722	23391
874.851	23497
874.979	23395
875.108	23611
875.237	23448
875.365	23455
875.494	23364
875.623	23619
875.751	23474
875.88	23429
876.008	23535
876.136	23668
876.265	23927
876.393	24083
876.521	24011
876.65	23889
876.778	23851
876.906	23733
877.034	23790
877.162	23767
877.29	23843
877.418	23714
877.546	23828
877.674	23760
877.802	23882
877.93	23756
878.058	23942
878.185	23657
878.313	23714
878.441	23805
878.568	23665
878.696	23802
878.824	23733
878.951	23836
879.079	23885
879.206	24114
879.333	24038
879.461	23783
879.588	23969
879.715	23980
879.842	24114
879.97	23885
880.097	23703
880.224	23554
880.351	23642
880.478	23634
880.605	23577
880.732	23474
880.859	23859
880.986	23627
881.112	23585
881.239	23467
881.366	23315
881.493	23239
881.619	23299
881.746	23181
881.872	23162
881.999	23124
882.125	22957
882.252	23083
882.378	23079
882.505	23296
882.631	23033
882.757	22812
882.883	23064
883.01	22816
883.136	22889
883.262	22698
883.388	22725
883.514	22767
883.64	22850
883.766	22736
883.892	22535
884.018	22580
884.143	22744
884.269	22725
884.395	22607
884.52	22428
884.646	22455
884.772	22470
884.897	22325
885.023	22474
885.148	22637
885.274	22694
885.399	22645
885.524	22440
885.65	22489
885.775	22379
885.9	22470
886.025	22664
886.15	22584
886.275	22375
886.4	22341
886.525	22424
886.65	22413
886.775	22470
886.9	22554
887.025	22748
887.149	22363
887.274	22344
887.399	22215
887.523	22246
887.648	22154
887.773	22074
887.897	22219
888.021	22379
888.146	22177
888.27	22291
888.395	22382
888.519	22207
888.643	22303
888.767	22131
888.891	22101
889.015	22086
889.139	22200
889.263	21915
889.387	22158
889.511	22120
889.635	22078
889.759	22059
889.883	22048
890.006	22017
890.13	22025
890.254	21983
890.377	21922
890.501	21869
890.624	21671
890.748	21759
890.871	21732
890.995	21728
891.118	21485
891.241	21656
891.364	21622
891.488	21781
891.611	21561
891.734	21576
891.857	21629
891.98	21580
892.103	21599
892.226	21641
892.349	21344
892.471	21401
892.594	21523
892.717	21488
892.839	21401
892.962	21351
893.085	21473
893.207	21477
893.33	21310
893.452	21378
893.575	21447
893.697	21466
893.819	21549
893.941	21606
894.064	21469
894.186	21393
894.308	21306
894.43	21507
894.552	21500
894.674	21538
894.796	21279
894.918	21355
895.04	21401
895.161	21504
895.283	21340
895.405	21386
895.526	21496
895.648	21431
895.769	21401
895.891	21603
896.012	21378
896.134	21408
896.255	21431
896.376	21412
896.498	21378
896.619	21488
896.74	21401
896.861	21466
896.982	21846
897.103	21804
897.224	21652
897.345	21523
897.466	21504
897.587	21580
897.708	21873
897.828	21667
897.949	21572
898.07	21401
898.19	21576
898.311	21747
898.431	21488
898.552	21709
898.672	21614
898.792	21682
898.913	21641
899.033	21408
899.153	21340
899.273	21264
899.393	21363
899.513	21291
899.633	21325
899.753	21313
899.873	21272
899.993	21367
900.113	21165
900.232	21272
900.352	21184
900.472	21119
900.591	21036
900.711	21096
900.83	21047
900.95	21199
901.069	21119
901.189	20918
901.308	20769
901.427	20617
901.546	20739
901.665	20716
901.784	20632
901.904	20492
902.023	20385
902.141	20358
902.26	20180
902.379	20225
902.498	20126
902.617	20111
902.735	20199
902.854	20195
902.973	20005
903.091	19845
903.21	19712
903.328	19799
903.446	19681
903.565	19670
903.683	19693
903.801	19529
903.919	19533
904.038	19525
904.156	19377
904.274	19472
904.392	19449
904.51	19339
904.627	19324
904.745	19392
904.863	19430
904.981	19126
905.098	19031
905.216	19038
905.334	19050
905.451	19038
905.569	19095
905.686	19076
905.803	19004
905.921	18935
906.038	18905
906.155	18924
906.272	18692
906.389	18810
906.506	18604
906.623	18566
906.74	18566
906.857	18403
906.974	18369
907.091	18608
907.208	18719
907.324	18589
907.441	18448
907.557	18247
907.674	18327
907.79	18152
907.907	18190
908.023	18171
908.139	18270
908.256	18216
908.372	18174
908.488	18030
908.604	18007
908.72	17828
908.836	18091
908.952	17901
909.068	18152
909.184	18053
909.3	17931
909.415	17920
909.531	17954
909.647	17752
909.762	17623
909.878	17630
909.993	17661
910.108	17570
910.224	17642
910.339	17653
910.454	17433
910.57	17497
910.685	17311
910.8	17615
910.915	17551
911.03	17421
911.145	17250
911.259	17299
911.374	17204
911.489	17223
911.604	17197
911.718	16927
911.833	17006
911.947	16896
912.062	16847
912.176	16915
912.291	17003
912.405	16873
912.519	17231
912.633	17086
912.748	17003
912.862	16957
912.976	16801
913.09	16790
913.204	16713
913.318	16816
913.431	16892
913.545	16877
913.659	16828
913.772	16771
913.886	16588
914	16580
914.113	16710
914.226	16634
914.34	16656
914.453	16424
914.566	16554
914.68	16409
914.793	16386
914.906	16284
915.019	16150
915.132	16166
915.245	16173
915.358	16185
915.47	16124
915.583	16124
915.696	16223
915.809	16238
915.921	16192
916.034	16048
916.146	16059
916.259	16010
916.371	16025
916.483	16147
916.595	15876
916.708	15987
916.82	16013
916.932	15800
917.044	15827
917.156	15903
917.268	15724
917.38	15724
917.491	15698
917.603	15778
917.715	15789
917.826	15785
917.938	15736
918.049	15614
918.161	15637
918.272	15854
918.384	15819
918.495	15614
918.606	15561
918.717	15386
918.828	15435
918.939	15526
919.05	15416
919.161	15462
919.272	15279
919.383	15359
919.494	15561
919.604	15675
919.715	15435
919.826	15443
919.936	15443
920.047	15458
920.157	15424
920.267	15618
920.378	15496
920.488	15389
920.598	15580
920.708	15766
920.818	15454
920.928	15595
921.038	15713
921.148	15667
921.258	15378
921.368	15241
921.477	15146
921.587	15154
921.697	15020
921.806	15180
921.916	15032
922.025	14849
922.134	14811
922.244	14807
922.353	14914
922.462	14644
922.571	14571
922.68	14393
922.789	14450
922.898	14465
923.007	14377
923.116	14484
923.224	14374
923.333	14351
923.442	14278
923.55	14237
923.659	14229
923.767	14324
923.876	14195
923.984	14298
924.092	14199
924.201	14202
924.309	14096
924.417	14130
924.525	14073
924.633	14043
924.741	14800
924.849	13906
924.956	13944
925.064	13776
925.172	13765
925.279	13795
925.387	13856
925.494	13769
925.602	13944
925.709	13826
925.816	13708
925.924	13723
926.031	13772
926.138	13712
926.245	13670
926.352	13582
926.459	13753
926.566	13746
926.673	13582
926.779	13441
926.886	13460
926.993	13464
927.099	13324
927.206	13240
927.312	13304
927.419	13396
927.525	13324
927.631	13266
927.737	13232
927.843	13099
927.95	12973
928.056	13198
928.162	13133
928.267	13247
928.373	13776
928.479	13225
928.585	12875
928.69	13004
928.796	13038
928.901	13023
929.007	12871
929.112	12859
929.218	12947
929.323	12730
929.428	12848
929.533	12916
929.638	12696
929.743	12787
929.848	12833
929.953	12768
930.058	12707
930.163	12433
930.267	12460
930.372	12627
930.477	12525
930.581	12646
930.685	12479
930.79	12319
930.894	12399
930.998	12289
931.103	12498
931.207	12186
931.311	12076
931.415	11927
931.519	11748
931.623	11672
