Data from test_V78500241_3463.txt Node
Date: Fri Mar 25 16:05:47 CST 2022
User: usil
Spectrometer: V785-0024
Trigger mode: 0
Integration Time (sec): 4.000000E-1
Scans to average: 1
Nonlinearity correction enabled: false
Boxcar width: 0
Storing dark spectrum: false
XAxis mode: Wavelengths
Number of Pixels in Spectrum: 1024
>>>>>Begin Spectral Data<<<<<
801.071	28847
801.214	28835
801.356	28717
801.499	28637
801.641	28474
801.783	28500
801.926	28561
802.068	28535
802.211	28531
802.353	28500
802.496	28436
802.638	28185
802.78	28147
802.923	28131
803.065	28112
803.208	28112
803.35	28211
803.492	28481
803.635	28348
803.777	28360
803.919	28394
804.061	28736
804.204	28497
804.346	28405
804.488	28344
804.63	28375
804.773	28398
804.915	28516
805.057	28538
805.199	28405
805.341	28599
805.483	28577
805.626	28672
805.768	28424
805.91	28550
806.052	28683
806.194	28580
806.336	28771
806.478	28481
806.62	28603
806.762	28755
806.904	28927
807.046	29136
807.188	29162
807.33	29056
807.472	29098
807.614	29105
807.756	29022
807.898	29006
808.04	28972
808.182	28961
808.324	29029
808.465	29094
808.607	29193
808.749	29277
808.891	29436
809.033	29467
809.174	29364
809.316	29417
809.458	29383
809.6	29231
809.741	29524
809.883	29535
810.025	29653
810.166	29581
810.308	29501
810.45	29562
810.591	29486
810.733	29345
810.875	29341
811.016	29174
811.158	29345
811.299	29284
811.441	29543
811.582	29543
811.724	29482
811.865	29307
812.007	29364
812.148	29280
812.29	29391
812.431	29493
812.573	29790
812.714	29779
812.855	29859
812.997	30007
813.138	30155
813.279	29901
813.421	29866
813.562	29779
813.703	29824
813.845	29634
813.986	29341
814.127	29117
814.268	29037
814.41	29181
814.551	28968
814.692	29143
814.833	28984
814.974	29117
815.115	29113
815.256	28866
815.397	28885
815.539	28763
815.68	28888
815.821	28919
815.962	28866
816.103	28782
816.244	28736
816.385	28782
816.526	28744
816.666	28634
816.807	28280
816.948	28223
817.089	28462
817.23	28379
817.371	28310
817.512	28306
817.653	28295
817.793	28310
817.934	28459
818.075	28577
818.216	28341
818.356	28333
818.497	28284
818.638	28116
818.778	28055
818.919	28124
819.06	28291
819.2	28276
819.341	28390
819.481	28459
819.622	28721
819.762	28824
819.903	28694
820.043	28679
820.184	28634
820.324	28596
820.465	28672
820.605	28493
820.746	28523
820.886	28287
821.026	28569
821.167	28436
821.307	28550
821.447	28409
821.588	28238
821.728	28147
821.868	28101
822.008	28010
822.149	27846
822.289	27960
822.429	27652
822.569	27625
822.709	27485
822.849	27504
822.99	27321
823.13	27473
823.27	27310
823.41	27291
823.55	27173
823.69	27123
823.83	27188
823.97	27100
824.11	27028
824.25	27032
824.389	27058
824.529	27077
824.669	27127
824.809	27157
824.949	27157
825.089	27332
825.228	27135
825.368	26914
825.508	26963
825.648	26883
825.787	26925
825.927	26940
826.067	26823
826.206	26967
826.346	26937
826.485	26990
826.625	26819
826.765	26986
826.904	26960
827.044	26746
827.183	26735
827.323	26587
827.462	26830
827.601	26682
827.741	26739
827.88	26640
828.02	26594
828.159	26552
828.298	26716
828.437	26621
828.577	26644
828.716	26667
828.855	26522
828.994	26453
829.134	26419
829.273	26374
829.412	26164
829.551	26396
829.69	26537
829.829	26202
829.968	26336
830.107	26385
830.246	26286
830.385	26286
830.524	26210
830.663	26161
830.802	26016
830.941	25894
831.08	25822
831.219	26020
831.357	25928
831.496	26218
831.635	25875
831.774	25917
831.913	25868
832.051	25830
832.19	25837
832.329	25769
832.467	25529
832.606	25655
832.744	25620
832.883	25696
833.022	25537
833.16	25601
833.299	25624
833.437	25757
833.576	25639
833.714	25674
833.852	25776
833.991	25784
834.129	25738
834.267	25753
834.406	25776
834.544	25704
834.682	25765
834.821	25723
834.959	25917
835.097	25674
835.235	25655
835.373	25757
835.511	25708
835.65	25594
835.788	25514
835.926	25415
836.064	25312
836.202	25441
836.34	25575
836.478	25605
836.615	25483
836.753	25506
836.891	25548
837.029	25495
837.167	25529
837.305	25411
837.443	25434
837.58	25312
837.718	25346
837.856	25411
837.993	25194
838.131	25407
838.269	25145
838.406	25384
838.544	25118
838.681	25015
838.819	24981
838.956	24886
839.094	24795
839.231	24825
839.369	24951
839.506	25168
839.643	25000
839.781	24787
839.918	24757
840.055	24764
840.193	24620
840.33	24734
840.467	24696
840.604	24719
840.742	24890
840.879	24467
841.016	24616
841.153	24509
841.29	24741
841.427	24707
841.564	24810
841.701	24719
841.838	24669
841.975	24631
842.112	24509
842.249	24521
842.385	24471
842.522	24635
842.659	24342
842.796	24353
842.933	24372
843.069	24525
843.206	24422
843.343	24448
843.479	24395
843.616	24620
843.752	24114
843.889	24213
844.025	24372
844.162	24152
844.298	24235
844.435	24194
844.571	24201
844.708	24209
844.844	24300
844.98	24452
845.117	24323
845.253	24167
845.389	24136
845.525	24018
845.661	24076
845.798	24022
845.934	24072
846.07	23901
846.206	24007
846.342	24106
846.478	23965
846.614	23843
846.75	23726
846.886	23699
847.022	23729
847.158	23726
847.294	23653
847.429	23687
847.565	23619
847.701	23855
847.837	23444
847.972	23296
848.108	23543
848.244	23421
848.379	23200
848.515	23265
848.65	23200
848.786	23242
848.921	23284
849.057	23318
849.192	23326
849.328	23292
849.463	23330
849.598	23159
849.734	23181
849.869	23181
850.004	22930
850.14	22991
850.275	23060
850.41	22942
850.545	22984
850.68	22927
850.815	23003
850.95	23064
851.085	23220
851.22	23178
851.355	22999
851.49	23075
851.625	22999
851.76	23071
851.895	23044
852.03	22965
852.165	23029
852.299	23029
852.434	23048
852.569	23018
852.703	22991
852.838	23037
852.973	23136
853.107	23094
853.242	22957
853.376	22843
853.511	22824
853.645	22698
853.78	23029
853.914	22976
854.048	22816
854.183	22965
854.317	22984
854.451	23041
854.585	22942
854.72	22824
854.854	22927
854.988	22759
855.122	22850
855.256	22637
855.39	22911
855.524	22923
855.658	23014
855.792	22858
855.926	22957
856.06	22820
856.194	22938
856.327	22828
856.461	22790
856.595	22706
856.729	22812
856.862	22995
856.996	22850
857.13	22900
857.263	22763
857.397	22976
857.53	22763
857.664	22927
857.797	22869
857.931	22972
858.064	22949
858.197	22927
858.331	22786
858.464	22774
858.597	22759
858.731	22809
858.864	22736
858.997	22755
859.13	22904
859.263	22839
859.396	22991
859.529	22767
859.662	22858
859.795	22831
859.928	22869
860.061	23044
860.194	23105
860.327	22900
860.46	22869
860.592	23010
860.725	23098
860.858	23003
860.99	22942
861.123	22816
861.256	22748
861.388	22843
861.521	23455
861.653	22816
861.786	22615
861.918	22763
862.05	22645
862.183	22759
862.315	22900
862.447	22881
862.58	22748
862.712	22538
862.844	22428
862.976	22588
863.108	22679
863.24	22908
863.372	22421
863.504	22531
863.636	22546
863.768	22607
863.9	22599
864.032	22565
864.164	22504
864.296	22637
864.428	22706
864.559	22519
864.691	22664
864.823	22702
864.954	22424
865.086	22542
865.217	22580
865.349	22417
865.48	22341
865.612	22554
865.743	22538
865.875	22554
866.006	22409
866.137	22588
866.269	22432
866.4	22523
866.531	22371
866.662	22363
866.793	22413
866.924	22337
867.055	22455
867.186	22291
867.317	22379
867.448	22169
867.579	22337
867.71	22215
867.841	22253
867.972	22398
868.103	22356
868.233	22394
868.364	22382
868.495	22542
868.625	22668
868.756	22774
868.886	22462
869.017	22622
869.147	22763
869.278	22698
869.408	22687
869.539	22557
869.669	22611
869.799	22645
869.929	22698
870.06	22748
870.19	22812
870.32	22885
870.45	22984
870.58	22984
870.71	23064
870.84	23086
870.97	22968
871.1	22984
871.23	23155
871.36	23147
871.489	23155
871.619	23136
871.749	23216
871.879	23208
872.008	23170
872.138	23231
872.267	22965
872.397	22999
872.526	23064
872.656	23071
872.785	23132
872.915	23231
873.044	23406
873.173	23246
873.303	23143
873.432	23322
873.561	23482
873.69	23299
873.819	23277
873.948	23307
874.077	23299
874.206	23178
874.335	23174
874.464	23356
874.593	23444
874.722	23471
874.851	23497
874.979	23383
875.108	23353
875.237	23322
875.365	23364
875.494	23474
875.623	23452
875.751	23455
875.88	23493
876.008	23573
876.136	23585
876.265	23710
876.393	23786
876.521	23847
876.65	23775
876.778	23653
876.906	23855
877.034	23836
877.162	23885
877.29	23554
877.418	23824
877.546	23760
877.674	23657
877.802	23771
877.93	23684
878.058	23729
878.185	23665
878.313	23737
878.441	23718
878.568	23649
878.696	23661
878.824	23824
878.951	23741
879.079	23851
879.206	24106
879.333	23859
879.461	23901
879.588	23923
879.715	23969
879.842	24102
879.97	23851
880.097	23672
880.224	23684
880.351	23672
880.478	23649
880.605	23463
880.732	23634
880.859	23821
880.986	23630
881.112	23570
881.239	23490
881.366	23239
881.493	23292
881.619	23136
881.746	23075
881.872	23159
881.999	23048
882.125	23079
882.252	23185
882.378	23048
882.505	23273
882.631	22968
882.757	22904
882.883	22877
883.01	22873
883.136	22759
883.262	22637
883.388	22733
883.514	22744
883.64	22881
883.766	22790
883.892	22443
884.018	22630
884.143	22797
884.269	22862
884.395	22573
884.52	22478
884.646	22504
884.772	22424
884.897	22417
885.023	22497
885.148	22580
885.274	22675
885.399	22550
885.524	22363
885.65	22417
885.775	22455
885.9	22386
886.025	22462
886.15	22470
886.275	22421
886.4	22226
886.525	22337
886.65	22531
886.775	22303
886.9	22497
887.025	22596
887.149	22291
887.274	22219
887.399	22116
887.523	22238
887.648	22135
887.773	22067
887.897	22249
888.021	22242
888.146	22204
888.27	22295
888.395	22333
888.519	22177
888.643	22143
888.767	22230
888.891	22025
889.015	22010
889.139	21903
889.263	22017
889.387	22105
889.511	22173
889.635	22078
889.759	22128
889.883	21998
890.006	22059
890.13	22086
890.254	21975
890.377	21880
890.501	21778
890.624	21656
890.748	21679
890.871	21618
890.995	21545
891.118	21439
891.241	21545
891.364	21500
891.488	21682
891.611	21530
891.734	21557
891.857	21595
891.98	21473
892.103	21568
892.226	21545
892.349	21431
892.471	21306
892.594	21462
892.717	21462
892.839	21370
892.962	21481
893.085	21386
893.207	21359
893.33	21336
893.452	21294
893.575	21405
893.697	21370
893.819	21519
893.941	21542
894.064	21610
894.186	21428
894.308	21325
894.43	21549
894.552	21526
894.674	21469
894.796	21146
894.918	21317
895.04	21249
895.161	21367
895.283	21291
895.405	21279
895.526	21382
895.648	21268
895.769	21370
895.891	21317
896.012	21405
896.134	21401
896.255	21389
896.376	21443
896.498	21340
896.619	21500
896.74	21412
896.861	21454
896.982	21766
897.103	21720
897.224	21648
897.345	21648
897.466	21485
897.587	21614
897.708	21633
897.828	21507
897.949	21504
898.07	21393
898.19	21504
898.311	21652
898.431	21424
898.552	21564
898.672	21599
898.792	21629
898.913	21538
899.033	21447
899.153	21283
899.273	21272
899.393	21264
899.513	21332
899.633	21264
899.753	21397
899.873	21074
899.993	21291
900.113	21161
900.232	21260
900.352	21150
900.472	21169
900.591	20998
900.711	21142
900.83	21093
900.95	21161
901.069	21096
901.189	20967
901.308	20781
901.427	20598
901.546	20670
901.665	20648
901.784	20526
901.904	20541
902.023	20320
902.141	20183
902.26	20187
902.379	20252
902.498	20077
902.617	20069
902.735	20176
902.854	20039
902.973	20111
903.091	19849
903.21	19826
903.328	19769
903.446	19738
903.565	19499
903.683	19556
903.801	19438
903.919	19518
904.038	19605
904.156	19381
904.274	19449
904.392	19365
904.51	19304
904.627	19343
904.745	19350
904.863	19434
904.981	19160
905.098	19012
905.216	19019
905.334	19027
905.451	19046
905.569	19042
905.686	19012
905.803	18985
905.921	18730
906.038	18878
906.155	18856
906.272	18749
906.389	18719
906.506	18604
906.623	18578
906.74	18509
906.857	18346
906.974	18437
907.091	18711
907.208	18673
907.324	18460
907.441	18426
907.557	18205
907.674	18338
907.79	18159
907.907	18186
908.023	18327
908.139	18163
908.256	18106
908.372	18095
908.488	18049
908.604	17916
908.72	18011
908.836	18030
908.952	18030
909.068	17992
909.184	18091
909.3	17874
909.415	17946
909.531	17897
909.647	17733
909.762	17726
909.878	17684
909.993	17741
910.108	17642
910.224	17467
910.339	17585
910.454	17452
910.57	17356
910.685	17349
910.8	17718
910.915	17497
911.03	17387
911.145	17269
911.259	17265
911.374	17159
911.489	17102
911.604	17102
911.718	16892
911.833	16927
911.947	16957
912.062	16927
912.176	16976
912.291	17025
912.405	17029
912.519	17151
912.633	17090
912.748	16938
912.862	16911
912.976	16828
913.09	16668
913.204	16675
913.318	16721
913.431	16729
913.545	16771
913.659	16786
913.772	16752
913.886	16615
914	16535
914.113	16599
914.226	16630
914.34	16645
914.453	16512
914.566	16599
914.68	16417
914.793	16333
914.906	16249
915.019	16135
915.132	16021
915.245	16131
915.358	16158
915.47	16029
915.583	16051
915.696	16200
915.809	16166
915.921	16211
916.034	16067
916.146	15972
916.259	16017
916.371	15956
916.483	16090
916.595	15994
916.708	15949
916.82	15892
916.932	15861
917.044	15960
917.156	15766
917.268	15690
917.38	15732
917.491	15679
917.603	15724
917.715	15827
917.826	15774
917.938	15728
918.049	15652
918.161	15682
918.272	15827
918.384	15747
918.495	15564
918.606	15469
918.717	15439
918.828	15458
918.939	15553
919.05	15405
919.161	15420
919.272	15306
919.383	15336
919.494	15492
919.604	15637
919.715	15416
919.826	15249
919.936	15382
920.047	15462
920.157	15428
920.267	15622
920.378	15420
920.488	15306
920.598	15511
920.708	15724
920.818	15610
920.928	15443
921.038	15705
921.148	15599
921.258	15344
921.368	15336
921.477	15169
921.587	15131
921.697	14960
921.806	15089
921.916	14975
922.025	14815
922.134	14899
922.244	14720
922.353	14727
922.462	14610
922.571	14556
922.68	14454
922.789	14442
922.898	14324
923.007	14332
923.116	14404
923.224	14415
923.333	14336
923.442	14278
923.55	14278
923.659	14290
923.767	14305
923.876	14210
923.984	14149
924.092	14126
924.201	14065
924.309	14096
924.417	14164
924.525	13921
924.633	14073
924.741	14941
924.849	13879
924.956	13868
925.064	13784
925.172	13704
925.279	13795
925.387	13761
925.494	13693
925.602	13921
925.709	13883
925.816	13674
925.924	13605
926.031	13776
926.138	13677
926.245	13655
926.352	13590
926.459	13636
926.566	13693
926.673	13658
926.779	13605
926.886	13483
926.993	13358
927.099	13251
927.206	13308
927.312	13225
927.419	13308
927.525	13247
927.631	13346
927.737	13145
927.843	13141
927.95	12958
928.056	13107
928.162	13168
928.267	13129
928.373	13712
928.479	13072
928.585	13015
928.69	13015
928.796	13034
928.901	13000
929.007	12833
929.112	12932
929.218	12859
929.323	12825
929.428	12810
929.533	12909
929.638	12734
929.743	12673
929.848	12798
929.953	12688
930.058	12665
930.163	12437
930.267	12452
930.372	12665
930.477	12346
930.581	12707
930.685	12433
930.79	12376
930.894	12308
930.998	12300
931.103	12418
931.207	12148
931.311	12007
931.415	11942
931.519	11733
931.623	11710
