Data from test_V78500241_257.txt Node
Date: Fri Mar 25 15:43:34 CST 2022
User: usil
Spectrometer: V785-0024
Trigger mode: 0
Integration Time (sec): 4.000000E-1
Scans to average: 1
Nonlinearity correction enabled: false
Boxcar width: 0
Storing dark spectrum: false
XAxis mode: Wavelengths
Number of Pixels in Spectrum: 1024
>>>>>Begin Spectral Data<<<<<
801.071	29512
801.214	29364
801.356	29204
801.499	29075
801.641	28976
801.783	28938
801.926	28995
802.068	28946
802.211	29060
802.353	28672
802.496	28683
802.638	28637
802.78	28809
802.923	28523
803.065	28508
803.208	28588
803.35	28592
803.492	28599
803.635	28812
803.777	28607
803.919	28820
804.061	29178
804.204	28809
804.346	28816
804.488	28672
804.63	28702
804.773	28565
804.915	28687
805.057	28877
805.199	28797
805.341	28881
805.483	28812
805.626	28797
805.768	28660
805.91	28786
806.052	28911
806.194	28869
806.336	29060
806.478	28831
806.62	28908
806.762	29044
806.904	29113
807.046	29375
807.188	29372
807.33	29269
807.472	29387
807.614	29239
807.756	29181
807.898	29208
808.04	29136
808.182	29079
808.324	29121
808.465	29071
808.607	29288
808.749	29307
808.891	29452
809.033	29680
809.174	29471
809.316	29307
809.458	29429
809.6	29375
809.741	29459
809.883	29512
810.025	29630
810.166	29851
810.308	29657
810.45	29627
810.591	29707
810.733	29535
810.875	29535
811.016	29414
811.158	29387
811.299	29585
811.441	29642
811.582	29467
811.724	29375
811.865	29429
812.007	29398
812.148	29341
812.29	29505
812.431	29665
812.573	29794
812.714	29977
812.855	29965
812.997	30045
813.138	30194
813.279	30064
813.421	30064
813.562	29889
813.703	29642
813.845	29668
813.986	29273
814.127	29178
814.268	29006
814.41	29151
814.551	29064
814.692	29170
814.833	28976
814.974	28908
815.115	29037
815.256	28965
815.397	28942
815.539	28873
815.68	28873
815.821	28759
815.962	28892
816.103	28862
816.244	28759
816.385	28561
816.526	28485
816.666	28489
816.807	28257
816.948	28280
817.089	28459
817.23	28341
817.371	28257
817.512	28253
817.653	28215
817.793	28226
817.934	28280
818.075	28261
818.216	28375
818.356	28139
818.497	28063
818.638	27911
818.778	27895
818.919	27949
819.06	28078
819.2	28154
819.341	28131
819.481	28257
819.622	28249
819.762	28535
819.903	28512
820.043	28470
820.184	28318
820.324	28379
820.465	28272
820.605	28455
820.746	28249
820.886	28268
821.026	28268
821.167	28143
821.307	28287
821.447	28143
821.588	28063
821.728	27941
821.868	27857
822.008	27618
822.149	27652
822.289	27633
822.429	27363
822.569	27363
822.709	27386
822.849	27245
822.99	27146
823.13	27047
823.27	26986
823.41	26899
823.55	26693
823.69	26975
823.83	27055
823.97	26986
824.11	26792
824.25	26739
824.389	26693
824.529	26861
824.669	26667
824.809	26788
824.949	26674
825.089	26785
825.228	26811
825.368	26549
825.508	26541
825.648	26583
825.787	26606
825.927	26727
826.067	26507
826.206	26549
826.346	26594
826.485	26663
826.625	26594
826.765	26632
826.904	26667
827.044	26473
827.183	26366
827.323	26278
827.462	26107
827.601	26187
827.741	26157
827.88	26317
828.02	26077
828.159	26252
828.298	26221
828.437	26290
828.577	26210
828.716	26366
828.855	26142
828.994	25909
829.134	25830
829.273	26008
829.412	25917
829.551	25894
829.69	25894
829.829	25966
829.968	25925
830.107	25776
830.246	25955
830.385	25887
830.524	25795
830.663	25700
830.802	25601
830.941	25483
831.08	25419
831.219	25559
831.357	25495
831.496	25681
831.635	25559
831.774	25213
831.913	25324
832.051	25285
832.19	25354
832.329	25335
832.467	25164
832.606	25031
832.744	25141
832.883	25088
833.022	25095
833.16	25095
833.299	25145
833.437	25304
833.576	25221
833.714	25183
833.852	25251
833.991	25183
834.129	25179
834.267	25164
834.406	25179
834.544	25145
834.682	25122
834.821	25171
834.959	25320
835.097	25137
835.235	25141
835.373	25095
835.511	25114
835.65	24973
835.788	24985
835.926	24814
836.064	24768
836.202	24844
836.34	24947
836.478	25012
836.615	24989
836.753	24981
836.891	25050
837.029	24981
837.167	25019
837.305	24806
837.443	24867
837.58	24810
837.718	24757
837.856	24844
837.993	24791
838.131	24700
838.269	24620
838.406	24509
838.544	24494
838.681	24334
838.819	24258
838.956	24129
839.094	24098
839.231	24190
839.369	24235
839.506	24563
839.643	24448
839.781	24209
839.918	24277
840.055	24213
840.193	24136
840.33	24106
840.467	24136
840.604	24060
840.742	24292
840.879	23889
841.016	24087
841.153	23851
841.29	24205
841.427	24098
841.564	24064
841.701	24114
841.838	23999
841.975	24144
842.112	23996
842.249	24003
842.385	23901
842.522	24007
842.659	23798
842.796	23710
842.933	23824
843.069	23794
843.206	23722
843.343	23897
843.479	23817
843.616	23676
843.752	23471
843.889	23756
844.025	23665
844.162	23379
844.298	23535
844.435	23493
844.571	23448
844.708	23661
844.844	23707
844.98	23676
845.117	23611
845.253	23490
845.389	23284
845.525	23395
845.661	23364
845.798	23284
845.934	23356
846.07	23143
846.206	23231
846.342	23376
846.478	23090
846.614	23003
846.75	22984
846.886	23056
847.022	23037
847.158	22953
847.294	22946
847.429	23086
847.565	22889
847.701	23147
847.837	22672
847.972	22698
848.108	22736
848.244	22694
848.379	22557
848.515	22512
848.65	22527
848.786	22497
848.921	22577
849.057	22660
849.192	22599
849.328	22603
849.463	22485
849.598	22531
849.734	22352
849.869	22466
850.004	22409
850.14	22466
850.275	22295
850.41	22257
850.545	22265
850.68	22223
850.815	22310
850.95	22306
851.085	22432
851.22	22341
851.355	22287
851.49	22344
851.625	22284
851.76	22329
851.895	22284
852.03	22223
852.165	22310
852.299	22299
852.434	22394
852.569	22284
852.703	22215
852.838	22379
852.973	22325
853.107	22402
853.242	22158
853.376	22116
853.511	21956
853.645	22021
853.78	22166
853.914	22078
854.048	22070
854.183	22154
854.317	22150
854.451	22242
854.585	22078
854.72	22147
854.854	22109
854.988	22040
855.122	22067
855.256	21937
855.39	22112
855.524	22200
855.658	22082
855.792	22143
855.926	22158
856.06	22048
856.194	22143
856.327	22109
856.461	22063
856.595	22067
856.729	22025
856.862	22181
856.996	22116
857.13	22169
857.263	22204
857.397	22158
857.53	22090
857.664	22128
857.797	22109
857.931	22166
858.064	22211
858.197	22181
858.331	21968
858.464	21949
858.597	21899
858.731	22025
858.864	22078
858.997	22040
859.13	22105
859.263	21960
859.396	22169
859.529	22032
859.662	21956
859.795	22029
859.928	22036
860.061	22131
860.194	22181
860.327	22002
860.46	22002
860.592	22101
860.725	22093
860.858	22185
860.99	22086
861.123	21926
861.256	21975
861.388	21975
861.521	22755
861.653	21899
861.786	21770
861.918	21850
862.05	21987
862.183	21915
862.315	21934
862.447	22090
862.58	22021
862.712	21709
862.844	21846
862.976	21861
863.108	21827
863.24	22158
863.372	21686
863.504	21614
863.636	21785
863.768	21739
863.9	21580
864.032	21576
864.164	21743
864.296	21732
864.428	21785
864.559	21755
864.691	21720
864.823	21606
864.954	21717
865.086	21667
865.217	21614
865.349	21572
865.48	21633
865.612	21561
865.743	21709
865.875	21698
866.006	21599
866.137	21610
866.269	21561
866.4	21477
866.531	21542
866.662	21618
866.793	21606
866.924	21488
867.055	21534
867.186	21416
867.317	21458
867.448	21458
867.579	21454
867.71	21336
867.841	21272
867.972	21557
868.103	21412
868.233	21603
868.364	21481
868.495	21526
868.625	21667
868.756	21709
868.886	21667
869.017	21637
869.147	21838
869.278	21819
869.408	21785
869.539	21701
869.669	21869
869.799	21751
869.929	21831
870.06	21888
870.19	21975
870.32	22029
870.45	22211
870.58	22196
870.71	22207
870.84	22253
870.97	22154
871.1	22082
871.23	22234
871.36	22314
871.489	22215
871.619	22352
871.749	22253
871.879	22325
872.008	22409
872.138	22341
872.267	22348
872.397	22181
872.526	22109
872.656	22158
872.785	22150
872.915	22299
873.044	22459
873.173	22325
873.303	22390
873.432	22493
873.561	22344
873.69	22325
873.819	22462
873.948	22478
874.077	22344
874.206	22287
874.335	22398
874.464	22478
874.593	22615
874.722	22554
874.851	22607
874.979	22736
875.108	22694
875.237	22538
875.365	22459
875.494	22622
875.623	22634
875.751	22519
875.88	22557
876.008	22725
876.136	22824
876.265	22995
876.393	23102
876.521	23056
876.65	22972
876.778	22946
876.906	22847
877.034	23014
877.162	23086
877.29	22786
877.418	22984
877.546	22934
877.674	22908
877.802	22862
877.93	22987
878.058	22873
878.185	22816
878.313	22854
878.441	22858
878.568	22805
878.696	22949
878.824	22999
878.951	23018
879.079	23121
879.206	23345
879.333	23075
879.461	22999
879.588	23204
879.715	23048
879.842	23204
879.97	22995
880.097	22698
880.224	22740
880.351	22835
880.478	22672
880.605	22771
880.732	22873
880.859	22980
880.986	22904
881.112	22854
881.239	22660
881.366	22523
881.493	22409
881.619	22440
881.746	22363
881.872	22325
881.999	22333
882.125	22333
882.252	22462
882.378	22375
882.505	22341
882.631	22265
882.757	22074
882.883	22048
883.01	22048
883.136	21869
883.262	21972
883.388	21880
883.514	21987
883.64	22074
883.766	21918
883.892	21842
884.018	21797
884.143	22078
884.269	21991
884.395	21865
884.52	21572
884.646	21663
884.772	21561
884.897	21576
885.023	21797
885.148	21690
885.274	21774
885.399	21808
885.524	21633
885.65	21713
885.775	21732
885.9	21561
886.025	21728
886.15	21755
886.275	21633
886.4	21610
886.525	21549
886.65	21496
886.775	21519
886.9	21736
887.025	21793
887.149	21637
887.274	21538
887.399	21313
887.523	21424
887.648	21272
887.773	21325
887.897	21443
888.021	21355
888.146	21317
888.27	21473
888.395	21447
888.519	21348
888.643	21306
888.767	21412
888.891	21287
889.015	21317
889.139	21188
889.263	21306
889.387	21233
889.511	21389
889.635	21245
889.759	21032
889.883	21188
890.006	21184
890.13	21298
890.254	21081
890.377	21017
890.501	20952
890.624	20982
890.748	20910
890.871	20853
890.995	20735
891.118	20777
891.241	20689
891.364	20701
891.488	20845
891.611	20769
891.734	20674
891.857	20807
891.98	20712
892.103	20838
892.226	20754
892.349	20716
892.471	20511
892.594	20674
892.717	20731
892.839	20682
892.962	20705
893.085	20682
893.207	20720
893.33	20537
893.452	20530
893.575	20678
893.697	20530
893.819	20777
893.941	20792
894.064	20788
894.186	20568
894.308	20541
894.43	20750
894.552	20807
894.674	20705
894.796	20480
894.918	20644
895.04	20484
895.161	20705
895.283	20674
895.405	20549
895.526	20648
895.648	20670
895.769	20769
895.891	20598
896.012	20705
896.134	20708
896.255	20689
896.376	20625
896.498	20526
896.619	20556
896.74	20636
896.861	20720
896.982	20944
897.103	21222
897.224	20906
897.345	20819
897.466	20739
897.587	20777
897.708	21062
897.828	20834
897.949	20800
898.07	20765
898.19	20754
898.311	20857
898.431	20876
898.552	20727
898.672	20906
898.792	20868
898.913	20914
899.033	20644
899.153	20530
899.273	20503
899.393	20583
899.513	20556
899.633	20594
899.753	20560
899.873	20393
899.993	20579
900.113	20446
900.232	20473
900.352	20381
900.472	20480
900.591	20225
900.711	20290
900.83	20282
900.95	20370
901.069	20499
901.189	20183
901.308	20039
901.427	20031
901.546	19940
901.665	19902
901.784	19772
901.904	19845
902.023	19613
902.141	19430
902.26	19426
902.379	19392
902.498	19274
902.617	19339
902.735	19491
902.854	19324
902.973	19384
903.091	19072
903.21	18985
903.328	19084
903.446	18935
903.565	18825
903.683	18924
903.801	18730
903.919	18757
904.038	18837
904.156	18692
904.274	18711
904.392	18585
904.51	18574
904.627	18582
904.745	18631
904.863	18688
904.981	18407
905.098	18148
905.216	18266
905.334	18323
905.451	18270
905.569	18285
905.686	18258
905.803	18182
905.921	18030
906.038	18117
906.155	18095
906.272	17920
906.389	18057
906.506	17855
906.623	17882
906.74	17710
906.857	17672
906.974	17737
907.091	17752
907.208	17927
907.324	17840
907.441	17634
907.557	17467
907.674	17512
907.79	17444
907.907	17433
908.023	17535
908.139	17421
908.256	17459
908.372	17334
908.488	17421
908.604	17231
908.72	17025
908.836	17181
908.952	17185
909.068	17083
909.184	17250
909.3	17155
909.415	17227
909.531	17048
909.647	16858
909.762	16801
909.878	16816
909.993	16831
910.108	16828
910.224	16767
910.339	16911
910.454	16748
910.57	16626
910.685	16550
910.8	16942
910.915	16771
911.03	16637
911.145	16455
911.259	16371
911.374	16432
911.489	16344
911.604	16341
911.718	16097
911.833	16242
911.947	16150
912.062	16074
912.176	16196
912.291	16314
912.405	16196
912.519	16455
912.633	16306
912.748	16211
912.862	16071
912.976	16032
913.09	15922
913.204	15922
913.318	15991
913.431	16048
913.545	16120
913.659	16010
913.772	15899
913.886	15755
914	15789
914.113	15831
914.226	15911
914.34	15812
914.453	15686
914.566	15789
914.68	15667
914.793	15553
914.906	15431
915.019	15458
915.132	15332
915.245	15450
915.358	15526
915.47	15378
915.583	15336
915.696	15412
915.809	15496
915.921	15492
916.034	15294
916.146	15237
916.259	15146
916.371	15291
916.483	15401
916.595	15245
916.708	15252
916.82	15138
916.932	15264
917.044	15165
917.156	15180
917.268	15036
917.38	15081
917.491	14979
917.603	15051
917.715	15077
917.826	15169
917.938	14967
918.049	14811
918.161	15039
918.272	14990
918.384	15028
918.495	14990
918.606	14739
918.717	14701
918.828	14754
918.939	14663
919.05	14663
919.161	14762
919.272	14545
919.383	14632
919.494	14857
919.604	14944
919.715	14754
919.826	14613
919.936	14659
920.047	14815
920.157	14769
920.267	14952
920.378	14712
920.488	14678
920.598	14815
920.708	15074
920.818	14781
920.928	14876
921.038	14929
921.148	14876
921.258	14670
921.368	14549
921.477	14438
921.587	14511
921.697	14343
921.806	14438
921.916	14294
922.025	14206
922.134	14065
922.244	14088
922.353	14126
922.462	13974
922.571	13898
922.68	13750
922.789	13689
922.898	13636
923.007	13620
923.116	13731
923.224	13605
923.333	13731
923.442	13518
923.55	13578
923.659	13677
923.767	13636
923.876	13468
923.984	13567
924.092	13377
924.201	13396
924.309	13476
924.417	13491
924.525	13362
924.633	13308
924.741	14084
924.849	13114
924.956	13339
925.064	13164
925.172	13069
925.279	13095
925.387	13072
925.494	13114
925.602	13282
925.709	13225
925.816	13027
925.924	13034
926.031	13183
926.138	13038
926.245	13110
926.352	12962
926.459	13069
926.566	13141
926.673	12966
926.779	12783
926.886	12844
926.993	12768
927.099	12665
927.206	12601
927.312	12589
927.419	12677
927.525	12688
927.631	12639
927.737	12654
927.843	12433
927.95	12369
928.056	12506
928.162	12486
928.267	12498
928.373	13080
928.479	12566
928.585	12483
928.69	12456
928.796	12464
928.901	12308
929.007	12262
929.112	12380
929.218	12285
929.323	12175
929.428	12247
929.533	12209
929.638	12175
929.743	12178
929.848	12232
929.953	12114
930.058	12011
930.163	11897
930.267	11923
930.372	11954
930.477	11893
930.581	12030
930.685	11942
930.79	11786
930.894	11813
930.998	11707
931.103	11908
931.207	11551
931.311	11433
931.415	11353
931.519	11109
931.623	11189
