Data from test_V78500241_3251.txt Node
Date: Fri Mar 25 16:04:19 CST 2022
User: usil
Spectrometer: V785-0024
Trigger mode: 0
Integration Time (sec): 4.000000E-1
Scans to average: 1
Nonlinearity correction enabled: false
Boxcar width: 0
Storing dark spectrum: false
XAxis mode: Wavelengths
Number of Pixels in Spectrum: 1024
>>>>>Begin Spectral Data<<<<<
801.071	29022
801.214	28881
801.356	28462
801.499	28436
801.641	28428
801.783	28405
801.926	28546
802.068	28375
802.211	28386
802.353	28287
802.496	28249
802.638	28139
802.78	28086
802.923	28040
803.065	28105
803.208	28211
803.35	28158
803.492	28226
803.635	28257
803.777	28207
803.919	28382
804.061	28634
804.204	28451
804.346	28337
804.488	28413
804.63	28466
804.773	28276
804.915	28447
805.057	28485
805.199	28295
805.341	28554
805.483	28470
805.626	28580
805.768	28561
805.91	28607
806.052	28611
806.194	28466
806.336	28752
806.478	28577
806.62	28504
806.762	28641
806.904	28946
807.046	29147
807.188	29132
807.33	28946
807.472	29109
807.614	28869
807.756	28923
807.898	28965
808.04	28801
808.182	28896
808.324	28930
808.465	28980
808.607	29151
808.749	29307
808.891	29345
809.033	29474
809.174	29353
809.316	29254
809.458	29162
809.6	29277
809.741	29296
809.883	29383
810.025	29573
810.166	29562
810.308	29619
810.45	29524
810.591	29547
810.733	29261
810.875	29372
811.016	29284
811.158	29147
811.299	29383
811.441	29341
811.582	29440
811.724	29345
811.865	29223
812.007	29200
812.148	29273
812.29	29387
812.431	29395
812.573	29615
812.714	29676
812.855	29828
812.997	29798
813.138	29958
813.279	29859
813.421	29657
813.562	29756
813.703	29619
813.845	29440
813.986	29265
814.127	29041
814.268	29010
814.41	28881
814.551	28991
814.692	28976
814.833	28877
814.974	28938
815.115	28968
815.256	28812
815.397	28831
815.539	28915
815.68	29010
815.821	28691
815.962	28835
816.103	28858
816.244	28752
816.385	28664
816.526	28596
816.666	28318
816.807	28223
816.948	28341
817.089	28363
817.23	28459
817.371	28109
817.512	28398
817.653	28295
817.793	28249
817.934	28352
818.075	28329
818.216	28219
818.356	28246
818.497	28090
818.638	27994
818.778	28120
818.919	28036
819.06	28143
819.2	28230
819.341	28295
819.481	28306
819.622	28329
819.762	28786
819.903	28603
820.043	28424
820.184	28451
820.324	28523
820.465	28493
820.605	28493
820.746	28561
820.886	28428
821.026	28424
821.167	28398
821.307	28504
821.447	28508
821.588	28147
821.728	28154
821.868	27991
822.008	27713
822.149	27705
822.289	27759
822.429	27473
822.569	27485
822.709	27401
822.849	27382
822.99	27393
823.13	27260
823.27	27081
823.41	27230
823.55	27077
823.69	27287
823.83	27108
823.97	27032
824.11	26963
824.25	26838
824.389	26876
824.529	27047
824.669	27047
824.809	26982
824.949	27055
825.089	27055
825.228	27024
825.368	26762
825.508	26899
825.648	26853
825.787	26842
825.927	26986
826.067	26861
826.206	26815
826.346	26800
826.485	26800
826.625	26910
826.765	26883
826.904	26967
827.044	26602
827.183	26701
827.323	26522
827.462	26663
827.601	26537
827.741	26655
827.88	26480
828.02	26393
828.159	26556
828.298	26689
828.437	26530
828.577	26438
828.716	26689
828.855	26476
828.994	26244
829.134	26248
829.273	26278
829.412	26237
829.551	26195
829.69	26180
829.829	26229
829.968	26396
830.107	26237
830.246	26336
830.385	26100
830.524	26069
830.663	26126
830.802	25966
830.941	25883
831.08	25791
831.219	25902
831.357	25936
831.496	26103
831.635	25940
831.774	25746
831.913	25666
832.051	25704
832.19	25556
832.329	25609
832.467	25635
832.606	25419
832.744	25582
832.883	25544
833.022	25468
833.16	25590
833.299	25506
833.437	25609
833.576	25620
833.714	25540
833.852	25674
833.991	25613
834.129	25818
834.267	25852
834.406	25689
834.544	25727
834.682	25525
834.821	25594
834.959	25734
835.097	25548
835.235	25670
835.373	25643
835.511	25495
835.65	25426
835.788	25582
835.926	25343
836.064	25297
836.202	25263
836.34	25499
836.478	25438
836.615	25400
836.753	25403
836.891	25578
837.029	25430
837.167	25327
837.305	25289
837.443	25407
837.58	25301
837.718	25278
837.856	25266
837.993	25183
838.131	25126
838.269	25145
838.406	25168
838.544	25065
838.681	24913
838.819	24890
838.956	24817
839.094	24654
839.231	24776
839.369	24928
839.506	24905
839.643	25012
839.781	24715
839.918	24749
840.055	24776
840.193	24719
840.33	24776
840.467	24757
840.604	24570
840.742	24886
840.879	24551
841.016	24536
841.153	24467
841.29	24623
841.427	24681
841.564	24631
841.701	24547
841.838	24589
841.975	24483
842.112	24490
842.249	24376
842.385	24277
842.522	24429
842.659	24365
842.796	24258
842.933	24414
843.069	24266
843.206	24380
843.343	24391
843.479	24311
843.616	24327
843.752	24258
843.889	24228
844.025	24334
844.162	24205
844.298	24281
844.435	24140
844.571	24140
844.708	24095
844.844	24300
844.98	24342
845.117	24228
845.253	24030
845.389	24053
845.525	23999
845.661	23935
845.798	23927
845.934	23840
846.07	23843
846.206	23942
846.342	23984
846.478	23707
846.614	23623
846.75	23562
846.886	23391
847.022	23646
847.158	23551
847.294	23520
847.429	23577
847.565	23581
847.701	23832
847.837	23311
847.972	23330
848.108	23398
848.244	23505
848.379	23261
848.515	23216
848.65	23189
848.786	23189
848.921	23151
849.057	23277
849.192	23162
849.328	23200
849.463	23391
849.598	23178
849.734	23105
849.869	22968
850.004	22965
850.14	23014
850.275	23003
850.41	23060
850.545	22809
850.68	22987
850.815	23037
850.95	22900
851.085	23064
851.22	23014
851.355	23006
851.49	22946
851.625	22957
851.76	22778
851.895	22793
852.03	22949
852.165	22938
852.299	22995
852.434	23010
852.569	22866
852.703	23079
852.838	22900
852.973	23029
853.107	23067
853.242	23006
853.376	22793
853.511	22577
853.645	22915
853.78	22824
853.914	22820
854.048	22698
854.183	22660
854.317	22816
854.451	22908
854.585	22752
854.72	22782
854.854	22812
854.988	22755
855.122	22733
855.256	22710
855.39	22858
855.524	22873
855.658	22835
855.792	22786
855.926	22869
856.06	22812
856.194	22968
856.327	22725
856.461	22824
856.595	22687
856.729	22744
856.862	22847
856.996	22755
857.13	22858
857.263	22923
857.397	22812
857.53	22771
857.664	22782
857.797	22843
857.931	22896
858.064	22820
858.197	22904
858.331	22778
858.464	22702
858.597	22569
858.731	22767
858.864	22725
858.997	22710
859.13	22812
859.263	22698
859.396	22824
859.529	22729
859.662	22744
859.795	22664
859.928	22755
860.061	22858
860.194	22972
860.327	22862
860.46	22793
860.592	23018
860.725	22904
860.858	22923
860.99	22752
861.123	22713
861.256	22748
861.388	22664
861.521	23387
861.653	22672
861.786	22459
861.918	22554
862.05	22588
862.183	22679
862.315	22618
862.447	22645
862.58	22786
862.712	22405
862.844	22447
862.976	22588
863.108	22512
863.24	22755
863.372	22356
863.504	22478
863.636	22447
863.768	22531
863.9	22497
864.032	22314
864.164	22409
864.296	22447
864.428	22561
864.559	22455
864.691	22474
864.823	22371
864.954	22485
865.086	22394
865.217	22310
865.349	22318
865.48	22379
865.612	22226
865.743	22512
865.875	22440
866.006	22299
866.137	22219
866.269	22367
866.4	22333
866.531	22291
866.662	22287
866.793	22169
866.924	22196
867.055	22325
867.186	22211
867.317	22318
867.448	22147
867.579	22261
867.71	22154
867.841	22185
867.972	22261
868.103	22284
868.233	22329
868.364	22367
868.495	22257
868.625	22607
868.756	22569
868.886	22405
869.017	22474
869.147	22637
869.278	22649
869.408	22611
869.539	22725
869.669	22527
869.799	22493
869.929	22691
870.06	22630
870.19	22786
870.32	22637
870.45	22828
870.58	22816
870.71	23105
870.84	22946
870.97	22869
871.1	22828
871.23	22968
871.36	23102
871.489	23029
871.619	23075
871.749	23155
871.879	23128
872.008	23227
872.138	23140
872.267	23197
872.397	22953
872.526	23094
872.656	22919
872.785	22934
872.915	23307
873.044	23193
873.173	23113
873.303	23143
873.432	23181
873.561	23220
873.69	23113
873.819	23006
873.948	23071
874.077	23151
874.206	23056
874.335	23216
874.464	23170
874.593	23277
874.722	23402
874.851	23353
874.979	23337
875.108	23296
875.237	23353
875.365	23132
875.494	23379
875.623	23372
875.751	23341
875.88	23486
876.008	23516
876.136	23383
876.265	23748
876.393	23809
876.521	23885
876.65	23809
876.778	23646
876.906	23695
877.034	23668
877.162	23691
877.29	23687
877.418	23615
877.546	23767
877.674	23638
877.802	23646
877.93	23783
878.058	23558
878.185	23520
878.313	23642
878.441	23703
878.568	23452
878.696	23729
878.824	23691
878.951	23741
879.079	23813
879.206	23942
879.333	23714
879.461	23824
879.588	23764
879.715	23756
879.842	23935
879.97	23748
880.097	23455
880.224	23516
880.351	23509
880.478	23531
880.605	23596
880.732	23372
880.859	23710
880.986	23493
881.112	23467
881.239	23395
881.366	23337
881.493	23113
881.619	23200
881.746	23048
881.872	23143
881.999	23006
882.125	23003
882.252	23098
882.378	23014
882.505	23105
882.631	22816
882.757	22729
882.883	22630
883.01	22752
883.136	22531
883.262	22596
883.388	22577
883.514	22778
883.64	22641
883.766	22573
883.892	22447
884.018	22626
884.143	22584
884.269	22729
884.395	22523
884.52	22363
884.646	22352
884.772	22314
884.897	22276
885.023	22367
885.148	22421
885.274	22588
885.399	22478
885.524	22337
885.65	22474
885.775	22428
885.9	22341
886.025	22421
886.15	22322
886.275	22325
886.4	22265
886.525	22284
886.65	22230
886.775	22280
886.9	22451
887.025	22394
887.149	22249
887.274	22059
887.399	22177
887.523	22093
887.648	22051
887.773	21945
887.897	22131
888.021	22120
888.146	22070
888.27	22226
888.395	22246
888.519	22078
888.643	22131
888.767	22078
888.891	22044
889.015	21819
889.139	21979
889.263	21797
889.387	22078
889.511	22036
889.635	22025
889.759	21895
889.883	21861
890.006	21785
890.13	21937
890.254	21831
890.377	21911
890.501	21488
890.624	21618
890.748	21724
890.871	21534
890.995	21454
891.118	21492
891.241	21507
891.364	21538
891.488	21633
891.611	21408
891.734	21473
891.857	21526
891.98	21561
892.103	21428
892.226	21405
892.349	21405
892.471	21173
892.594	21466
892.717	21344
892.839	21351
892.962	21291
893.085	21378
893.207	21264
893.33	21279
893.452	21287
893.575	21321
893.697	21306
893.819	21549
893.941	21496
894.064	21329
894.186	21173
894.308	21241
894.43	21408
894.552	21473
894.674	21378
894.796	21169
894.918	21230
895.04	21237
895.161	21443
895.283	21351
895.405	21264
895.526	21325
895.648	21344
895.769	21340
895.891	21492
896.012	21344
896.134	21370
896.255	21214
896.376	21207
896.498	21367
896.619	21435
896.74	21355
896.861	21374
896.982	21622
897.103	21713
897.224	21507
897.345	21397
897.466	21382
897.587	21534
897.708	21644
897.828	21504
897.949	21458
898.07	21374
898.19	21428
898.311	21568
898.431	21363
898.552	21401
898.672	21591
898.792	21519
898.913	21378
899.033	21340
899.153	21435
899.273	21150
899.393	21195
899.513	21260
899.633	21157
899.753	21275
899.873	21116
899.993	21173
900.113	21294
900.232	21268
900.352	21142
900.472	21093
900.591	20864
900.711	21047
900.83	20944
900.95	21001
901.069	21093
901.189	20895
901.308	20598
901.427	20602
901.546	20537
901.665	20583
901.784	20552
901.904	20427
902.023	20332
902.141	20210
902.26	20195
902.379	20244
902.498	20183
902.617	19978
902.735	20046
902.854	19982
902.973	20020
903.091	19712
903.21	19769
903.328	19761
903.446	19601
903.565	19613
903.683	19540
903.801	19472
903.919	19384
904.038	19396
904.156	19221
904.274	19293
904.392	19285
904.51	19148
904.627	19316
904.745	19293
904.863	19365
904.981	19084
905.098	18878
905.216	18951
905.334	18947
905.451	18859
905.569	18852
905.686	18970
905.803	18882
905.921	18707
906.038	18795
906.155	18810
906.272	18604
906.389	18547
906.506	18486
906.623	18536
906.74	18384
906.857	18277
906.974	18357
907.091	18547
907.208	18532
907.324	18460
907.441	18338
907.557	18178
907.674	18182
907.79	18098
907.907	18106
908.023	18125
908.139	18167
908.256	18034
908.372	18038
908.488	18136
908.604	17855
908.72	17790
908.836	17897
908.952	17859
909.068	17889
909.184	18079
909.3	17889
909.415	17927
909.531	17847
909.647	17623
909.762	17668
909.878	17566
909.993	17623
910.108	17509
910.224	17665
910.339	17627
910.454	17360
910.57	17379
910.685	17311
910.8	17520
910.915	17387
911.03	17395
911.145	17200
911.259	17185
911.374	17170
911.489	16850
911.604	17060
911.718	16839
911.833	16972
911.947	16812
912.062	16649
912.176	16812
912.291	16908
912.405	16900
912.519	17090
912.633	16961
912.748	16915
912.862	16881
912.976	16736
913.09	16538
913.204	16599
913.318	16752
913.431	16759
913.545	16698
913.659	16744
913.772	16596
913.886	16508
914	16542
914.113	16493
914.226	16603
914.34	16542
914.453	16417
914.566	16527
914.68	16280
914.793	16310
914.906	16097
915.019	16086
915.132	15979
915.245	16013
915.358	16082
915.47	16036
915.583	16067
915.696	16051
915.809	16109
915.921	16135
916.034	15972
916.146	15930
916.259	15911
916.371	16032
916.483	15979
916.595	15975
916.708	15850
916.82	15781
916.932	15778
917.044	15800
917.156	15800
917.268	15625
917.38	15766
917.491	15614
917.603	15625
917.715	15751
917.826	15812
917.938	15595
918.049	15466
918.161	15667
918.272	15610
918.384	15625
918.495	15603
918.606	15428
918.717	15389
918.828	15370
918.939	15408
919.05	15275
919.161	15408
919.272	15211
919.383	15211
919.494	15310
919.604	15614
919.715	15416
919.826	15287
919.936	15302
920.047	15439
920.157	15378
920.267	15557
920.378	15393
920.488	15302
920.598	15500
920.708	15614
920.818	15553
920.928	15428
921.038	15671
921.148	15530
921.258	15275
921.368	15135
921.477	15116
921.587	15089
921.697	14941
921.806	15051
921.916	14857
922.025	14743
922.134	14724
922.244	14621
922.353	14727
922.462	14636
922.571	14480
922.68	14351
922.789	14256
922.898	14396
923.007	14267
923.116	14328
923.224	14290
923.333	14309
923.442	14195
923.55	14119
923.659	14172
923.767	14164
923.876	14084
923.984	14100
924.092	14020
924.201	14138
924.309	14164
924.417	14046
924.525	13936
924.633	13944
924.741	14804
924.849	13700
924.956	13898
925.064	13780
925.172	13643
925.279	13681
925.387	13845
925.494	13628
925.602	13837
925.709	13685
925.816	13655
925.924	13696
926.031	13746
926.138	13689
926.245	13753
926.352	13559
926.459	13772
926.566	13693
926.673	13582
926.779	13381
926.886	13476
926.993	13304
927.099	13244
927.206	13183
927.312	13183
927.419	13320
927.525	13198
927.631	13236
927.737	13095
927.843	13099
927.95	12954
928.056	13118
928.162	13129
928.267	13095
928.373	13616
928.479	13156
928.585	12886
928.69	12958
928.796	13053
928.901	12905
929.007	12684
929.112	12901
929.218	12882
929.323	12787
929.428	12696
929.533	12871
929.638	12620
929.743	12665
929.848	12753
929.953	12692
930.058	12528
930.163	12388
930.267	12437
930.372	12570
930.477	12395
930.581	12547
930.685	12448
930.79	12308
930.894	12323
930.998	12300
931.103	12380
931.207	12015
931.311	11965
931.415	11870
931.519	11779
931.623	11653
