Data from test_V78500241_39.txt Node
Date: Fri Mar 25 15:42:04 CST 2022
User: usil
Spectrometer: V785-0024
Trigger mode: 0
Integration Time (sec): 4.000000E-1
Scans to average: 1
Nonlinearity correction enabled: false
Boxcar width: 0
Storing dark spectrum: false
XAxis mode: Wavelengths
Number of Pixels in Spectrum: 1024
>>>>>Begin Spectral Data<<<<<
801.071	28706
801.214	28596
801.356	28322
801.499	28329
801.641	28249
801.783	28185
801.926	28246
802.068	28405
802.211	28040
802.353	28036
802.496	27808
802.638	27846
802.78	27861
802.923	27728
803.065	27637
803.208	27709
803.35	27694
803.492	27926
803.635	27937
803.777	27759
803.919	28086
804.061	28230
804.204	27831
804.346	27774
804.488	27747
804.63	27770
804.773	27648
804.915	27747
805.057	27914
805.199	27663
805.341	27850
805.483	27941
805.626	28002
805.768	27850
805.91	27949
806.052	27907
806.194	27732
806.336	28139
806.478	27926
806.62	27880
806.762	27869
806.904	28013
807.046	28322
807.188	28200
807.33	28424
807.472	28405
807.614	28249
807.756	28185
807.898	28154
808.04	28036
808.182	28097
808.324	28040
808.465	28101
808.607	28196
808.749	28238
808.891	28424
809.033	28443
809.174	28531
809.316	28436
809.458	28390
809.6	28287
809.741	28489
809.883	28413
810.025	28573
810.166	28694
810.308	28653
810.45	28538
810.591	28584
810.733	28356
810.875	28154
811.016	28265
811.158	28166
811.299	28280
811.441	28470
811.582	28322
811.724	28246
811.865	28242
812.007	28215
812.148	28299
812.29	28268
812.431	28394
812.573	28485
812.714	28645
812.855	28923
812.997	28809
813.138	28976
813.279	28786
813.421	28782
813.562	28767
813.703	28451
813.845	28367
813.986	28143
814.127	28051
814.268	27880
814.41	27873
814.551	27759
814.692	28002
814.833	27793
814.974	27808
815.115	27869
815.256	27736
815.397	27625
815.539	27538
815.68	27519
815.821	27458
815.962	27488
816.103	27572
816.244	27325
816.385	27359
816.526	27313
816.666	27024
816.807	27017
816.948	27032
817.089	27074
817.23	26960
817.371	27024
817.512	26891
817.653	26880
817.793	26826
817.934	26940
818.075	26902
818.216	26986
818.356	26796
818.497	26686
818.638	26625
818.778	26674
818.919	26636
819.06	26724
819.2	26765
819.341	26785
819.481	26777
819.622	26918
819.762	27024
819.903	26891
820.043	26937
820.184	26876
820.324	27001
820.465	26933
820.605	26940
820.746	26887
820.886	26659
821.026	27001
821.167	26735
821.307	26800
821.447	26743
821.588	26556
821.728	26613
821.868	26396
822.008	26168
822.149	26214
822.289	26157
822.429	25970
822.569	25928
822.709	25780
822.849	25689
822.99	25685
823.13	25670
823.27	25571
823.41	25521
823.55	25381
823.69	25537
823.83	25468
823.97	25422
824.11	25244
824.25	25160
824.389	25114
824.529	25103
824.669	25198
824.809	25278
824.949	25232
825.089	25381
825.228	25152
825.368	25141
825.508	24981
825.648	25133
825.787	25118
825.927	25137
826.067	24928
826.206	25034
826.346	24958
826.485	25065
826.625	24977
826.765	25072
826.904	25129
827.044	24905
827.183	24726
827.323	24692
827.462	24688
827.601	24726
827.741	24631
827.88	24673
828.02	24437
828.159	24654
828.298	24772
828.437	24658
828.577	24528
828.716	24700
828.855	24494
828.994	24467
829.134	24369
829.273	24410
829.412	24338
829.551	24266
829.69	24296
829.829	24418
829.968	24357
830.107	24464
830.246	24270
830.385	24266
830.524	24254
830.663	24129
830.802	24079
830.941	23965
831.08	23859
831.219	23870
831.357	23897
831.496	24049
831.635	23942
831.774	23813
831.913	23687
832.051	23661
832.19	23707
832.329	23490
832.467	23608
832.606	23391
832.744	23410
832.883	23414
833.022	23406
833.16	23436
833.299	23554
833.437	23512
833.576	23471
833.714	23406
833.852	23554
833.991	23570
834.129	23604
834.267	23577
834.406	23501
834.544	23520
834.682	23490
834.821	23471
834.959	23581
835.097	23299
835.235	23463
835.373	23493
835.511	23376
835.65	23239
835.788	23330
835.926	23174
836.064	22965
836.202	23060
836.34	23254
836.478	23364
836.615	23277
836.753	23231
836.891	23341
837.029	23208
837.167	23132
837.305	23261
837.443	23143
837.58	23098
837.718	23155
837.856	23197
837.993	23075
838.131	23102
838.269	22949
838.406	23071
838.544	23033
838.681	22664
838.819	22809
838.956	22554
839.094	22573
839.231	22645
839.369	22755
839.506	22949
839.643	22691
839.781	22424
839.918	22508
840.055	22497
840.193	22390
840.33	22489
840.467	22424
840.604	22405
840.742	22641
840.879	22188
841.016	22272
841.153	22204
841.29	22519
841.427	22379
841.564	22386
841.701	22470
841.838	22295
841.975	22112
842.112	22352
842.249	22215
842.385	22067
842.522	22230
842.659	22147
842.796	22067
842.933	22067
843.069	22048
843.206	22036
843.343	22135
843.479	22112
843.616	22200
843.752	21888
843.889	21915
844.025	21972
844.162	21831
844.298	21918
844.435	21880
844.571	21827
844.708	21778
844.844	21903
844.98	22006
845.117	21907
845.253	21743
845.389	21701
845.525	21675
845.661	21724
845.798	21561
845.934	21660
846.07	21416
846.206	21576
846.342	21667
846.478	21496
846.614	21378
846.75	21169
846.886	21252
847.022	21211
847.158	21317
847.294	21313
847.429	21401
847.565	21321
847.701	21431
847.837	21036
847.972	21093
848.108	21096
848.244	21135
848.379	20811
848.515	20769
848.65	20914
848.786	20826
848.921	20830
849.057	20834
849.192	20826
849.328	20918
849.463	20891
849.598	20765
849.734	20549
849.869	20644
850.004	20541
850.14	20480
850.275	20473
850.41	20495
850.545	20461
850.68	20473
850.815	20530
850.95	20533
851.085	20526
851.22	20583
851.355	20507
851.49	20450
851.625	20454
851.76	20473
851.895	20366
852.03	20275
852.165	20465
852.299	20507
852.434	20541
852.569	20564
852.703	20583
852.838	20552
852.973	20454
853.107	20655
853.242	20336
853.376	20263
853.511	20202
853.645	20282
853.78	20377
853.914	20332
854.048	20229
854.183	20168
854.317	20366
854.451	20423
854.585	20298
854.72	20282
854.854	20423
854.988	20115
855.122	20229
855.256	20221
855.39	20278
855.524	20332
855.658	20267
855.792	20282
855.926	20358
856.06	20343
856.194	20320
856.327	20206
856.461	20313
856.595	20317
856.729	20313
856.862	20336
856.996	20294
857.13	20332
857.263	20415
857.397	20313
857.53	20206
857.664	20218
857.797	20427
857.931	20396
858.064	20271
858.197	20286
858.331	20244
858.464	20103
858.597	20111
858.731	20225
858.864	20237
858.997	20180
859.13	20305
859.263	20301
859.396	20332
859.529	20187
859.662	20172
859.795	20138
859.928	20157
860.061	20267
860.194	20343
860.327	20225
860.46	20149
860.592	20343
860.725	20290
860.858	20286
860.99	20214
861.123	20138
861.256	20050
861.388	20187
861.521	20830
861.653	19986
861.786	19978
861.918	20039
862.05	20115
862.183	20339
862.315	20343
862.447	20271
862.58	20195
862.712	20077
862.844	19963
862.976	20065
863.108	20046
863.24	20294
863.372	19875
863.504	19909
863.636	19936
863.768	19970
863.9	19799
864.032	19814
864.164	19936
864.296	19833
864.428	19997
864.559	19913
864.691	20008
864.823	19803
864.954	19814
865.086	19875
865.217	19765
865.349	19715
865.48	19723
865.612	19784
865.743	19963
865.875	19890
866.006	19731
866.137	19826
866.269	19662
866.4	19780
866.531	19772
866.662	19753
866.793	19814
866.924	19677
867.055	19731
867.186	19734
867.317	19674
867.448	19677
867.579	19814
867.71	19685
867.841	19556
867.972	19719
868.103	19677
868.233	19811
868.364	19719
868.495	19811
868.625	19860
868.756	19993
868.886	19898
869.017	19997
869.147	19967
869.278	19982
869.408	19944
869.539	19997
869.669	20024
869.799	19993
869.929	20081
870.06	19970
870.19	20351
870.32	20278
870.45	20290
870.58	20396
870.71	20461
870.84	20438
870.97	20259
871.1	20366
871.23	20579
871.36	20590
871.489	20404
871.619	20575
871.749	20526
871.879	20541
872.008	20632
872.138	20575
872.267	20484
872.397	20400
872.526	20461
872.656	20396
872.785	20385
872.915	20495
873.044	20697
873.173	20484
873.303	20674
873.432	20663
873.561	20701
873.69	20568
873.819	20686
873.948	20587
874.077	20560
874.206	20446
874.335	20602
874.464	20678
874.593	20807
874.722	20804
874.851	20990
874.979	20880
875.108	20838
875.237	20849
875.365	20902
875.494	20792
875.623	20880
875.751	20834
875.88	20937
876.008	20948
876.136	21013
876.265	21173
876.393	21420
876.521	21325
876.65	21340
876.778	21230
876.906	21142
877.034	21070
877.162	21195
877.29	21081
877.418	21161
877.546	21241
877.674	21355
877.802	21222
877.93	21116
878.058	20956
878.185	21051
878.313	21165
878.441	21112
878.568	21066
878.696	21051
878.824	21321
878.951	21294
879.079	21298
879.206	21534
879.333	21435
879.461	21214
879.588	21370
879.715	21363
879.842	21473
879.97	21344
880.097	21039
880.224	20975
880.351	21066
880.478	20925
880.605	21051
880.732	21036
880.859	21416
880.986	21001
881.112	21058
881.239	21005
881.366	20788
881.493	20807
881.619	20651
881.746	20674
881.872	20667
881.999	20663
882.125	20655
882.252	20644
882.378	20609
882.505	20712
882.631	20522
882.757	20415
882.883	20393
883.01	20298
883.136	20442
883.262	20263
883.388	20233
883.514	20358
883.64	20473
883.766	20396
883.892	20157
884.018	20157
884.143	20263
884.269	20412
884.395	20126
884.52	20039
884.646	19970
884.772	19986
884.897	19936
885.023	20043
885.148	20058
885.274	20210
885.399	20111
885.524	20001
885.65	20134
885.775	20100
885.9	19986
886.025	20054
886.15	20100
886.275	19932
886.4	19947
886.525	20024
886.65	19986
886.775	19883
886.9	20115
887.025	20202
887.149	19902
887.274	19818
887.399	19887
887.523	19750
887.648	19693
887.773	19643
887.897	19807
888.021	19776
888.146	19681
888.27	19837
888.395	19868
888.519	19959
888.643	19681
888.767	19761
888.891	19586
889.015	19445
889.139	19582
889.263	19491
889.387	19727
889.511	19696
889.635	19624
889.759	19529
889.883	19575
890.006	19613
890.13	19578
890.254	19506
890.377	19487
890.501	19320
890.624	19312
890.748	19422
890.871	19251
890.995	19069
891.118	19069
891.241	19244
891.364	19168
891.488	19187
891.611	19114
891.734	19038
891.857	19190
891.98	19141
892.103	19209
892.226	19156
892.349	19088
892.471	18962
892.594	19042
892.717	19069
892.839	19072
892.962	19099
893.085	19095
893.207	19133
893.33	19000
893.452	19008
893.575	19061
893.697	19053
893.819	19259
893.941	19278
894.064	19236
894.186	19015
894.308	19019
894.43	19118
894.552	19209
894.674	19209
894.796	19034
894.918	18993
895.04	19088
895.161	19088
895.283	19171
895.405	19072
895.526	19084
895.648	19095
895.769	19164
895.891	19152
896.012	19244
896.134	19168
896.255	19190
896.376	19175
896.498	19118
896.619	19183
896.74	19129
896.861	19228
896.982	19438
897.103	19544
897.224	19464
897.345	19384
897.466	19362
897.587	19544
897.708	19483
897.828	19213
897.949	19327
898.07	19255
898.19	19255
898.311	19392
898.431	19251
898.552	19346
898.672	19426
898.792	19426
898.913	19358
899.033	19213
899.153	19076
899.273	19000
899.393	18973
899.513	19126
899.633	19129
899.753	19019
899.873	19057
899.993	19042
900.113	18993
900.232	19095
900.352	18901
900.472	18897
900.591	18753
900.711	18901
900.83	18890
900.95	18909
901.069	18935
901.189	18833
901.308	18426
901.427	18433
901.546	18433
901.665	18460
901.784	18517
901.904	18319
902.023	18186
902.141	18011
902.26	18049
902.379	17946
902.498	17920
902.617	17912
902.735	18019
902.854	17935
902.973	17977
903.091	17699
903.21	17600
903.328	17608
903.446	17577
903.565	17391
903.683	17482
903.801	17379
903.919	17410
904.038	17425
904.156	17143
904.274	17326
904.392	17242
904.51	17280
904.627	17212
904.745	17269
904.863	17162
904.981	17052
905.098	16900
905.216	16850
905.334	16919
905.451	16778
905.569	16812
905.686	16930
905.803	16877
905.921	16603
906.038	16706
906.155	16634
906.272	16691
906.389	16531
906.506	16390
906.623	16489
906.74	16447
906.857	16284
906.974	16287
907.091	16455
907.208	16554
907.324	16451
907.441	16257
907.557	16097
907.674	16124
907.79	16059
907.907	15975
908.023	16124
908.139	16021
908.256	16025
908.372	15918
908.488	15964
908.604	15899
908.72	15785
908.836	15789
908.952	15766
909.068	15789
909.184	15835
909.3	15827
909.415	15789
909.531	15720
909.647	15443
909.762	15466
909.878	15439
909.993	15485
910.108	15481
910.224	15507
910.339	15439
910.454	15321
910.57	15264
910.685	15203
910.8	15428
910.915	15378
911.03	15393
911.145	15176
911.259	15051
911.374	15104
911.489	15036
911.604	14986
911.718	14819
911.833	14887
911.947	14720
912.062	14678
912.176	14899
912.291	14868
912.405	14933
912.519	15074
912.633	14982
912.748	14899
912.862	14781
912.976	14678
913.09	14530
913.204	14545
913.318	14674
913.431	14765
913.545	14800
913.659	14781
913.772	14613
913.886	14454
914	14473
914.113	14590
914.226	14590
914.34	14575
914.453	14377
914.566	14518
914.68	14320
914.793	14351
914.906	14199
915.019	14134
915.132	14024
915.245	14084
915.358	14202
915.47	14062
915.583	14153
915.696	14107
915.809	14301
915.921	14191
916.034	14031
916.146	14058
916.259	14016
916.371	14100
916.483	14027
916.595	14035
916.708	13921
916.82	13993
916.932	13830
917.044	13928
917.156	13833
917.268	13757
917.38	13837
917.491	13776
917.603	13849
917.715	13936
917.826	13791
917.938	13681
918.049	13693
918.161	13753
918.272	13864
918.384	13906
918.495	13693
918.606	13575
918.717	13476
918.828	13559
918.939	13613
919.05	13518
919.161	13506
919.272	13293
919.383	13327
919.494	13514
919.604	13731
919.715	13559
919.826	13422
919.936	13499
920.047	13597
920.157	13540
920.267	13696
920.378	13567
920.488	13449
920.598	13696
920.708	13753
920.818	13674
920.928	13632
921.038	13864
921.148	13822
921.258	13415
921.368	13480
921.477	13244
921.587	13274
921.697	13194
921.806	13320
921.916	13160
922.025	12973
922.134	12966
922.244	12909
922.353	13061
922.462	12798
922.571	12757
922.68	12604
922.789	12582
922.898	12665
923.007	12456
923.116	12623
923.224	12528
923.333	12467
923.442	12486
923.55	12467
923.659	12346
923.767	12498
923.876	12330
923.984	12433
924.092	12308
924.201	12289
924.309	12403
924.417	12395
924.525	12308
924.633	12346
924.741	13217
924.849	12041
924.956	12235
925.064	12087
925.172	11996
925.279	12019
925.387	11973
925.494	12057
925.602	12136
925.709	12110
925.816	12030
925.924	12057
926.031	12026
926.138	12007
926.245	12034
926.352	11961
926.459	12041
926.566	12060
926.673	11965
926.779	11832
926.886	11847
926.993	11615
927.099	11710
927.206	11558
927.312	11608
927.419	11676
927.525	11573
927.631	11642
927.737	11615
927.843	11490
927.95	11322
928.056	11463
928.162	11512
928.267	11402
928.373	12201
928.479	11577
928.585	11273
928.69	11448
928.796	11459
928.901	11353
929.007	11284
929.112	11341
929.218	11284
929.323	11227
929.428	11239
929.533	11459
929.638	11109
929.743	11166
929.848	11303
929.953	11117
930.058	11124
930.163	10908
930.267	11010
930.372	11079
930.477	10763
930.581	11147
930.685	10972
930.79	10885
930.894	10862
930.998	10831
931.103	10915
931.207	10599
931.311	10413
931.415	10394
931.519	10211
931.623	10158
