Data from test_V78500241_3368.txt Node
Date: Fri Mar 25 16:05:07 CST 2022
User: usil
Spectrometer: V785-0024
Trigger mode: 0
Integration Time (sec): 4.000000E-1
Scans to average: 1
Nonlinearity correction enabled: false
Boxcar width: 0
Storing dark spectrum: false
XAxis mode: Wavelengths
Number of Pixels in Spectrum: 1024
>>>>>Begin Spectral Data<<<<<
801.071	28660
801.214	28592
801.356	28265
801.499	28348
801.641	28055
801.783	28173
801.926	28249
802.068	28196
802.211	28074
802.353	28135
802.496	27835
802.638	27869
802.78	27717
802.923	27846
803.065	27739
803.208	27903
803.35	27949
803.492	28124
803.635	28032
803.777	27903
803.919	28139
804.061	28470
804.204	28078
804.346	28063
804.488	27922
804.63	28154
804.773	28059
804.915	28154
805.057	28234
805.199	28036
805.341	28021
805.483	28169
805.626	28265
805.768	28070
805.91	28261
806.052	28398
806.194	28226
806.336	28310
806.478	28280
806.62	28295
806.762	28459
806.904	28531
807.046	28938
807.188	28710
807.33	28687
807.472	28812
807.614	28748
807.756	28691
807.898	28478
808.04	28409
808.182	28504
808.324	28569
808.465	28569
808.607	28881
808.749	28892
808.891	29143
809.033	29185
809.174	28854
809.316	28991
809.458	28976
809.6	28850
809.741	29006
809.883	29102
810.025	29155
810.166	29318
810.308	29288
810.45	29151
810.591	29151
810.733	29033
810.875	28995
811.016	28771
811.158	28965
811.299	29102
811.441	29159
811.582	28995
811.724	28927
811.865	29010
812.007	28980
812.148	28991
812.29	29151
812.431	29212
812.573	29337
812.714	29292
812.855	29459
812.997	29497
813.138	29630
813.279	29722
813.421	29417
813.562	29478
813.703	29273
813.845	29284
813.986	28953
814.127	28778
814.268	28702
814.41	28744
814.551	28687
814.692	28752
814.833	28584
814.974	28504
815.115	28729
815.256	28565
815.397	28542
815.539	28470
815.68	28443
815.821	28405
815.962	28394
816.103	28310
816.244	28207
816.385	28276
816.526	28223
816.666	27930
816.807	27949
816.948	27953
817.089	28048
817.23	27926
817.371	27892
817.512	27918
817.653	27888
817.793	28013
817.934	27949
818.075	28097
818.216	27998
818.356	27964
818.497	27762
818.638	27705
818.778	27641
818.919	27690
819.06	27709
819.2	27865
819.341	27846
819.481	28006
819.622	28143
819.762	28360
819.903	28150
820.043	28242
820.184	28090
820.324	28070
820.465	28207
820.605	28226
820.746	28093
820.886	28048
821.026	28101
821.167	28128
821.307	28173
821.447	28059
821.588	27941
821.728	27846
821.868	27766
822.008	27374
822.149	27447
822.289	27355
822.429	27298
822.569	27119
822.709	27089
822.849	27043
822.99	26906
823.13	26994
823.27	26986
823.41	26887
823.55	26644
823.69	26693
823.83	26655
823.97	26743
824.11	26518
824.25	26518
824.389	26724
824.529	26754
824.669	26632
824.809	26686
824.949	26811
825.089	26750
825.228	26667
825.368	26495
825.508	26507
825.648	26499
825.787	26533
825.927	26541
826.067	26427
826.206	26476
826.346	26492
826.485	26568
826.625	26594
826.765	26575
826.904	26571
827.044	26256
827.183	26256
827.323	26191
827.462	26267
827.601	26286
827.741	26225
827.88	26199
828.02	26301
828.159	26088
828.298	26252
828.437	26408
828.577	26263
828.716	26195
828.855	26115
828.994	25811
829.134	25970
829.273	26218
829.412	25963
829.551	26001
829.69	25887
829.829	25883
829.968	25963
830.107	25959
830.246	25982
830.385	25894
830.524	25849
830.663	25734
830.802	25533
830.941	25525
831.08	25468
831.219	25750
831.357	25632
831.496	25757
831.635	25575
831.774	25396
831.913	25502
832.051	25320
832.19	25320
832.329	25434
832.467	25129
832.606	25072
832.744	25225
832.883	25110
833.022	25050
833.16	25354
833.299	25285
833.437	25289
833.576	25266
833.714	25255
833.852	25312
833.991	25384
834.129	25400
834.267	25301
834.406	25282
834.544	25266
834.682	25232
834.821	25145
834.959	25388
835.097	25171
835.235	25419
835.373	25198
835.511	25274
835.65	25088
835.788	24985
835.926	24966
836.064	24837
836.202	24909
836.34	25095
836.478	25133
836.615	25072
836.753	25065
836.891	25247
837.029	25023
837.167	24992
837.305	25050
837.443	24913
837.58	24924
837.718	24958
837.856	25080
837.993	24943
838.131	25004
838.269	24753
838.406	24757
838.544	24700
838.681	24563
838.819	24528
838.956	24376
839.094	24376
839.231	24410
839.369	24593
839.506	24703
839.643	24555
839.781	24395
839.918	24262
840.055	24361
840.193	24239
840.33	24338
840.467	24338
840.604	24323
840.742	24555
840.879	24171
841.016	24334
841.153	24140
841.29	24391
841.427	24232
841.564	24388
841.701	24304
841.838	24270
841.975	24163
842.112	24243
842.249	24091
842.385	23984
842.522	24228
842.659	24053
842.796	24041
842.933	24117
843.069	24076
843.206	24057
843.343	24026
843.479	23999
843.616	24174
843.752	23775
843.889	23874
844.025	24026
844.162	23783
844.298	23954
844.435	23786
844.571	23859
844.708	23954
844.844	23912
844.98	23790
845.117	23980
845.253	23824
845.389	23767
845.525	23710
845.661	23710
845.798	23589
845.934	23600
846.07	23524
846.206	23543
846.342	23764
846.478	23551
846.614	23303
846.75	23204
846.886	23200
847.022	23258
847.158	23421
847.294	23265
847.429	23345
847.565	23231
847.701	23543
847.837	22991
847.972	22930
848.108	23083
848.244	23128
848.379	22790
848.515	22927
848.65	22687
848.786	22938
848.921	22911
849.057	22946
849.192	22957
849.328	22877
849.463	22862
849.598	22847
849.734	22809
849.869	22717
850.004	22641
850.14	22557
850.275	22675
850.41	22504
850.545	22637
850.68	22580
850.815	22645
850.95	22542
851.085	22869
851.22	22790
851.355	22721
851.49	22599
851.625	22637
851.76	22622
851.895	22538
852.03	22637
852.165	22653
852.299	22786
852.434	22634
852.569	22755
852.703	22706
852.838	22759
852.973	22706
853.107	22801
853.242	22573
853.376	22428
853.511	22333
853.645	22352
853.78	22637
853.914	22451
854.048	22409
854.183	22421
854.317	22451
854.451	22626
854.585	22527
854.72	22367
854.854	22504
854.988	22344
855.122	22485
855.256	22379
855.39	22428
855.524	22459
855.658	22554
855.792	22428
855.926	22398
856.06	22519
856.194	22432
856.327	22325
856.461	22375
856.595	22375
856.729	22421
856.862	22664
856.996	22424
857.13	22523
857.263	22698
857.397	22557
857.53	22516
857.664	22394
857.797	22535
857.931	22634
858.064	22478
858.197	22706
858.331	22451
858.464	22337
858.597	22261
858.731	22402
858.864	22424
858.997	22402
859.13	22375
859.263	22500
859.396	22504
859.529	22554
859.662	22379
859.795	22405
859.928	22470
860.061	22630
860.194	22569
860.327	22440
860.46	22394
860.592	22554
860.725	22569
860.858	22592
860.99	22516
861.123	22325
861.256	22379
861.388	22462
861.521	23132
861.653	22322
861.786	22249
861.918	22265
862.05	22405
862.183	22386
862.315	22459
862.447	22405
862.58	22382
862.712	22253
862.844	22116
862.976	22268
863.108	22322
863.24	22706
863.372	22116
863.504	22128
863.636	22204
863.768	22177
863.9	22093
864.032	22226
864.164	22070
864.296	22166
864.428	22337
864.559	22295
864.691	22234
864.823	22032
864.954	22139
865.086	22017
865.217	22021
865.349	21964
865.48	22002
865.612	21941
865.743	22082
865.875	22097
866.006	22048
866.137	22078
866.269	22059
866.4	22021
866.531	22029
866.662	21945
866.793	21998
866.924	21934
867.055	21953
867.186	21983
867.317	21819
867.448	21953
867.579	21797
867.71	21816
867.841	21911
867.972	21968
868.103	21911
868.233	22010
868.364	22006
868.495	22116
868.625	22280
868.756	22291
868.886	22097
869.017	22291
869.147	22261
869.278	22363
869.408	22185
869.539	22154
869.669	22234
869.799	22257
869.929	22314
870.06	22333
870.19	22489
870.32	22489
870.45	22584
870.58	22626
870.71	22656
870.84	22565
870.97	22573
871.1	22584
871.23	22736
871.36	22797
871.489	22664
871.619	22763
871.749	22797
871.879	22843
872.008	22957
872.138	22797
872.267	22923
872.397	22596
872.526	22580
872.656	22630
872.785	22573
872.915	22847
873.044	22923
873.173	22752
873.303	22805
873.432	22877
873.561	22984
873.69	22809
873.819	22839
873.948	22915
874.077	22713
874.206	22771
874.335	22778
874.464	22915
874.593	23018
874.722	23018
874.851	23185
874.979	23136
875.108	23166
875.237	22965
875.365	22904
875.494	22831
875.623	23143
875.751	22987
875.88	23147
876.008	23098
876.136	23258
876.265	23421
876.393	23672
876.521	23505
876.65	23589
876.778	23391
876.906	23292
877.034	23360
877.162	23433
877.29	23159
877.418	23372
877.546	23402
877.674	23452
877.802	23459
877.93	23288
878.058	23254
878.185	23223
878.313	23330
878.441	23269
878.568	23280
878.696	23220
878.824	23406
878.951	23509
879.079	23531
879.206	23760
879.333	23444
879.461	23334
879.588	23459
879.715	23471
879.842	23630
879.97	23505
880.097	23189
880.224	23315
880.351	23242
880.478	23181
880.605	23193
880.732	23227
880.859	23417
880.986	23185
881.112	23261
881.239	23086
881.366	22869
881.493	22824
881.619	22740
881.746	22919
881.872	22755
881.999	22805
882.125	22649
882.252	22812
882.378	22733
882.505	22850
882.631	22618
882.757	22481
882.883	22500
883.01	22466
883.136	22398
883.262	22409
883.388	22272
883.514	22428
883.64	22538
883.766	22424
883.892	22261
884.018	22204
884.143	22333
884.269	22516
884.395	22101
884.52	22017
884.646	22147
884.772	22044
884.897	22021
885.023	22097
885.148	22299
885.274	22200
885.399	22204
885.524	22048
885.65	21964
885.775	22044
885.9	22082
886.025	22040
886.15	22185
886.275	22112
886.4	21934
886.525	22010
886.65	21956
886.775	22002
886.9	22074
887.025	22265
887.149	22032
887.274	21816
887.399	21808
887.523	21823
887.648	21728
887.773	21800
887.897	21823
888.021	21876
888.146	21713
888.27	21941
888.395	21880
888.519	21842
888.643	21892
888.767	21800
888.891	21679
889.015	21542
889.139	21709
889.263	21603
889.387	21709
889.511	21732
889.635	21663
889.759	21603
889.883	21618
890.006	21603
890.13	21724
890.254	21488
890.377	21637
890.501	21351
890.624	21351
890.748	21351
890.871	21207
890.995	21154
891.118	21089
891.241	21222
891.364	21184
891.488	21428
891.611	21233
891.734	21283
891.857	21264
891.98	21214
892.103	21135
892.226	21081
892.349	21066
892.471	20921
892.594	21058
892.717	21123
892.839	20929
892.962	21017
893.085	21100
893.207	21062
893.33	20975
893.452	21127
893.575	21039
893.697	20963
893.819	21089
893.941	21321
894.064	21176
894.186	20891
894.308	20975
894.43	21157
894.552	21138
894.674	21036
894.796	20918
894.918	21089
895.04	21047
895.161	21180
895.283	21058
895.405	20918
895.526	21081
895.648	20956
895.769	20933
895.891	21020
896.012	21207
896.134	21039
896.255	21077
896.376	21009
896.498	21043
896.619	21150
896.74	20971
896.861	21017
896.982	21355
897.103	21534
897.224	21325
897.345	21336
897.466	21241
897.587	21154
897.708	21310
897.828	21268
897.949	21176
898.07	21005
898.19	21131
898.311	21230
898.431	21176
898.552	21176
898.672	21226
898.792	21363
898.913	21214
899.033	21317
899.153	20998
899.273	20887
899.393	21001
899.513	21036
899.633	20895
899.753	20967
899.873	20906
899.993	20929
900.113	20823
900.232	20963
900.352	20971
900.472	20819
900.591	20819
900.711	20781
900.83	20686
900.95	20777
901.069	20769
901.189	20556
901.308	20427
901.427	20282
901.546	20336
901.665	20320
901.784	20347
901.904	20153
902.023	20138
902.141	19917
902.26	19784
902.379	19879
902.498	19791
902.617	19742
902.735	19932
902.854	19868
902.973	19818
903.091	19537
903.21	19510
903.328	19594
903.446	19449
903.565	19293
903.683	19350
903.801	19206
903.919	19129
904.038	19183
904.156	19110
904.274	19160
904.392	19095
904.51	18989
904.627	19072
904.745	19084
904.863	19091
904.981	18806
905.098	18608
905.216	18700
905.334	18730
905.451	18806
905.569	18688
905.686	18715
905.803	18661
905.921	18544
906.038	18551
906.155	18467
906.272	18410
906.389	18384
906.506	18163
906.623	18197
906.74	18159
906.857	18095
906.974	18163
907.091	18251
907.208	18323
907.324	18262
907.441	18144
907.557	17996
907.674	17961
907.79	17904
907.907	17840
908.023	17878
908.139	17965
908.256	17866
908.372	17752
908.488	17699
908.604	17691
908.72	17649
908.836	17665
908.952	17532
909.068	17657
909.184	17687
909.3	17657
909.415	17570
909.531	17657
909.647	17425
909.762	17208
909.878	17288
909.993	17356
910.108	17311
910.224	17277
910.339	17341
910.454	17284
910.57	17067
910.685	17060
910.8	17296
910.915	17288
911.03	17178
911.145	16961
911.259	16877
911.374	16919
911.489	16850
911.604	16771
911.718	16759
911.833	16573
911.947	16630
912.062	16481
912.176	16607
912.291	16675
912.405	16694
912.519	16873
912.633	16828
912.748	16706
912.862	16649
912.976	16451
913.09	16333
913.204	16436
913.318	16451
913.431	16550
913.545	16611
913.659	16569
913.772	16409
913.886	16356
914	16265
914.113	16325
914.226	16443
914.34	16287
914.453	16166
914.566	16280
914.68	16112
914.793	16048
914.906	15850
915.019	15895
915.132	15789
915.245	15835
915.358	15823
915.47	15850
915.583	15770
915.696	15842
915.809	15964
915.921	15983
916.034	15739
916.146	15759
916.259	15724
916.371	15831
916.483	15838
916.595	15686
916.708	15720
916.82	15739
916.932	15603
917.044	15576
917.156	15625
917.268	15466
917.38	15549
917.491	15416
917.603	15416
917.715	15401
917.826	15557
917.938	15447
918.049	15363
918.161	15408
918.272	15599
918.384	15450
918.495	15435
918.606	15336
918.717	15150
918.828	15287
918.939	15237
919.05	15077
919.161	15161
919.272	14971
919.383	15081
919.494	15275
919.604	15294
919.715	15161
919.826	15089
919.936	15165
920.047	15176
920.157	15218
920.267	15294
920.378	15097
920.488	15169
920.598	15382
920.708	15477
920.818	15336
920.928	15180
921.038	15405
921.148	15424
921.258	15085
921.368	14971
921.477	14910
921.587	14952
921.697	14712
921.806	14845
921.916	14765
922.025	14610
922.134	14495
922.244	14427
922.353	14495
922.462	14419
922.571	14328
922.68	14161
922.789	14206
922.898	14138
923.007	14012
923.116	14199
923.224	14107
923.333	14096
923.442	14054
923.55	14039
923.659	14126
923.767	13947
923.876	13909
923.984	13978
924.092	13803
924.201	13970
924.309	13837
924.417	13883
924.525	13769
924.633	13776
924.741	14758
924.849	13658
924.956	13715
925.064	13613
925.172	13487
925.279	13457
925.387	13597
925.494	13537
925.602	13723
925.709	13575
925.816	13396
925.924	13483
926.031	13571
926.138	13422
926.245	13525
926.352	13369
926.459	13472
926.566	13499
926.673	13377
926.779	13316
926.886	13327
926.993	13107
927.099	13080
927.206	13095
927.312	13004
927.419	13088
927.525	13015
927.631	13110
927.737	12954
927.843	12977
927.95	12829
928.056	12848
928.162	12939
928.267	12909
928.373	13441
928.479	12985
928.585	12703
928.69	12817
928.796	12882
928.901	12692
929.007	12593
929.112	12692
929.218	12681
929.323	12623
929.428	12544
929.533	12757
929.638	12513
929.743	12563
929.848	12582
929.953	12540
930.058	12513
930.163	12308
930.267	12273
930.372	12418
930.477	12186
930.581	12441
930.685	12311
930.79	12114
930.894	12175
930.998	12136
931.103	12254
931.207	11836
931.311	11805
931.415	11680
931.519	11589
931.623	11463
