Data from test_V78500241_3035.txt Node
Date: Fri Mar 25 16:02:49 CST 2022
User: usil
Spectrometer: V785-0024
Trigger mode: 0
Integration Time (sec): 4.000000E-1
Scans to average: 1
Nonlinearity correction enabled: false
Boxcar width: 0
Storing dark spectrum: false
XAxis mode: Wavelengths
Number of Pixels in Spectrum: 1024
>>>>>Begin Spectral Data<<<<<
801.071	28843
801.214	28729
801.356	28618
801.499	28656
801.641	28470
801.783	28531
801.926	28508
802.068	28401
802.211	28310
802.353	28265
802.496	28181
802.638	28261
802.78	28120
802.923	28002
803.065	28082
803.208	27880
803.35	28135
803.492	28386
803.635	28394
803.777	28333
803.919	28386
804.061	28641
804.204	28405
804.346	28303
804.488	28318
804.63	28322
804.773	28272
804.915	28504
805.057	28497
805.199	28424
805.341	28443
805.483	28455
805.626	28516
805.768	28348
805.91	28523
806.052	28660
806.194	28527
806.336	28809
806.478	28497
806.62	28736
806.762	28675
806.904	28812
807.046	29083
807.188	28980
807.33	29102
807.472	29071
807.614	28976
807.756	28961
807.898	28854
808.04	28820
808.182	28786
808.324	28755
808.465	28999
808.607	29109
808.749	29220
808.891	29254
809.033	29459
809.174	29261
809.316	29128
809.458	29261
809.6	29033
809.741	29436
809.883	29334
810.025	29573
810.166	29535
810.308	29615
810.45	29474
810.591	29398
810.733	29398
810.875	29083
811.016	29147
811.158	29143
811.299	29368
811.441	29524
811.582	29509
811.724	29280
811.865	29277
812.007	29174
812.148	29261
812.29	29436
812.431	29520
812.573	29733
812.714	29695
812.855	29726
812.997	29897
813.138	29988
813.279	29996
813.421	29790
813.562	29642
813.703	29573
813.845	29535
813.986	29280
814.127	29083
814.268	28858
814.41	29064
814.551	29083
814.692	29064
814.833	28850
814.974	28915
815.115	29022
815.256	28892
815.397	28862
815.539	28961
815.68	28919
815.821	28660
815.962	28809
816.103	28888
816.244	28721
816.385	28485
816.526	28504
816.666	28322
816.807	28223
816.948	28306
817.089	28512
817.23	28223
817.371	28375
817.512	28318
817.653	28207
817.793	28268
817.934	28329
818.075	28253
818.216	28390
818.356	28230
818.497	28131
818.638	27937
818.778	28006
818.919	28158
819.06	28177
819.2	28207
819.341	28348
819.481	28211
819.622	28474
819.762	28668
819.903	28634
820.043	28523
820.184	28645
820.324	28470
820.465	28462
820.605	28519
820.746	28265
820.886	28379
821.026	28394
821.167	28382
821.307	28329
821.447	28390
821.588	28280
821.728	28143
821.868	27934
822.008	27728
822.149	27797
822.289	27979
822.429	27545
822.569	27462
822.709	27447
822.849	27340
822.99	27401
823.13	27260
823.27	27237
823.41	27119
823.55	27119
823.69	27112
823.83	27161
823.97	27001
824.11	26918
824.25	26918
824.389	27081
824.529	27070
824.669	26944
824.809	26948
824.949	27028
825.089	27074
825.228	26906
825.368	26819
825.508	26769
825.648	26872
825.787	26960
825.927	26982
826.067	26762
826.206	26796
826.346	26842
826.485	26883
826.625	26773
826.765	27043
826.904	26876
827.044	26583
827.183	26568
827.323	26613
827.462	26507
827.601	26617
827.741	26522
827.88	26476
828.02	26518
828.159	26579
828.298	26632
828.437	26560
828.577	26400
828.716	26625
828.855	26457
828.994	26259
829.134	26153
829.273	26324
829.412	26218
829.551	26248
829.69	26119
829.829	26187
829.968	26278
830.107	26358
830.246	26278
830.385	26202
830.524	26046
830.663	26096
830.802	25955
830.941	25852
831.08	25738
831.219	25864
831.357	25841
831.496	26031
831.635	25898
831.774	25894
831.913	25693
832.051	25651
832.19	25609
832.329	25712
832.467	25533
832.606	25388
832.744	25476
832.883	25491
833.022	25491
833.16	25643
833.299	25506
833.437	25472
833.576	25556
833.714	25510
833.852	25639
833.991	25502
834.129	25567
834.267	25753
834.406	25597
834.544	25696
834.682	25780
834.821	25521
834.959	25731
835.097	25495
835.235	25685
835.373	25563
835.511	25647
835.65	25396
835.788	25525
835.926	25293
836.064	25209
836.202	25232
836.34	25270
836.478	25518
836.615	25548
836.753	25358
836.891	25327
837.029	25354
837.167	25236
837.305	25373
837.443	25270
837.58	25308
837.718	25384
837.856	25145
837.993	25209
838.131	25232
838.269	25156
838.406	25164
838.544	25114
838.681	24981
838.819	24844
838.956	24593
839.094	24715
839.231	24776
839.369	24837
839.506	25103
839.643	24844
839.781	24810
839.918	24589
840.055	24639
840.193	24555
840.33	24620
840.467	24639
840.604	24715
840.742	24810
840.879	24460
841.016	24505
841.153	24528
841.29	24760
841.427	24627
841.564	24669
841.701	24536
841.838	24532
841.975	24437
842.112	24490
842.249	24414
842.385	24334
842.522	24627
842.659	24544
842.796	24357
842.933	24311
843.069	24232
843.206	24403
843.343	24407
843.479	24403
843.616	24388
843.752	24121
843.889	24049
844.025	24209
844.162	24072
844.298	24178
844.435	24194
844.571	24072
844.708	24095
844.844	24144
844.98	24155
845.117	24220
845.253	24182
845.389	24026
845.525	23973
845.661	24018
845.798	23870
845.934	23904
846.07	23901
846.206	23885
846.342	23908
846.478	23916
846.614	23611
846.75	23562
846.886	23471
847.022	23623
847.158	23566
847.294	23661
847.429	23672
847.565	23554
847.701	23783
847.837	23337
847.972	23288
848.108	23406
848.244	23395
848.379	23220
848.515	23132
848.65	23208
848.786	23368
848.921	23208
849.057	23242
849.192	23250
849.328	23315
849.463	23322
849.598	23105
849.734	23033
849.869	23044
850.004	22869
850.14	22866
850.275	23006
850.41	22850
850.545	22972
850.68	22847
850.815	23037
850.95	22919
851.085	23075
851.22	23090
851.355	23022
851.49	22991
851.625	22835
851.76	22919
851.895	22919
852.03	22790
852.165	22938
852.299	22984
852.434	22968
852.569	23025
852.703	22923
852.838	22896
852.973	23083
853.107	23071
853.242	22946
853.376	22778
853.511	22668
853.645	22710
853.78	22866
853.914	22816
854.048	22816
854.183	22637
854.317	22850
854.451	22854
854.585	22831
854.72	22854
854.854	22869
854.988	22809
855.122	22759
855.256	22630
855.39	22774
855.524	22835
855.658	22854
855.792	22820
855.926	22691
856.06	22778
856.194	22809
856.327	22790
856.461	22645
856.595	22771
856.729	22790
856.862	22892
856.996	22755
857.13	22862
857.263	22790
857.397	22869
857.53	22759
857.664	22702
857.797	22809
857.931	22869
858.064	22729
858.197	22881
858.331	22622
858.464	22713
858.597	22630
858.731	22828
858.864	22694
858.997	22668
859.13	22744
859.263	22782
859.396	22908
859.529	22767
859.662	22763
859.795	22660
859.928	22889
860.061	22797
860.194	22965
860.327	22881
860.46	22858
860.592	22786
860.725	23006
860.858	22774
860.99	22740
861.123	22694
861.256	22740
861.388	22763
861.521	23558
861.653	22626
861.786	22531
861.918	22500
862.05	22622
862.183	22561
862.315	22660
862.447	22660
862.58	22668
862.712	22497
862.844	22565
862.976	22603
863.108	22664
863.24	22843
863.372	22386
863.504	22462
863.636	22432
863.768	22516
863.9	22478
864.032	22405
864.164	22428
864.296	22474
864.428	22622
864.559	22713
864.691	22455
864.823	22455
864.954	22535
865.086	22447
865.217	22344
865.349	22306
865.48	22226
865.612	22352
865.743	22527
865.875	22257
866.006	22344
866.137	22356
866.269	22276
866.4	22257
866.531	22230
866.662	22234
866.793	22265
866.924	22192
867.055	22337
867.186	22287
867.317	22204
867.448	22192
867.579	22253
867.71	22276
867.841	22215
867.972	22314
868.103	22265
868.233	22287
868.364	22428
868.495	22409
868.625	22451
868.756	22656
868.886	22424
869.017	22538
869.147	22645
869.278	22653
869.408	22577
869.539	22573
869.669	22645
869.799	22531
869.929	22706
870.06	22561
870.19	22908
870.32	22782
870.45	22801
870.58	22957
870.71	23033
870.84	23014
870.97	22957
871.1	22987
871.23	23109
871.36	23151
871.489	22980
871.619	23273
871.749	23010
871.879	23121
872.008	23269
872.138	23090
872.267	23204
872.397	23105
872.526	22999
872.656	23056
872.785	22972
872.915	23109
873.044	23174
873.173	23197
873.303	23231
873.432	23159
873.561	23265
873.69	23235
873.819	23231
873.948	23208
874.077	23296
874.206	23136
874.335	23041
874.464	23193
874.593	23326
874.722	23307
874.851	23482
874.979	23322
875.108	23448
875.237	23292
875.365	23197
875.494	23273
875.623	23471
875.751	23356
875.88	23345
876.008	23501
876.136	23478
876.265	23687
876.393	23897
876.521	23745
876.65	23840
876.778	23794
876.906	23745
877.034	23661
877.162	23729
877.29	23665
877.418	23684
877.546	23695
877.674	23642
877.802	23566
877.93	23668
878.058	23615
878.185	23547
878.313	23729
878.441	23592
878.568	23486
878.696	23707
878.824	23672
878.951	23737
879.079	23904
879.206	23866
879.333	23832
879.461	23741
879.588	23824
879.715	23843
879.842	23897
879.97	23870
880.097	23535
880.224	23512
880.351	23509
880.478	23448
880.605	23452
880.732	23459
880.859	23729
880.986	23493
881.112	23543
881.239	23303
881.366	23273
881.493	23155
881.619	23044
881.746	23128
881.872	23117
881.999	23124
882.125	23071
882.252	23105
882.378	23006
882.505	23064
882.631	22858
882.757	22713
882.883	22889
883.01	22767
883.136	22599
883.262	22607
883.388	22615
883.514	22649
883.64	22668
883.766	22675
883.892	22542
884.018	22527
884.143	22626
884.269	22694
884.395	22424
884.52	22344
884.646	22394
884.772	22356
884.897	22246
885.023	22352
885.148	22497
885.274	22421
885.399	22451
885.524	22310
885.65	22367
885.775	22337
885.9	22295
886.025	22538
886.15	22440
886.275	22356
886.4	22124
886.525	22265
886.65	22177
886.775	22112
886.9	22474
887.025	22440
887.149	22325
887.274	22188
887.399	22093
887.523	22192
887.648	22090
887.773	21876
887.897	22044
888.021	22131
888.146	22021
888.27	22051
888.395	22067
888.519	22116
888.643	22207
888.767	22226
888.891	21945
889.015	21911
889.139	22093
889.263	21895
889.387	22070
889.511	22101
889.635	22093
889.759	21850
889.883	21907
890.006	21911
890.13	21979
890.254	21804
890.377	21785
890.501	21625
890.624	21705
890.748	21622
890.871	21583
890.995	21397
891.118	21412
891.241	21458
891.364	21496
891.488	21694
891.611	21545
891.734	21454
891.857	21576
891.98	21477
892.103	21348
892.226	21443
892.349	21473
892.471	21154
892.594	21351
892.717	21481
892.839	21351
892.962	21275
893.085	21428
893.207	21317
893.33	21310
893.452	21233
893.575	21386
893.697	21275
893.819	21507
893.941	21614
894.064	21428
894.186	21340
894.308	21249
894.43	21515
894.552	21416
894.674	21310
894.796	21241
894.918	21378
895.04	21245
895.161	21382
895.283	21454
895.405	21245
895.526	21325
895.648	21287
895.769	21313
895.891	21256
896.012	21466
896.134	21359
896.255	21256
896.376	21291
896.498	21237
896.619	21382
896.74	21291
896.861	21370
896.982	21610
897.103	21793
897.224	21526
897.345	21450
897.466	21359
897.587	21469
897.708	21671
897.828	21519
897.949	21534
898.07	21249
898.19	21389
898.311	21542
898.431	21515
898.552	21447
898.672	21488
898.792	21576
898.913	21488
899.033	21393
899.153	21291
899.273	21142
899.393	21199
899.513	21241
899.633	21321
899.753	21310
899.873	21169
899.993	21249
900.113	21192
900.232	21249
900.352	21180
900.472	21161
900.591	20876
900.711	20971
900.83	20899
900.95	21070
901.069	21169
901.189	20857
901.308	20785
901.427	20564
901.546	20511
901.665	20712
901.784	20583
901.904	20431
902.023	20324
902.141	20164
902.26	20069
902.379	20142
902.498	20130
902.617	19951
902.735	20145
902.854	19925
902.973	19993
903.091	19780
903.21	19807
903.328	19723
903.446	19605
903.565	19491
903.683	19480
903.801	19495
903.919	19529
904.038	19331
904.156	19377
904.274	19297
904.392	19278
904.51	19369
904.627	19255
904.745	19316
904.863	19411
904.981	19072
905.098	18966
905.216	18905
905.334	18909
905.451	18920
905.569	19129
905.686	18894
905.803	19072
905.921	18745
906.038	18730
906.155	18776
906.272	18684
906.389	18707
906.506	18566
906.623	18513
906.74	18460
906.857	18350
906.974	18448
907.091	18585
907.208	18627
907.324	18509
907.441	18334
907.557	18273
907.674	18171
907.79	18121
907.907	18216
908.023	18273
908.139	18201
908.256	18129
908.372	18079
908.488	18114
908.604	17977
908.72	17836
908.836	17946
908.952	17961
909.068	17927
909.184	17999
909.3	17832
909.415	17908
909.531	17874
909.647	17657
909.762	17608
909.878	17634
909.993	17619
910.108	17611
910.224	17524
910.339	17608
910.454	17391
910.57	17474
910.685	17334
910.8	17558
910.915	17429
911.03	17391
911.145	17231
911.259	17261
911.374	17193
911.489	17136
911.604	17037
911.718	16892
911.833	16987
911.947	16892
912.062	16843
912.176	16862
912.291	17041
912.405	16915
912.519	17174
912.633	17197
912.748	17048
912.862	16843
912.976	16717
913.09	16626
913.204	16618
913.318	16892
913.431	16850
913.545	16843
913.659	16744
913.772	16702
913.886	16546
914	16481
914.113	16588
914.226	16618
914.34	16588
914.453	16409
914.566	16626
914.68	16413
914.793	16344
914.906	16166
915.019	16154
915.132	16025
915.245	16093
915.358	15991
915.47	16105
915.583	16071
915.696	16059
915.809	16143
915.921	16048
916.034	16013
916.146	15949
916.259	15937
916.371	16032
916.483	16010
916.595	15812
916.708	15865
916.82	15991
916.932	15770
917.044	15823
917.156	15812
917.268	15667
917.38	15762
917.491	15682
917.603	15686
917.715	15789
917.826	15808
917.938	15701
918.049	15511
918.161	15663
918.272	15759
918.384	15774
918.495	15694
918.606	15515
918.717	15424
918.828	15542
918.939	15466
919.05	15355
919.161	15435
919.272	15081
919.383	15370
919.494	15466
919.604	15591
919.715	15447
919.826	15412
919.936	15397
920.047	15549
920.157	15386
920.267	15682
920.378	15370
920.488	15450
920.598	15477
920.708	15641
920.818	15466
920.928	15511
921.038	15724
921.148	15667
921.258	15306
921.368	15252
921.477	15173
921.587	15032
921.697	14967
921.806	15184
921.916	14979
922.025	14811
922.134	14727
922.244	14815
922.353	14670
922.462	14682
922.571	14549
922.68	14427
922.789	14499
922.898	14328
923.007	14377
923.116	14389
923.224	14309
923.333	14393
923.442	14237
923.55	14221
923.659	14233
923.767	14259
923.876	14069
923.984	14237
924.092	14073
924.201	14164
924.309	14103
924.417	14081
924.525	13947
924.633	13974
924.741	14773
924.849	13868
924.956	13921
925.064	13712
925.172	13632
925.279	13712
925.387	13772
925.494	13681
925.602	13833
925.709	13753
925.816	13632
925.924	13704
926.031	13799
926.138	13552
926.245	13662
926.352	13624
926.459	13708
926.566	13704
926.673	13609
926.779	13540
926.886	13499
926.993	13327
927.099	13308
927.206	13263
927.312	13251
927.419	13293
927.525	13324
927.631	13343
927.737	13209
927.843	13183
927.95	13027
928.056	13110
928.162	13061
928.267	13164
928.373	13803
928.479	13160
928.585	12977
928.69	13008
928.796	13046
928.901	13015
929.007	12741
929.112	12890
929.218	12863
929.323	12867
929.428	12814
929.533	12981
929.638	12779
929.743	12692
929.848	12829
929.953	12703
930.058	12639
930.163	12475
930.267	12521
930.372	12578
930.477	12563
930.581	12635
930.685	12513
930.79	12285
930.894	12369
930.998	12308
931.103	12448
931.207	12041
931.311	11977
931.415	11832
931.519	11745
931.623	11733
