Data from test_V78500241_945.txt Node
Date: Fri Mar 25 15:48:20 CST 2022
User: usil
Spectrometer: V785-0024
Trigger mode: 0
Integration Time (sec): 4.000000E-1
Scans to average: 1
Nonlinearity correction enabled: false
Boxcar width: 0
Storing dark spectrum: false
XAxis mode: Wavelengths
Number of Pixels in Spectrum: 1024
>>>>>Begin Spectral Data<<<<<
801.071	28538
801.214	28481
801.356	28348
801.499	28055
801.641	28162
801.783	28284
801.926	28090
802.068	28147
802.211	28006
802.353	27991
802.496	27724
802.638	27701
802.78	27762
802.923	27682
803.065	27606
803.208	27812
803.35	27850
803.492	27953
803.635	27960
803.777	27842
803.919	28051
804.061	28242
804.204	28105
804.346	27968
804.488	27850
804.63	27926
804.773	27835
804.915	28082
805.057	28166
805.199	27914
805.341	28044
805.483	28147
805.626	28109
805.768	28097
805.91	28173
806.052	28029
806.194	28173
806.336	28485
806.478	28162
806.62	28105
806.762	28268
806.904	28447
807.046	28721
807.188	28577
807.33	28569
807.472	28649
807.614	28538
807.756	28440
807.898	28466
808.04	28371
808.182	28356
808.324	28538
808.465	28512
808.607	28778
808.749	28816
808.891	28908
809.033	28995
809.174	28854
809.316	28675
809.458	28866
809.6	28691
809.741	28934
809.883	28919
810.025	29052
810.166	29109
810.308	29181
810.45	28888
810.591	29090
810.733	28976
810.875	28862
811.016	28782
811.158	28847
811.299	29022
811.441	29079
811.582	29025
811.724	28968
811.865	28831
812.007	28835
812.148	29022
812.29	29006
812.431	29014
812.573	29155
812.714	29334
812.855	29493
812.997	29501
813.138	29672
813.279	29516
813.421	29440
813.562	29448
813.703	29208
813.845	29079
813.986	28831
814.127	28615
814.268	28588
814.41	28573
814.551	28512
814.692	28675
814.833	28512
814.974	28557
815.115	28580
815.256	28367
815.397	28417
815.539	28451
815.68	28348
815.821	28291
815.962	28382
816.103	28329
816.244	28226
816.385	28162
816.526	28139
816.666	28063
816.807	27835
816.948	28082
817.089	28093
817.23	27888
817.371	27812
817.512	27873
817.653	27861
817.793	27804
817.934	27899
818.075	27949
818.216	27983
818.356	27789
818.497	27713
818.638	27591
818.778	27504
818.919	27705
819.06	27717
819.2	27781
819.341	27861
819.481	27956
819.622	28097
819.762	28162
819.903	28226
820.043	28128
820.184	28036
820.324	27972
820.465	28112
820.605	28078
820.746	27994
820.886	27861
821.026	27956
821.167	27998
821.307	27975
821.447	27922
821.588	27899
821.728	27629
821.868	27641
822.008	27447
822.149	27367
822.289	27397
822.429	27146
822.569	27070
822.709	27089
822.849	26921
822.99	26845
823.13	26933
823.27	26887
823.41	26758
823.55	26674
823.69	26678
823.83	26743
823.97	26796
824.11	26583
824.25	26480
824.389	26625
824.529	26785
824.669	26492
824.809	26701
824.949	26701
825.089	26697
825.228	26583
825.368	26377
825.508	26473
825.648	26469
825.787	26385
825.927	26530
826.067	26396
826.206	26412
826.346	26290
826.485	26358
826.625	26400
826.765	26423
826.904	26480
827.044	26126
827.183	26161
827.323	26058
827.462	26233
827.601	26122
827.741	26024
827.88	26157
828.02	26005
828.159	25982
828.298	26134
828.437	26229
828.577	26054
828.716	26218
828.855	26161
828.994	25784
829.134	25784
829.273	25940
829.412	25871
829.551	25871
829.69	25856
829.829	25757
829.968	25871
830.107	25875
830.246	25868
830.385	25776
830.524	25681
830.663	25830
830.802	25514
830.941	25407
831.08	25297
831.219	25434
831.357	25499
831.496	25639
831.635	25438
831.774	25422
831.913	25221
832.051	25156
832.19	25228
832.329	25274
832.467	25282
832.606	25008
832.744	25023
832.883	25015
833.022	25126
833.16	25110
833.299	25080
833.437	25137
833.576	25358
833.714	25266
833.852	25206
833.991	25278
834.129	25236
834.267	25339
834.406	25266
834.544	25198
834.682	25259
834.821	25118
834.959	25354
835.097	25031
835.235	25187
835.373	25213
835.511	25133
835.65	25069
835.788	25019
835.926	24905
836.064	24840
836.202	24814
836.34	25008
836.478	25027
836.615	24897
836.753	25038
836.891	25091
837.029	24985
837.167	24970
837.305	24867
837.443	24924
837.58	24833
837.718	24935
837.856	24886
837.993	24943
838.131	24726
838.269	24604
838.406	24734
838.544	24563
838.681	24547
838.819	24369
838.956	24254
839.094	24410
839.231	24342
839.369	24525
839.506	24688
839.643	24604
839.781	24346
839.918	24174
840.055	24277
840.193	24338
840.33	24243
840.467	24429
840.604	24395
840.742	24479
840.879	24254
841.016	24220
841.153	24064
841.29	24334
841.427	24133
841.564	24292
841.701	24232
841.838	24163
841.975	24121
842.112	24232
842.249	23992
842.385	23847
842.522	24304
842.659	24076
842.796	24045
842.933	23916
843.069	23885
843.206	23897
843.343	24057
843.479	24003
843.616	24011
843.752	23737
843.889	23752
844.025	23851
844.162	23726
844.298	23745
844.435	23794
844.571	23619
844.708	23779
844.844	23939
844.98	23870
845.117	23950
845.253	23638
845.389	23585
845.525	23615
845.661	23493
845.798	23524
845.934	23417
846.07	23425
846.206	23493
846.342	23653
846.478	23318
846.614	23296
846.75	23193
846.886	23273
847.022	23326
847.158	23231
847.294	23170
847.429	23265
847.565	23159
847.701	23410
847.837	22889
847.972	22968
848.108	22968
848.244	23086
848.379	22839
848.515	22797
848.65	22809
848.786	22733
848.921	22854
849.057	22904
849.192	22801
849.328	22721
849.463	22744
849.598	22725
849.734	22778
849.869	22577
850.004	22588
850.14	22622
850.275	22592
850.41	22497
850.545	22440
850.68	22390
850.815	22497
850.95	22592
851.085	22573
851.22	22656
851.355	22565
851.49	22542
851.625	22577
851.76	22500
851.895	22379
852.03	22535
852.165	22599
852.299	22615
852.434	22569
852.569	22565
852.703	22489
852.838	22691
852.973	22588
853.107	22660
853.242	22516
853.376	22443
853.511	22234
853.645	22276
853.78	22611
853.914	22398
854.048	22421
854.183	22242
854.317	22466
854.451	22447
854.585	22337
854.72	22306
854.854	22348
854.988	22322
855.122	22382
855.256	22219
855.39	22337
855.524	22405
855.658	22348
855.792	22344
855.926	22318
856.06	22428
856.194	22371
856.327	22344
856.461	22306
856.595	22287
856.729	22310
856.862	22409
856.996	22379
857.13	22390
857.263	22535
857.397	22432
857.53	22352
857.664	22546
857.797	22363
857.931	22497
858.064	22459
858.197	22592
858.331	22215
858.464	22196
858.597	22211
858.731	22360
858.864	22333
858.997	22276
859.13	22333
859.263	22356
859.396	22413
859.529	22360
859.662	22306
859.795	22291
859.928	22371
860.061	22489
860.194	22459
860.327	22447
860.46	22402
860.592	22470
860.725	22405
860.858	22481
860.99	22333
861.123	22360
861.256	22405
861.388	22246
861.521	22934
861.653	22246
861.786	22105
861.918	22188
862.05	22325
862.183	22310
862.315	22329
862.447	22371
862.58	22128
862.712	22128
862.844	21953
862.976	22166
863.108	22166
863.24	22428
863.372	22021
863.504	22051
863.636	22013
863.768	22078
863.9	22063
864.032	21998
864.164	21964
864.296	22109
864.428	22200
864.559	22128
864.691	22040
864.823	22128
864.954	21987
865.086	22006
865.217	21998
865.349	21827
865.48	21888
865.612	21937
865.743	22112
865.875	21941
866.006	21903
866.137	21899
866.269	21907
866.4	21968
866.531	21979
866.662	21861
866.793	21876
866.924	21934
867.055	21953
867.186	21991
867.317	21876
867.448	21682
867.579	21873
867.71	21823
867.841	21705
867.972	21899
868.103	21865
868.233	21934
868.364	21934
868.495	21903
868.625	22150
868.756	22097
868.886	22059
869.017	22177
869.147	22204
869.278	22074
869.408	22188
869.539	22131
869.669	22070
869.799	22181
869.929	22257
870.06	22226
870.19	22424
870.32	22466
870.45	22493
870.58	22447
870.71	22596
870.84	22493
870.97	22542
871.1	22390
871.23	22713
871.36	22831
871.489	22698
871.619	22706
871.749	22713
871.879	22721
872.008	22850
872.138	22771
872.267	22759
872.397	22641
872.526	22500
872.656	22519
872.785	22592
872.915	22565
873.044	22729
873.173	22653
873.303	22752
873.432	22774
873.561	22866
873.69	22634
873.819	22615
873.948	22725
874.077	22733
874.206	22763
874.335	22634
874.464	22812
874.593	22866
874.722	22953
874.851	23025
874.979	22904
875.108	23003
875.237	22831
875.365	22869
875.494	22919
875.623	22972
875.751	22831
875.88	22850
876.008	22980
876.136	23105
876.265	23220
876.393	23463
876.521	23379
876.65	23349
876.778	23193
876.906	23239
877.034	23200
877.162	23417
877.29	23258
877.418	23223
877.546	23372
877.674	23269
877.802	23227
877.93	23223
878.058	23208
878.185	23170
878.313	23105
878.441	23379
878.568	23006
878.696	23265
878.824	23269
878.951	23334
879.079	23554
879.206	23376
879.333	23414
879.461	23345
879.588	23356
879.715	23436
879.842	23516
879.97	23452
880.097	23124
880.224	23014
880.351	23083
880.478	23174
880.605	23056
880.732	23128
880.859	23311
880.986	23037
881.112	23147
881.239	22976
881.366	22820
881.493	22744
881.619	22626
881.746	22664
881.872	22565
881.999	22577
882.125	22618
882.252	22748
882.378	22637
882.505	22843
882.631	22508
882.757	22375
882.883	22382
883.01	22497
883.136	22295
883.262	22344
883.388	22143
883.514	22318
883.64	22356
883.766	22268
883.892	22135
884.018	22162
884.143	22325
884.269	22337
884.395	22086
884.52	21873
884.646	22010
884.772	22021
884.897	21812
885.023	22135
885.148	22067
885.274	22128
885.399	22147
885.524	21994
885.65	21934
885.775	21884
885.9	22067
886.025	22105
886.15	22074
886.275	21953
886.4	21934
886.525	21907
886.65	21861
886.775	21800
886.9	21975
887.025	22013
887.149	21869
887.274	21827
887.399	21781
887.523	21690
887.648	21572
887.773	21686
887.897	21831
888.021	21747
888.146	21660
888.27	21728
888.395	21797
888.519	21766
888.643	21789
888.767	21766
888.891	21739
889.015	21614
889.139	21610
889.263	21591
889.387	21580
889.511	21660
889.635	21724
889.759	21488
889.883	21469
890.006	21523
890.13	21686
890.254	21488
890.377	21363
890.501	21283
890.624	21199
890.748	21317
890.871	21146
890.995	21123
891.118	21051
891.241	21093
891.364	21028
891.488	21287
891.611	21001
891.734	21093
891.857	21051
891.98	21081
892.103	21096
892.226	21024
892.349	21020
892.471	20883
892.594	20906
892.717	20975
892.839	20918
892.962	21013
893.085	21081
893.207	20921
893.33	20880
893.452	20887
893.575	20975
893.697	20887
893.819	21036
893.941	21131
894.064	21112
894.186	20872
894.308	20902
894.43	21070
894.552	21093
894.674	20998
894.796	20849
894.918	20849
895.04	20876
895.161	20937
895.283	20960
895.405	20899
895.526	20883
895.648	20948
895.769	20891
895.891	20910
896.012	20933
896.134	21024
896.255	20975
896.376	20948
896.498	21005
896.619	20971
896.74	20872
896.861	21157
896.982	21218
897.103	21332
897.224	21161
897.345	21070
897.466	21066
897.587	21195
897.708	21298
897.828	21150
897.949	21077
898.07	21005
898.19	21131
898.311	21256
898.431	21074
898.552	21207
898.672	21233
898.792	21272
898.913	21077
899.033	20975
899.153	20925
899.273	20823
899.393	20861
899.513	20838
899.633	20952
899.753	20845
899.873	20842
899.993	20929
900.113	20849
900.232	20807
900.352	20693
900.472	20663
900.591	20609
900.711	20716
900.83	20587
900.95	20788
901.069	20693
901.189	20621
901.308	20320
901.427	20343
901.546	20218
901.665	20138
901.784	20195
901.904	20153
902.023	20035
902.141	19753
902.26	19666
902.379	19833
902.498	19772
902.617	19780
902.735	19677
902.854	19704
902.973	19647
903.091	19419
903.21	19293
903.328	19476
903.446	19354
903.565	19187
903.683	19042
903.801	19015
903.919	19175
904.038	19076
904.156	18932
904.274	19012
904.392	18878
904.51	18863
904.627	18878
904.745	18897
904.863	18977
904.981	18745
905.098	18593
905.216	18589
905.334	18711
905.451	18574
905.569	18544
905.686	18620
905.803	18551
905.921	18407
906.038	18452
906.155	18437
906.272	18266
906.389	18353
906.506	18190
906.623	18133
906.74	18106
906.857	18034
906.974	17950
907.091	18182
907.208	18296
907.324	18091
907.441	18011
907.557	17828
907.674	17840
907.79	17653
907.907	17824
908.023	17935
908.139	17935
908.256	17828
908.372	17843
908.488	17714
908.604	17585
908.72	17623
908.836	17558
908.952	17554
909.068	17608
909.184	17665
909.3	17505
909.415	17528
909.531	17505
909.647	17208
909.762	17315
909.878	17246
909.993	17280
910.108	17299
910.224	17299
910.339	17178
910.454	17185
910.57	17060
910.685	16972
910.8	17368
910.915	17185
911.03	17048
911.145	16949
911.259	16862
911.374	16831
911.489	16744
911.604	16721
911.718	16535
911.833	16611
911.947	16432
912.062	16500
912.176	16603
912.291	16641
912.405	16500
912.519	16752
912.633	16767
912.748	16599
912.862	16470
912.976	16390
913.09	16238
913.204	16314
913.318	16356
913.431	16386
913.545	16447
913.659	16424
913.772	16497
913.886	16211
914	16177
914.113	16219
914.226	16287
914.34	16242
914.453	15983
914.566	16147
914.68	16112
914.793	15998
914.906	15884
915.019	15770
915.132	15728
915.245	15732
915.358	15831
915.47	15778
915.583	15854
915.696	15747
915.809	15835
915.921	15876
916.034	15656
916.146	15644
916.259	15717
916.371	15743
916.483	15751
916.595	15637
916.708	15591
916.82	15641
916.932	15553
917.044	15481
917.156	15530
917.268	15336
917.38	15424
917.491	15382
917.603	15389
917.715	15447
917.826	15488
917.938	15294
918.049	15237
918.161	15275
918.272	15530
918.384	15458
918.495	15226
918.606	15165
918.717	15036
918.828	15195
918.939	15176
919.05	14982
919.161	15146
919.272	14910
919.383	15009
919.494	15165
919.604	15272
919.715	15131
919.826	15020
919.936	15089
920.047	15195
920.157	15123
920.267	15279
920.378	15089
920.488	15062
920.598	15161
920.708	15374
920.818	15249
920.928	15310
921.038	15306
921.148	15355
921.258	15097
921.368	14971
921.477	14853
921.587	14830
921.697	14693
921.806	14773
921.916	14602
922.025	14575
922.134	14393
922.244	14419
922.353	14514
922.462	14233
922.571	14309
922.68	14103
922.789	14024
922.898	14134
923.007	13989
923.116	14077
923.224	13997
923.333	14084
923.442	13898
923.55	13928
923.659	13928
923.767	13967
923.876	13868
923.984	13917
924.092	13856
924.201	13700
924.309	13826
924.417	13776
924.525	13712
924.633	13689
924.741	14655
924.849	13575
924.956	13731
925.064	13472
925.172	13472
925.279	13434
925.387	13540
925.494	13396
925.602	13567
925.709	13419
925.816	13476
925.924	13430
926.031	13400
926.138	13346
926.245	13369
926.352	13297
926.459	13419
926.566	13544
926.673	13320
926.779	13099
926.886	13190
926.993	13084
927.099	13015
927.206	12928
927.312	13027
927.419	13008
927.525	12989
927.631	13072
927.737	12779
927.843	12825
927.95	12707
928.056	12810
928.162	12821
928.267	12817
928.373	13320
928.479	12958
928.585	12650
928.69	12802
928.796	12878
928.901	12620
929.007	12486
929.112	12692
929.218	12589
929.323	12532
929.428	12380
929.533	12650
929.638	12513
929.743	12456
929.848	12525
929.953	12517
930.058	12346
930.163	12243
930.267	12239
930.372	12441
930.477	12148
930.581	12384
930.685	12235
930.79	12083
930.894	12201
930.998	12011
931.103	12224
931.207	11767
931.311	11703
931.415	11661
931.519	11478
931.623	11478
