Data from test_V78500241_3742.txt Node
Date: Fri Mar 25 16:07:43 CST 2022
User: usil
Spectrometer: V785-0024
Trigger mode: 0
Integration Time (sec): 4.000000E-1
Scans to average: 1
Nonlinearity correction enabled: false
Boxcar width: 0
Storing dark spectrum: false
XAxis mode: Wavelengths
Number of Pixels in Spectrum: 1024
>>>>>Begin Spectral Data<<<<<
801.071	28299
801.214	28105
801.356	27983
801.499	27911
801.641	27880
801.783	27682
801.926	27869
802.068	27728
802.211	27766
802.353	27564
802.496	27561
802.638	27401
802.78	27393
802.923	27294
803.065	27211
803.208	27439
803.35	27466
803.492	27416
803.635	27785
803.777	27458
803.919	27717
804.061	27888
804.204	27751
804.346	27511
804.488	27408
804.63	27660
804.773	27488
804.915	27606
805.057	27694
805.199	27717
805.341	27762
805.483	27720
805.626	27804
805.768	27663
805.91	27781
806.052	27869
806.194	27755
806.336	27869
806.478	27914
806.62	27823
806.762	27888
806.904	28013
807.046	28367
807.188	28166
807.33	28154
807.472	28200
807.614	28196
807.756	28204
807.898	27998
808.04	27987
808.182	28010
808.324	28143
808.465	28082
808.607	28242
808.749	28440
808.891	28516
809.033	28569
809.174	28516
809.316	28417
809.458	28455
809.6	28440
809.741	28622
809.883	28580
810.025	28904
810.166	28725
810.308	28805
810.45	28626
810.591	28519
810.733	28561
810.875	28489
811.016	28398
811.158	28344
811.299	28508
811.441	28489
811.582	28550
811.724	28432
811.865	28493
812.007	28462
812.148	28497
812.29	28618
812.431	28637
812.573	28873
812.714	28831
812.855	29041
812.997	28908
813.138	29105
813.279	29048
813.421	29044
813.562	28934
813.703	28767
813.845	28679
813.986	28386
814.127	28344
814.268	28215
814.41	28166
814.551	28173
814.692	28246
814.833	28055
814.974	28025
815.115	28112
815.256	28006
815.397	28032
815.539	27972
815.68	27880
815.821	27876
815.962	27945
816.103	27808
816.244	27861
816.385	27762
816.526	27713
816.666	27504
816.807	27317
816.948	27500
817.089	27572
817.23	27412
817.371	27515
817.512	27420
817.653	27439
817.793	27397
817.934	27424
818.075	27370
818.216	27504
818.356	27313
818.497	27382
818.638	27207
818.778	27104
818.919	27287
819.06	27325
819.2	27435
819.341	27439
819.481	27507
819.622	27462
819.762	27842
819.903	27732
820.043	27439
820.184	27660
820.324	27450
820.465	27660
820.605	27515
820.746	27458
820.886	27424
821.026	27481
821.167	27572
821.307	27504
821.447	27523
821.588	27325
821.728	27241
821.868	27028
822.008	26952
822.149	26864
822.289	26815
822.429	26617
822.569	26648
822.709	26659
822.849	26412
822.99	26332
823.13	26320
823.27	26503
823.41	26278
823.55	26286
823.69	26111
823.83	26221
823.97	26157
824.11	26008
824.25	25959
824.389	26107
824.529	26161
824.669	26073
824.809	26145
824.949	26107
825.089	26145
825.228	26206
825.368	25932
825.508	25917
825.648	25795
825.787	25879
825.927	25959
826.067	25974
826.206	25921
826.346	26054
826.485	25997
826.625	25871
826.765	25917
826.904	25997
827.044	25715
827.183	25628
827.323	25571
827.462	25811
827.601	25624
827.741	25651
827.88	25734
828.02	25502
828.159	25700
828.298	25639
828.437	25635
828.577	25719
828.716	25715
828.855	25521
828.994	25316
829.134	25339
829.273	25445
829.412	25304
829.551	25320
829.69	25232
829.829	25373
829.968	25362
830.107	25411
830.246	25343
830.385	25285
830.524	25285
830.663	25160
830.802	25168
830.941	24981
831.08	24798
831.219	24928
831.357	25103
831.496	25179
831.635	25053
831.774	24878
831.913	24719
832.051	24741
832.19	24658
832.329	24741
832.467	24673
832.606	24563
832.744	24486
832.883	24631
833.022	24582
833.16	24532
833.299	24601
833.437	24631
833.576	24795
833.714	24684
833.852	24677
833.991	24779
834.129	24871
834.267	24684
834.406	24776
834.544	24730
834.682	24616
834.821	24650
834.959	24798
835.097	24791
835.235	24741
835.373	24810
835.511	24661
835.65	24616
835.788	24490
835.926	24418
836.064	24323
836.202	24357
836.34	24559
836.478	24658
836.615	24494
836.753	24521
836.891	24509
837.029	24578
837.167	24563
837.305	24441
837.443	24410
837.58	24285
837.718	24494
837.856	24315
837.993	24216
838.131	24403
838.269	24178
838.406	24197
838.544	24201
838.681	23965
838.819	24022
838.956	23851
839.094	23908
839.231	23843
839.369	23893
839.506	24258
839.643	23977
839.781	23859
839.918	23786
840.055	23866
840.193	23748
840.33	23703
840.467	23843
840.604	23649
840.742	23889
840.879	23573
841.016	23794
841.153	23691
841.29	23771
841.427	23794
841.564	23859
841.701	23840
841.838	23676
841.975	23615
842.112	23733
842.249	23543
842.385	23585
842.522	23703
842.659	23520
842.796	23497
842.933	23554
843.069	23311
843.206	23318
843.343	23398
843.479	23425
843.616	23421
843.752	23326
843.889	23448
844.025	23524
844.162	23337
844.298	23258
844.435	23299
844.571	23239
844.708	23231
844.844	23292
844.98	23474
845.117	23436
845.253	23265
845.389	23200
845.525	23178
845.661	23212
845.798	23060
845.934	23003
846.07	23033
846.206	23071
846.342	23064
846.478	22991
846.614	22820
846.75	22713
846.886	22668
847.022	22778
847.158	22721
847.294	22759
847.429	22759
847.565	22736
847.701	22991
847.837	22379
847.972	22291
848.108	22554
848.244	22436
848.379	22299
848.515	22421
848.65	22314
848.786	22390
848.921	22405
849.057	22542
849.192	22382
849.328	22341
849.463	22333
849.598	22226
849.734	22169
849.869	22234
850.004	22093
850.14	22055
850.275	22101
850.41	22040
850.545	22002
850.68	22051
850.815	22078
850.95	22109
851.085	22223
851.22	22249
851.355	22154
851.49	22090
851.625	22048
851.76	21975
851.895	21968
852.03	22124
852.165	22109
852.299	22135
852.434	22173
852.569	22078
852.703	22021
852.838	22147
852.973	22249
853.107	22150
853.242	22112
853.376	21968
853.511	21823
853.645	21888
853.78	22105
853.914	21949
854.048	21808
854.183	21724
854.317	21998
854.451	21907
854.585	21941
854.72	21892
854.854	21964
854.988	21800
855.122	21930
855.256	21823
855.39	21968
855.524	21956
855.658	21949
855.792	21911
855.926	21865
856.06	21941
856.194	22097
856.327	21998
856.461	21827
856.595	21991
856.729	21895
856.862	21994
856.996	21873
857.13	22070
857.263	21998
857.397	21975
857.53	21823
857.664	21915
857.797	21880
857.931	22010
858.064	21911
858.197	21918
858.331	22010
858.464	21876
858.597	21880
858.731	21907
858.864	21865
858.997	21846
859.13	21865
859.263	21892
859.396	22078
859.529	21899
859.662	21804
859.795	21850
859.928	21869
860.061	22139
860.194	22154
860.327	21937
860.46	21850
860.592	22013
860.725	22101
860.858	21979
860.99	21831
861.123	21793
861.256	21884
861.388	21892
861.521	22649
861.653	21812
861.786	21739
861.918	21808
862.05	21698
862.183	21835
862.315	21949
862.447	21941
862.58	21869
862.712	21622
862.844	21610
862.976	21743
863.108	21705
863.24	22162
863.372	21557
863.504	21648
863.636	21728
863.768	21736
863.9	21618
864.032	21561
864.164	21633
864.296	21671
864.428	21732
864.559	21694
864.691	21682
864.823	21644
864.954	21698
865.086	21545
865.217	21656
865.349	21401
865.48	21405
865.612	21576
865.743	21587
865.875	21572
866.006	21420
866.137	21530
866.269	21534
866.4	21389
866.531	21469
866.662	21454
866.793	21500
866.924	21435
867.055	21519
867.186	21542
867.317	21389
867.448	21397
867.579	21393
867.71	21416
867.841	21412
867.972	21458
868.103	21492
868.233	21469
868.364	21443
868.495	21477
868.625	21660
868.756	21759
868.886	21591
869.017	21679
869.147	21694
869.278	21732
869.408	21698
869.539	21720
869.669	21720
869.799	21625
869.929	21819
870.06	21819
870.19	21956
870.32	22044
870.45	21941
870.58	21987
870.71	22249
870.84	22128
870.97	22078
871.1	22192
871.23	22295
871.36	22386
871.489	22219
871.619	22188
871.749	22325
871.879	22371
872.008	22417
872.138	22253
872.267	22173
872.397	22169
872.526	22048
872.656	22181
872.785	22162
872.915	22390
873.044	22394
873.173	22436
873.303	22280
873.432	22341
873.561	22409
873.69	22303
873.819	22310
873.948	22409
874.077	22257
874.206	22135
874.335	22242
874.464	22409
874.593	22577
874.722	22500
874.851	22630
874.979	22580
875.108	22588
875.237	22459
875.365	22561
875.494	22493
875.623	22694
875.751	22542
875.88	22512
876.008	22668
876.136	22744
876.265	22908
876.393	22984
876.521	22934
876.65	22790
876.778	22847
876.906	22900
877.034	22835
877.162	22850
877.29	22801
877.418	22881
877.546	22835
877.674	22892
877.802	22767
877.93	22930
878.058	22938
878.185	22801
878.313	22835
878.441	22892
878.568	22706
878.696	22752
878.824	22968
878.951	23003
879.079	22930
879.206	23174
879.333	22999
879.461	22892
879.588	22911
879.715	23086
879.842	23105
879.97	22972
880.097	22748
880.224	22713
880.351	22763
880.478	22645
880.605	22641
880.732	22721
880.859	22824
880.986	22774
881.112	22858
881.239	22618
881.366	22398
881.493	22413
881.619	22158
881.746	22211
881.872	22337
881.999	22181
882.125	22074
882.252	22428
882.378	22253
882.505	22417
882.631	22211
882.757	21892
882.883	22082
883.01	22078
883.136	21949
883.262	21831
883.388	21663
883.514	21937
883.64	21915
883.766	21892
883.892	21846
884.018	21857
884.143	21903
884.269	22040
884.395	21606
884.52	21736
884.646	21660
884.772	21507
884.897	21473
885.023	21561
885.148	21732
885.274	21705
885.399	21591
885.524	21561
885.65	21713
885.775	21504
885.9	21583
886.025	21713
886.15	21660
886.275	21545
886.4	21416
886.525	21625
886.65	21568
886.775	21466
886.9	21576
887.025	21690
887.149	21637
887.274	21401
887.399	21260
887.523	21336
887.648	21287
887.773	21386
887.897	21443
888.021	21420
888.146	21218
888.27	21420
888.395	21450
888.519	21321
888.643	21348
888.767	21317
888.891	21184
889.015	21211
889.139	21279
889.263	21157
889.387	21256
889.511	21332
889.635	21294
889.759	21131
889.883	21226
890.006	21062
890.13	21325
890.254	20990
890.377	21062
890.501	20872
890.624	20834
890.748	21036
890.871	20815
890.995	20655
891.118	20659
891.241	20758
891.364	20727
891.488	20788
891.611	20667
891.734	20701
891.857	20708
891.98	20712
892.103	20686
892.226	20598
892.349	20640
892.471	20381
892.594	20621
892.717	20625
892.839	20613
892.962	20674
893.085	20663
893.207	20644
893.33	20488
893.452	20488
893.575	20568
893.697	20522
893.819	20739
893.941	20788
894.064	20731
894.186	20594
894.308	20518
894.43	20613
894.552	20693
894.674	20762
894.796	20655
894.918	20518
895.04	20522
895.161	20792
895.283	20636
895.405	20571
895.526	20602
895.648	20518
895.769	20594
895.891	20511
896.012	20583
896.134	20739
896.255	20552
896.376	20579
896.498	20689
896.619	20625
896.74	20537
896.861	20609
896.982	20902
897.103	20982
897.224	20815
897.345	20800
897.466	20731
897.587	20758
897.708	20880
897.828	20807
897.949	20777
898.07	20583
898.19	20743
898.311	20899
898.431	20727
898.552	20872
898.672	20868
898.792	20880
898.913	20826
899.033	20765
899.153	20648
899.273	20708
899.393	20598
899.513	20609
899.633	20415
899.753	20598
899.873	20358
899.993	20511
900.113	20404
900.232	20526
900.352	20454
900.472	20385
900.591	20385
900.711	20438
900.83	20237
900.95	20431
901.069	20412
901.189	20164
901.308	19940
901.427	19932
901.546	19936
901.665	19807
901.784	19913
901.904	19746
902.023	19590
902.141	19556
902.26	19438
902.379	19563
902.498	19343
902.617	19518
902.735	19426
902.854	19388
902.973	19228
903.091	19183
903.21	19198
903.328	19091
903.446	18977
903.565	18928
903.683	18928
903.801	18745
903.919	18913
904.038	18806
904.156	18650
904.274	18726
904.392	18566
904.51	18612
904.627	18654
904.745	18669
904.863	18646
904.981	18540
905.098	18391
905.216	18361
905.334	18399
905.451	18319
905.569	18292
905.686	18315
905.803	18418
905.921	18083
906.038	18163
906.155	18110
906.272	18015
906.389	18041
906.506	17931
906.623	17870
906.74	17741
906.857	17703
906.974	17718
907.091	17824
907.208	17912
907.324	17897
907.441	17722
907.557	17596
907.674	17535
907.79	17543
907.907	17528
908.023	17478
908.139	17581
908.256	17440
908.372	17497
908.488	17482
908.604	17330
908.72	17250
908.836	17185
908.952	17162
909.068	17269
909.184	17436
909.3	17242
909.415	17379
909.531	17159
909.647	17025
909.762	17029
909.878	16858
909.993	16961
910.108	16911
910.224	17041
910.339	16892
910.454	16771
910.57	16839
910.685	16835
910.8	17029
910.915	16843
911.03	16763
911.145	16558
911.259	16470
911.374	16561
911.489	16459
911.604	16409
911.718	16268
911.833	16341
911.947	16215
912.062	16105
912.176	16261
912.291	16230
912.405	16352
912.519	16356
912.633	16523
912.748	16306
912.862	16215
912.976	16078
913.09	16048
913.204	16032
913.318	16071
913.431	16158
913.545	16150
913.659	16207
913.772	16021
913.886	15876
914	15956
914.113	16032
914.226	15945
914.34	15907
914.453	15827
914.566	15861
914.68	15739
914.793	15732
914.906	15679
915.019	15462
915.132	15428
915.245	15439
915.358	15526
915.47	15469
915.583	15485
915.696	15473
915.809	15599
915.921	15564
916.034	15378
916.146	15515
916.259	15317
916.371	15416
916.483	15416
916.595	15272
916.708	15268
916.82	15287
916.932	15336
917.044	15287
917.156	15313
917.268	15207
917.38	15211
917.491	15188
917.603	15116
917.715	15192
917.826	15230
917.938	15020
918.049	14902
918.161	15028
918.272	15222
918.384	15241
918.495	15051
918.606	14887
918.717	14830
918.828	14891
918.939	14876
919.05	14701
919.161	14849
919.272	14705
919.383	14777
919.494	14864
919.604	15047
919.715	14762
919.826	14735
919.936	14906
920.047	14868
920.157	14868
920.267	14982
920.378	14853
920.488	14785
920.598	15001
920.708	15081
920.818	14883
920.928	14853
921.038	15119
921.148	15093
921.258	14887
921.368	14708
921.477	14640
921.587	14594
921.697	14450
921.806	14552
921.916	14469
922.025	14267
922.134	14275
922.244	14176
922.353	14271
922.462	14062
922.571	14065
922.68	13822
922.789	13871
922.898	13879
923.007	13822
923.116	13894
923.224	13818
923.333	13856
923.442	13696
923.55	13658
923.659	13647
923.767	13681
923.876	13518
923.984	13769
924.092	13594
924.201	13647
924.309	13537
924.417	13563
924.525	13464
924.633	13521
924.741	14419
924.849	13259
924.956	13419
925.064	13343
925.172	13183
925.279	13232
925.387	13236
925.494	13278
925.602	13392
925.709	13282
925.816	13137
925.924	13114
926.031	13304
926.138	13206
926.245	13282
926.352	13175
926.459	13179
926.566	13251
926.673	13110
926.779	13053
926.886	13061
926.993	12913
927.099	12821
927.206	12798
927.312	12802
927.419	12821
927.525	12776
927.631	12894
927.737	12654
927.843	12681
927.95	12437
928.056	12574
928.162	12673
928.267	12662
928.373	13247
928.479	12642
928.585	12456
928.69	12471
928.796	12555
928.901	12441
929.007	12308
929.112	12486
929.218	12448
929.323	12399
929.428	12224
929.533	12338
929.638	12285
929.743	12243
929.848	12273
929.953	12262
930.058	12175
930.163	12011
930.267	11980
930.372	12083
930.477	11988
930.581	12213
930.685	12053
930.79	11859
930.894	11901
930.998	11885
931.103	12003
931.207	11707
931.311	11543
931.415	11520
931.519	11239
931.623	11280
