Data from test_V78500241_679.txt Node
Date: Fri Mar 25 15:46:30 CST 2022
User: usil
Spectrometer: V785-0024
Trigger mode: 0
Integration Time (sec): 4.000000E-1
Scans to average: 1
Nonlinearity correction enabled: false
Boxcar width: 0
Storing dark spectrum: false
XAxis mode: Wavelengths
Number of Pixels in Spectrum: 1024
>>>>>Begin Spectral Data<<<<<
801.071	28074
801.214	28040
801.356	27770
801.499	27804
801.641	27599
801.783	27736
801.926	27747
802.068	27572
802.211	27500
802.353	27386
802.496	27348
802.638	27412
802.78	27298
802.923	27138
803.065	27325
803.208	27256
803.35	27374
803.492	27279
803.635	27466
803.777	27447
803.919	27519
804.061	27759
804.204	27583
804.346	27477
804.488	27313
804.63	27401
804.773	27488
804.915	27587
805.057	27709
805.199	27701
805.341	27629
805.483	27675
805.626	27534
805.768	27534
805.91	27671
806.052	27747
806.194	27675
806.336	27838
806.478	27686
806.62	27606
806.762	27778
806.904	27956
807.046	28253
807.188	28086
807.33	28048
807.472	28192
807.614	28093
807.756	28070
807.898	27922
808.04	27888
808.182	28036
808.324	27949
808.465	27983
808.607	28154
808.749	28287
808.891	28322
809.033	28592
809.174	28455
809.316	28329
809.458	28314
809.6	28242
809.741	28424
809.883	28561
810.025	28637
810.166	28489
810.308	28717
810.45	28565
810.591	28546
810.733	28394
810.875	28253
811.016	28253
811.158	28276
811.299	28497
811.441	28409
811.582	28466
811.724	28371
811.865	28474
812.007	28265
812.148	28306
812.29	28421
812.431	28497
812.573	28637
812.714	28698
812.855	28885
812.997	28965
813.138	29162
813.279	28976
813.421	28816
813.562	28881
813.703	28637
813.845	28607
813.986	28211
814.127	28150
814.268	28116
814.41	27994
814.551	27975
814.692	28169
814.833	27975
814.974	28097
815.115	27994
815.256	27903
815.397	27800
815.539	27922
815.68	27781
815.821	27800
815.962	27842
816.103	27903
816.244	27663
816.385	27644
816.526	27663
816.666	27485
816.807	27370
816.948	27370
817.089	27374
817.23	27291
817.371	27363
817.512	27264
817.653	27252
817.793	27298
817.934	27431
818.075	27272
818.216	27264
818.356	27272
818.497	27264
818.638	27112
818.778	26948
818.919	27093
819.06	27199
819.2	27195
819.341	27416
819.481	27382
819.622	27427
819.762	27610
819.903	27454
820.043	27507
820.184	27405
820.324	27496
820.465	27583
820.605	27450
820.746	27466
820.886	27169
821.026	27344
821.167	27230
821.307	27481
821.447	27435
821.588	27241
821.728	27116
821.868	27112
822.008	26773
822.149	26819
822.289	26625
822.429	26549
822.569	26419
822.709	26518
822.849	26229
822.99	26252
823.13	26324
823.27	26221
823.41	26172
823.55	25860
823.69	26088
823.83	26088
823.97	25864
824.11	25932
824.25	25856
824.389	25917
824.529	26001
824.669	25974
824.809	26145
824.949	26012
825.089	26008
825.228	26020
825.368	25753
825.508	25879
825.648	25845
825.787	25784
825.927	25951
826.067	25734
826.206	25871
826.346	25738
826.485	25913
826.625	25734
826.765	25925
826.904	25894
827.044	25628
827.183	25495
827.323	25506
827.462	25578
827.601	25571
827.741	25533
827.88	25628
828.02	25468
828.159	25457
828.298	25464
828.437	25670
828.577	25559
828.716	25540
828.855	25449
828.994	25168
829.134	25168
829.273	25266
829.412	25327
829.551	25289
829.69	25274
829.829	25301
829.968	25266
830.107	25324
830.246	25289
830.385	25339
830.524	25107
830.663	24939
830.802	24992
830.941	24814
831.08	24776
831.219	24932
831.357	24875
831.496	25034
831.635	24856
831.774	24726
831.913	24681
832.051	24589
832.19	24654
832.329	24597
832.467	24498
832.606	24513
832.744	24410
832.883	24445
833.022	24445
833.16	24563
833.299	24597
833.437	24525
833.576	24578
833.714	24593
833.852	24593
833.991	24635
834.129	24631
834.267	24574
834.406	24627
834.544	24570
834.682	24646
834.821	24513
834.959	24741
835.097	24608
835.235	24692
835.373	24525
835.511	24559
835.65	24350
835.788	24319
835.926	24235
836.064	24270
836.202	24304
836.34	24464
836.478	24437
836.615	24353
836.753	24399
836.891	24490
837.029	24414
837.167	24361
837.305	24285
837.443	24216
837.58	24277
837.718	24300
837.856	24315
837.993	24213
838.131	24251
838.269	24163
838.406	24102
838.544	23996
838.681	23901
838.819	23771
838.956	23726
839.094	23695
839.231	23828
839.369	23866
839.506	24102
839.643	23931
839.781	23729
839.918	23665
840.055	23642
840.193	23722
840.33	23668
840.467	23600
840.604	23710
840.742	23954
840.879	23535
841.016	23463
841.153	23425
841.29	23619
841.427	23668
841.564	23661
841.701	23676
841.838	23493
841.975	23524
842.112	23535
842.249	23429
842.385	23391
842.522	23547
842.659	23391
842.796	23349
842.933	23239
843.069	23360
843.206	23315
843.343	23372
843.479	23410
843.616	23318
843.752	23132
843.889	23170
844.025	23208
844.162	23083
844.298	23223
844.435	23098
844.571	23102
844.708	23128
844.844	23227
844.98	23212
845.117	23159
845.253	23075
845.389	23071
845.525	23003
845.661	23037
845.798	22904
845.934	22908
846.07	22793
846.206	22809
846.342	23056
846.478	22755
846.614	22675
846.75	22360
846.886	22672
847.022	22497
847.158	22618
847.294	22550
847.429	22771
847.565	22615
847.701	22752
847.837	22303
847.972	22226
848.108	22375
848.244	22512
848.379	22166
848.515	22306
848.65	22219
848.786	22215
848.921	22204
849.057	22287
849.192	22356
849.328	22139
849.463	22226
849.598	22219
849.734	22124
849.869	22070
850.004	22040
850.14	22036
850.275	21915
850.41	21842
850.545	21869
850.68	21892
850.815	21960
850.95	21941
851.085	22109
851.22	21979
851.355	22040
851.49	21983
851.625	21941
851.76	21949
851.895	21937
852.03	21804
852.165	21968
852.299	21994
852.434	21994
852.569	21975
852.703	22044
852.838	22070
852.973	22135
853.107	21930
853.242	21895
853.376	21762
853.511	21698
853.645	21743
853.78	21953
853.914	21880
854.048	21656
854.183	21720
854.317	21793
854.451	21991
854.585	21831
854.72	21808
854.854	21857
854.988	21808
855.122	21713
855.256	21583
855.39	21755
855.524	21747
855.658	21663
855.792	21679
855.926	21819
856.06	21842
856.194	21884
856.327	21663
856.461	21717
856.595	21816
856.729	21747
856.862	21755
856.996	21907
857.13	21827
857.263	21751
857.397	21895
857.53	21743
857.664	21759
857.797	21785
857.931	21861
858.064	21888
858.197	21831
858.331	21785
858.464	21766
858.597	21587
858.731	21850
858.864	21717
858.997	21675
859.13	21770
859.263	21766
859.396	21918
859.529	21751
859.662	21587
859.795	21614
859.928	21797
860.061	21911
860.194	21930
860.327	21865
860.46	21812
860.592	21915
860.725	21915
860.858	21964
860.99	21759
861.123	21694
861.256	21751
861.388	21850
861.521	22451
861.653	21644
861.786	21557
861.918	21713
862.05	21595
862.183	21755
862.315	21698
862.447	21816
862.58	21675
862.712	21500
862.844	21553
862.976	21515
863.108	21466
863.24	21937
863.372	21287
863.504	21507
863.636	21374
863.768	21538
863.9	21458
864.032	21389
864.164	21420
864.296	21553
864.428	21671
864.559	21576
864.691	21557
864.823	21526
864.954	21458
865.086	21431
865.217	21424
865.349	21363
865.48	21401
865.612	21355
865.743	21485
865.875	21363
866.006	21306
866.137	21431
866.269	21420
866.4	21275
866.531	21348
866.662	21298
866.793	21317
866.924	21317
867.055	21359
867.186	21237
867.317	21340
867.448	21260
867.579	21279
867.71	21233
867.841	21169
867.972	21340
868.103	21294
868.233	21214
868.364	21233
868.495	21363
868.625	21545
868.756	21603
868.886	21435
869.017	21583
869.147	21625
869.278	21618
869.408	21583
869.539	21542
869.669	21652
869.799	21587
869.929	21656
870.06	21622
870.19	21766
870.32	21797
870.45	21854
870.58	22074
870.71	22158
870.84	22032
870.97	21789
871.1	21899
871.23	22036
871.36	22219
871.489	22029
871.619	21991
871.749	22120
871.879	22154
872.008	22257
872.138	22173
872.267	22112
872.397	22074
872.526	22006
872.656	22021
872.785	21983
872.915	22135
873.044	22299
873.173	22101
873.303	22162
873.432	22253
873.561	22249
873.69	22272
873.819	22128
873.948	22192
874.077	22120
874.206	22128
874.335	22109
874.464	22341
874.593	22447
874.722	22242
874.851	22504
874.979	22443
875.108	22386
875.237	22325
875.365	22192
875.494	22329
875.623	22432
875.751	22291
875.88	22402
876.008	22584
876.136	22561
876.265	22702
876.393	22896
876.521	22892
876.65	22873
876.778	22793
876.906	22725
877.034	22584
877.162	22786
877.29	22584
877.418	22706
877.546	22694
877.674	22675
877.802	22873
877.93	22672
878.058	22774
878.185	22611
878.313	22641
878.441	22679
878.568	22527
878.696	22630
878.824	22862
878.951	22683
879.079	22862
879.206	23075
879.333	22816
879.461	22847
879.588	22771
879.715	22854
879.842	23006
879.97	22733
880.097	22550
880.224	22542
880.351	22500
880.478	22527
880.605	22462
880.732	22599
880.859	22702
880.986	22497
881.112	22580
881.239	22474
881.366	22443
881.493	22253
881.619	22188
881.746	22097
881.872	22124
881.999	22116
882.125	22021
882.252	22154
882.378	22169
882.505	22169
882.631	21842
882.757	21903
882.883	21857
883.01	21698
883.136	21819
883.262	21633
883.388	21622
883.514	21747
883.64	21732
883.766	21789
883.892	21629
884.018	21641
884.143	21774
884.269	21720
884.395	21591
884.52	21386
884.646	21519
884.772	21408
884.897	21241
885.023	21488
885.148	21538
885.274	21595
885.399	21378
885.524	21367
885.65	21507
885.775	21424
885.9	21416
886.025	21622
886.15	21466
886.275	21249
886.4	21283
886.525	21431
886.65	21313
886.775	21408
886.9	21504
887.025	21576
887.149	21435
887.274	21169
887.399	21230
887.523	21146
887.648	21123
887.773	21024
887.897	21291
888.021	21283
888.146	21249
888.27	21245
888.395	21336
888.519	21252
888.643	21294
888.767	21275
888.891	21157
889.015	20967
889.139	21009
889.263	21100
889.387	21039
889.511	21165
889.635	21116
889.759	21043
889.883	20990
890.006	21043
890.13	20990
890.254	20876
890.377	20895
890.501	20788
890.624	20640
890.748	20754
890.871	20594
890.995	20564
891.118	20617
891.241	20686
891.364	20648
891.488	20804
891.611	20537
891.734	20545
891.857	20609
891.98	20480
892.103	20606
892.226	20560
892.349	20640
892.471	20339
892.594	20389
892.717	20530
892.839	20438
892.962	20469
893.085	20541
893.207	20564
893.33	20229
893.452	20377
893.575	20495
893.697	20358
893.819	20632
893.941	20651
894.064	20590
894.186	20309
894.308	20309
894.43	20446
894.552	20556
894.674	20473
894.796	20362
894.918	20404
895.04	20423
895.161	20511
895.283	20488
895.405	20259
895.526	20427
895.648	20476
895.769	20507
895.891	20476
896.012	20522
896.134	20537
896.255	20522
896.376	20476
896.498	20358
896.619	20438
896.74	20427
896.861	20438
896.982	20937
897.103	20982
897.224	20792
897.345	20739
897.466	20571
897.587	20655
897.708	20781
897.828	20697
897.949	20571
898.07	20488
898.19	20511
898.311	20792
898.431	20606
898.552	20560
898.672	20644
898.792	20701
898.913	20621
899.033	20556
899.153	20454
899.273	20317
899.393	20526
899.513	20355
899.633	20423
899.753	20423
899.873	20286
899.993	20415
900.113	20389
900.232	20263
900.352	20290
900.472	20305
900.591	20149
900.711	20172
900.83	20119
900.95	20305
901.069	20336
901.189	20073
901.308	19944
901.427	19742
901.546	19795
901.665	19868
901.784	19746
901.904	19628
902.023	19525
902.141	19354
902.26	19316
902.379	19358
902.498	19274
902.617	19202
902.735	19285
902.854	19285
902.973	19225
903.091	19027
903.21	18958
903.328	18932
903.446	18837
903.565	18722
903.683	18741
903.801	18650
903.919	18753
904.038	18738
904.156	18547
904.274	18441
904.392	18407
904.51	18490
904.627	18460
904.745	18517
904.863	18494
904.981	18315
905.098	18133
905.216	18125
905.334	18205
905.451	18121
905.569	18041
905.686	18186
905.803	18209
905.921	18045
906.038	18136
906.155	18121
906.272	17893
906.389	17885
906.506	17630
906.623	17665
906.74	17642
906.857	17524
906.974	17577
907.091	17832
907.208	17847
907.324	17786
907.441	17516
907.557	17520
907.674	17379
907.79	17406
907.907	17402
908.023	17398
908.139	17402
908.256	17376
908.372	17250
908.488	17235
908.604	17235
908.72	17075
908.836	17117
908.952	17045
909.068	17098
909.184	17269
909.3	17136
909.415	17159
909.531	17166
909.647	16919
909.762	16927
909.878	16797
909.993	16847
910.108	16816
910.224	16755
910.339	16805
910.454	16706
910.57	16630
910.685	16527
910.8	16896
910.915	16767
911.03	16660
911.145	16481
911.259	16409
911.374	16405
911.489	16261
911.604	16219
911.718	16219
911.833	16128
911.947	16006
912.062	15964
912.176	16207
912.291	16303
912.405	16150
912.519	16363
912.633	16329
912.748	16261
912.862	16131
912.976	15945
913.09	15827
913.204	15937
913.318	16002
913.431	16082
913.545	16074
913.659	16112
913.772	15972
913.886	15835
914	15759
914.113	16017
914.226	15911
914.34	15857
914.453	15576
914.566	15835
914.68	15667
914.793	15633
914.906	15401
915.019	15504
915.132	15329
915.245	15287
915.358	15329
915.47	15386
915.583	15378
915.696	15329
915.809	15568
915.921	15462
916.034	15222
916.146	15332
916.259	15313
916.371	15321
916.483	15382
916.595	15264
916.708	15218
916.82	15226
916.932	15150
917.044	15226
917.156	15100
917.268	15032
917.38	15123
917.491	15013
917.603	14986
917.715	15036
917.826	15001
917.938	14963
918.049	14861
918.161	14963
918.272	15058
918.384	15055
918.495	15043
918.606	14842
918.717	14724
918.828	14762
918.939	14842
919.05	14724
919.161	14758
919.272	14499
919.383	14514
919.494	14785
919.604	14979
919.715	14731
919.826	14636
919.936	14743
920.047	14800
920.157	14678
920.267	15036
920.378	14746
920.488	14625
920.598	14773
920.708	14975
920.818	14834
920.928	14838
921.038	14979
921.148	14990
921.258	14769
921.368	14518
921.477	14381
921.587	14484
921.697	14393
921.806	14450
921.916	14343
922.025	14111
922.134	14183
922.244	14065
922.353	14210
922.462	13940
922.571	13879
922.68	13849
922.789	13791
922.898	13818
923.007	13765
923.116	13791
923.224	13700
923.333	13727
923.442	13537
923.55	13624
923.659	13556
923.767	13578
923.876	13468
923.984	13620
924.092	13510
924.201	13597
924.309	13502
924.417	13476
924.525	13407
924.633	13373
924.741	14313
924.849	13202
924.956	13396
925.064	13118
925.172	13053
925.279	13156
925.387	13259
925.494	13217
925.602	13259
925.709	13247
925.816	12954
925.924	13069
926.031	13137
926.138	13038
926.245	13179
926.352	12943
926.459	13088
926.566	13095
926.673	13095
926.779	12920
926.886	12966
926.993	12772
927.099	12715
927.206	12745
927.312	12604
927.419	12696
927.525	12646
927.631	12662
927.737	12593
927.843	12528
927.95	12452
928.056	12452
928.162	12574
928.267	12559
928.373	13270
928.479	12593
928.585	12350
928.69	12513
928.796	12521
928.901	12300
929.007	12258
929.112	12365
929.218	12300
929.323	12380
929.428	12251
929.533	12327
929.638	12114
929.743	12232
929.848	12273
929.953	12197
930.058	12026
930.163	11916
930.267	11980
930.372	12125
930.477	11878
930.581	12190
930.685	11996
930.79	11851
930.894	11863
930.998	11775
931.103	11969
931.207	11528
931.311	11573
931.415	11318
931.519	11208
931.623	11201
