Data from test_V78500241_3350.txt Node
Date: Fri Mar 25 16:05:00 CST 2022
User: usil
Spectrometer: V785-0024
Trigger mode: 0
Integration Time (sec): 4.000000E-1
Scans to average: 1
Nonlinearity correction enabled: false
Boxcar width: 0
Storing dark spectrum: false
XAxis mode: Wavelengths
Number of Pixels in Spectrum: 1024
>>>>>Begin Spectral Data<<<<<
801.071	28904
801.214	28755
801.356	28580
801.499	28580
801.641	28432
801.783	28348
801.926	28535
802.068	28504
802.211	28390
802.353	28424
802.496	28181
802.638	28177
802.78	28074
802.923	28010
803.065	28059
803.208	28067
803.35	28082
803.492	28261
803.635	28360
803.777	28169
803.919	28382
804.061	28527
804.204	28291
804.346	28246
804.488	28322
804.63	28242
804.773	28333
804.915	28459
805.057	28436
805.199	28413
805.341	28538
805.483	28405
805.626	28634
805.768	28394
805.91	28432
806.052	28592
806.194	28493
806.336	28679
806.478	28535
806.62	28462
806.762	28649
806.904	28824
807.046	29052
807.188	28965
807.33	28858
807.472	29014
807.614	28949
807.756	28942
807.898	28793
808.04	28824
808.182	28713
808.324	28809
808.465	28911
808.607	29235
808.749	29132
808.891	29235
809.033	29360
809.174	29372
809.316	29246
809.458	29147
809.6	29227
809.741	29288
809.883	29303
810.025	29410
810.166	29425
810.308	29493
810.45	29528
810.591	29303
810.733	29258
810.875	29261
811.016	29178
811.158	29105
811.299	29303
811.441	29242
811.582	29330
811.724	29204
811.865	29155
812.007	29246
812.148	29387
812.29	29372
812.431	29448
812.573	29604
812.714	29710
812.855	29790
812.997	29805
813.138	29920
813.279	29828
813.421	29646
813.562	29726
813.703	29520
813.845	29330
813.986	29208
814.127	28965
814.268	29044
814.41	28957
814.551	28908
814.692	29071
814.833	28965
814.974	28987
815.115	28999
815.256	28793
815.397	28801
815.539	28896
815.68	28812
815.821	28645
815.962	28915
816.103	28675
816.244	28561
816.385	28478
816.526	28542
816.666	28265
816.807	28093
816.948	28291
817.089	28261
817.23	28284
817.371	28063
817.512	28173
817.653	28196
817.793	28238
817.934	28166
818.075	28291
818.216	28268
818.356	28143
818.497	28101
818.638	27846
818.778	28044
818.919	28131
819.06	28021
819.2	28059
819.341	28299
819.481	28276
819.622	28455
819.762	28554
819.903	28481
820.043	28481
820.184	28527
820.324	28401
820.465	28550
820.605	28367
820.746	28318
820.886	28310
821.026	28371
821.167	28287
821.307	28246
821.447	28314
821.588	28135
821.728	28040
821.868	27800
822.008	27717
822.149	27660
822.289	27728
822.429	27523
822.569	27355
822.709	27469
822.849	27203
822.99	27207
823.13	27150
823.27	27043
823.41	27119
823.55	26853
823.69	27062
823.83	27096
823.97	27066
824.11	26937
824.25	26804
824.389	26735
824.529	26967
824.669	26982
824.809	27039
824.949	26971
825.089	27051
825.228	26861
825.368	26826
825.508	26796
825.648	26815
825.787	26743
825.927	26792
826.067	26785
826.206	26796
826.346	26842
826.485	26857
826.625	26910
826.765	26872
826.904	26796
827.044	26590
827.183	26590
827.323	26541
827.462	26583
827.601	26617
827.741	26385
827.88	26480
828.02	26336
828.159	26568
828.298	26541
828.437	26594
828.577	26324
828.716	26648
828.855	26320
828.994	26126
829.134	26210
829.273	26320
829.412	26187
829.551	26111
829.69	26263
829.829	26244
829.968	26263
830.107	26336
830.246	26229
830.385	26103
830.524	26077
830.663	26043
830.802	25894
830.941	25670
831.08	25685
831.219	25951
831.357	25909
831.496	26024
831.635	25780
831.774	25696
831.913	25537
832.051	25590
832.19	25601
832.329	25502
832.467	25460
832.606	25362
832.744	25365
832.883	25381
833.022	25426
833.16	25411
833.299	25453
833.437	25445
833.576	25491
833.714	25540
833.852	25514
833.991	25559
834.129	25620
834.267	25613
834.406	25609
834.544	25521
834.682	25540
834.821	25369
834.959	25734
835.097	25453
835.235	25582
835.373	25491
835.511	25533
835.65	25445
835.788	25304
835.926	25369
836.064	25069
836.202	25179
836.34	25381
836.478	25502
836.615	25388
836.753	25221
836.891	25365
837.029	25441
837.167	25259
837.305	25148
837.443	25316
837.58	25156
837.718	25304
837.856	25164
837.993	25232
838.131	25194
838.269	25076
838.406	25095
838.544	24992
838.681	24875
838.819	24882
838.956	24700
839.094	24642
839.231	24692
839.369	24738
839.506	24996
839.643	24878
839.781	24650
839.918	24601
840.055	24521
840.193	24654
840.33	24486
840.467	24483
840.604	24673
840.742	24779
840.879	24502
841.016	24498
841.153	24441
841.29	24601
841.427	24525
841.564	24570
841.701	24654
841.838	24410
841.975	24426
842.112	24471
842.249	24365
842.385	24285
842.522	24570
842.659	24391
842.796	24270
842.933	24235
843.069	24277
843.206	24235
843.343	24213
843.479	24247
843.616	24323
843.752	24129
843.889	24098
844.025	24327
844.162	23863
844.298	24148
844.435	24053
844.571	24018
844.708	24015
844.844	24254
844.98	24155
845.117	24155
845.253	23927
845.389	23973
845.525	24022
845.661	23908
845.798	23809
845.934	23958
846.07	23817
846.206	23969
846.342	24011
846.478	23821
846.614	23615
846.75	23334
846.886	23528
847.022	23653
847.158	23486
847.294	23585
847.429	23520
847.565	23509
847.701	23718
847.837	23265
847.972	23330
848.108	23349
848.244	23360
848.379	23044
848.515	23155
848.65	23121
848.786	23098
848.921	23204
849.057	23258
849.192	23124
849.328	23083
849.463	23178
849.598	23029
849.734	23029
849.869	23003
850.004	22873
850.14	22877
850.275	22805
850.41	22790
850.545	22805
850.68	22900
850.815	22862
850.95	22953
851.085	22984
851.22	23018
851.355	22904
851.49	22828
851.625	22820
851.76	22873
851.895	22835
852.03	22828
852.165	22698
852.299	22946
852.434	22927
852.569	22885
852.703	22896
852.838	23041
852.973	23083
853.107	22991
853.242	22820
853.376	22592
853.511	22588
853.645	22611
853.78	22805
853.914	22828
854.048	22759
854.183	22733
854.317	22755
854.451	22782
854.585	22687
854.72	22637
854.854	22759
854.988	22717
855.122	22790
855.256	22561
855.39	22694
855.524	22778
855.658	22679
855.792	22809
855.926	22713
856.06	22809
856.194	22656
856.327	22637
856.461	22634
856.595	22523
856.729	22573
856.862	22828
856.996	22774
857.13	22850
857.263	22740
857.397	22767
857.53	22641
857.664	22622
857.797	22717
857.931	22892
858.064	22748
858.197	22809
858.331	22675
858.464	22592
858.597	22649
858.731	22626
858.864	22588
858.997	22596
859.13	22573
859.263	22725
859.396	22645
859.529	22702
859.662	22546
859.795	22615
859.928	22736
860.061	22869
860.194	22919
860.327	22774
860.46	22717
860.592	22782
860.725	22984
860.858	22733
860.99	22778
861.123	22565
861.256	22698
861.388	22740
861.521	23353
861.653	22622
861.786	22371
861.918	22519
862.05	22481
862.183	22702
862.315	22736
862.447	22717
862.58	22447
862.712	22538
862.844	22432
862.976	22538
863.108	22474
863.24	22892
863.372	22428
863.504	22295
863.636	22386
863.768	22447
863.9	22394
864.032	22352
864.164	22318
864.296	22398
864.428	22424
864.559	22451
864.691	22417
864.823	22344
864.954	22440
865.086	22459
865.217	22322
865.349	22280
865.48	22268
865.612	22223
865.743	22318
865.875	22265
866.006	22322
866.137	22207
866.269	22295
866.4	22185
866.531	22287
866.662	22284
866.793	22109
866.924	22185
867.055	22166
867.186	22291
867.317	22154
867.448	22188
867.579	22101
867.71	22090
867.841	22261
867.972	22265
868.103	22234
868.233	22257
868.364	22204
868.495	22276
868.625	22314
868.756	22462
868.886	22352
869.017	22394
869.147	22611
869.278	22546
869.408	22523
869.539	22405
869.669	22599
869.799	22504
869.929	22516
870.06	22538
870.19	22717
870.32	22733
870.45	22809
870.58	22866
870.71	23014
870.84	22824
870.97	22778
871.1	22797
871.23	23033
871.36	22987
871.489	22877
871.619	23060
871.749	22946
871.879	23098
872.008	23102
872.138	23079
872.267	23098
872.397	22877
872.526	22812
872.656	22900
872.785	22949
872.915	23075
873.044	23227
873.173	22919
873.303	23102
873.432	23094
873.561	23181
873.69	23105
873.819	23029
873.948	23178
874.077	23052
874.206	23060
874.335	23010
874.464	23204
874.593	23273
874.722	23288
874.851	23311
874.979	23372
875.108	23372
875.237	23246
875.365	23151
875.494	23292
875.623	23189
875.751	23307
875.88	23277
876.008	23368
876.136	23368
876.265	23668
876.393	23885
876.521	23817
876.65	23771
876.778	23611
876.906	23608
877.034	23581
877.162	23600
877.29	23558
877.418	23714
877.546	23623
877.674	23535
877.802	23661
877.93	23627
878.058	23490
878.185	23585
878.313	23551
878.441	23566
878.568	23478
878.696	23596
878.824	23463
878.951	23653
879.079	23999
879.206	23843
879.333	23851
879.461	23646
879.588	23710
879.715	23821
879.842	23809
879.97	23653
880.097	23551
880.224	23482
880.351	23482
880.478	23463
880.605	23368
880.732	23258
880.859	23627
880.986	23478
881.112	23353
881.239	23414
881.366	23124
881.493	23200
881.619	23075
881.746	22976
881.872	23044
881.999	22904
882.125	22923
882.252	23010
882.378	22961
882.505	23143
882.631	22824
882.757	22702
882.883	22740
883.01	22618
883.136	22653
883.262	22565
883.388	22584
883.514	22599
883.64	22641
883.766	22660
883.892	22432
884.018	22474
884.143	22561
884.269	22660
884.395	22447
884.52	22310
884.646	22337
884.772	22280
884.897	22143
885.023	22409
885.148	22382
885.274	22462
885.399	22459
885.524	22265
885.65	22310
885.775	22310
885.9	22169
886.025	22424
886.15	22261
886.275	22265
886.4	22223
886.525	22249
886.65	22207
886.775	22185
886.9	22333
887.025	22485
887.149	22230
887.274	22158
887.399	21975
887.523	22105
887.648	21991
887.773	22135
887.897	22150
888.021	22097
888.146	22002
888.27	22105
888.395	22223
888.519	22147
888.643	21983
888.767	22093
888.891	21994
889.015	21873
889.139	21854
889.263	21835
889.387	21937
889.511	21922
889.635	21983
889.759	21842
889.883	21736
890.006	21808
890.13	21880
890.254	21835
890.377	21732
890.501	21572
890.624	21500
890.748	21705
890.871	21500
890.995	21374
891.118	21291
891.241	21454
891.364	21450
891.488	21454
891.611	21469
891.734	21500
891.857	21389
891.98	21370
892.103	21435
892.226	21416
892.349	21340
892.471	21195
892.594	21291
892.717	21321
892.839	21256
892.962	21325
893.085	21340
893.207	21245
893.33	21176
893.452	21142
893.575	21298
893.697	21233
893.819	21363
893.941	21591
894.064	21317
894.186	21214
894.308	21222
894.43	21340
894.552	21435
894.674	21325
894.796	21127
894.918	21378
895.04	21268
895.161	21188
895.283	21348
895.405	21230
895.526	21188
895.648	21173
895.769	21230
895.891	21340
896.012	21313
896.134	21176
896.255	21329
896.376	21184
896.498	21252
896.619	21268
896.74	21249
896.861	21310
896.982	21660
897.103	21717
897.224	21580
897.345	21458
897.466	21382
897.587	21545
897.708	21610
897.828	21485
897.949	21485
898.07	21245
898.19	21355
898.311	21561
898.431	21344
898.552	21553
898.672	21454
898.792	21428
898.913	21412
899.033	21340
899.153	21226
899.273	21070
899.393	21279
899.513	21226
899.633	21169
899.753	21161
899.873	21096
899.993	21180
900.113	21055
900.232	21146
900.352	21089
900.472	20979
900.591	20895
900.711	20994
900.83	20883
900.95	21116
901.069	20979
901.189	20868
901.308	20613
901.427	20469
901.546	20499
901.665	20625
901.784	20632
901.904	20317
902.023	20339
902.141	20035
902.26	20088
902.379	20058
902.498	20107
902.617	20024
902.735	20077
902.854	20039
902.973	19864
903.091	19761
903.21	19761
903.328	19727
903.446	19620
903.565	19441
903.683	19502
903.801	19339
903.919	19365
904.038	19403
904.156	19354
904.274	19312
904.392	19194
904.51	19259
904.627	19187
904.745	19156
904.863	19320
904.981	19110
905.098	18939
905.216	18954
905.334	19057
905.451	18859
905.569	18810
905.686	18958
905.803	18897
905.921	18707
906.038	18692
906.155	18601
906.272	18570
906.389	18574
906.506	18433
906.623	18506
906.74	18517
906.857	18262
906.974	18289
907.091	18471
907.208	18471
907.324	18429
907.441	18285
907.557	18216
907.674	18152
907.79	18072
907.907	18015
908.023	18125
908.139	18068
908.256	17992
908.372	18079
908.488	17984
908.604	17889
908.72	17813
908.836	17874
908.952	17771
909.068	17821
909.184	17893
909.3	17802
909.415	17843
909.531	17771
909.647	17497
909.762	17551
909.878	17452
909.993	17490
910.108	17509
910.224	17474
910.339	17482
910.454	17258
910.57	17223
910.685	17181
910.8	17497
910.915	17459
911.03	17364
911.145	17159
911.259	17204
911.374	17064
911.489	17140
911.604	16991
911.718	16767
911.833	16824
911.947	16793
912.062	16835
912.176	16752
912.291	16843
912.405	16919
912.519	16968
912.633	16999
912.748	16854
912.862	16809
912.976	16752
913.09	16531
913.204	16592
913.318	16634
913.431	16713
913.545	16656
913.659	16713
913.772	16653
913.886	16584
914	16329
914.113	16497
914.226	16569
914.34	16455
914.453	16318
914.566	16428
914.68	16371
914.793	16299
914.906	16078
915.019	16029
915.132	16021
915.245	15956
915.358	16150
915.47	16017
915.583	16021
915.696	16040
915.809	16086
915.921	16055
916.034	16067
916.146	15876
916.259	15823
916.371	15953
916.483	16017
916.595	15907
916.708	15838
916.82	15892
916.932	15812
917.044	15808
917.156	15743
917.268	15705
917.38	15644
917.491	15584
917.603	15720
917.715	15633
917.826	15709
917.938	15576
918.049	15549
918.161	15595
918.272	15766
918.384	15717
918.495	15534
918.606	15405
918.717	15306
918.828	15336
918.939	15428
919.05	15351
919.161	15317
919.272	15154
919.383	15214
919.494	15344
919.604	15576
919.715	15313
919.826	15218
919.936	15348
920.047	15420
920.157	15256
920.267	15454
920.378	15355
920.488	15157
920.598	15488
920.708	15629
920.818	15496
920.928	15454
921.038	15561
921.148	15488
921.258	15245
921.368	15161
921.477	15081
921.587	14979
921.697	14853
921.806	15077
921.916	14891
922.025	14727
922.134	14674
922.244	14568
922.353	14758
922.462	14495
922.571	14511
922.68	14301
922.789	14248
922.898	14313
923.007	14275
923.116	14343
923.224	14229
923.333	14267
923.442	14111
923.55	14164
923.659	14221
923.767	14263
923.876	14024
923.984	14062
924.092	13955
924.201	14058
924.309	14020
924.417	14062
924.525	13925
924.633	14039
924.741	14864
924.849	13742
924.956	13879
925.064	13776
925.172	13586
925.279	13651
925.387	13643
925.494	13651
925.602	13818
925.709	13776
925.816	13594
925.924	13658
926.031	13742
926.138	13700
926.245	13620
926.352	13544
926.459	13632
926.566	13643
926.673	13529
926.779	13369
926.886	13403
926.993	13285
927.099	13240
927.206	13114
927.312	13190
927.419	13213
927.525	13164
927.631	13198
927.737	13110
927.843	12985
927.95	12928
928.056	13095
928.162	12954
928.267	13171
928.373	13586
928.479	13053
928.585	12848
928.69	13008
928.796	12954
928.901	12867
929.007	12745
929.112	12848
929.218	12817
929.323	12787
929.428	12642
929.533	12844
929.638	12726
929.743	12772
929.848	12730
929.953	12646
930.058	12604
930.163	12403
930.267	12437
930.372	12506
930.477	12285
930.581	12570
930.685	12422
930.79	12266
930.894	12285
930.998	12190
931.103	12376
931.207	12003
931.311	12011
931.415	11802
931.519	11691
931.623	11665
