Data from test_V78500241_687.txt Node
Date: Fri Mar 25 15:46:33 CST 2022
User: usil
Spectrometer: V785-0024
Trigger mode: 0
Integration Time (sec): 4.000000E-1
Scans to average: 1
Nonlinearity correction enabled: false
Boxcar width: 0
Storing dark spectrum: false
XAxis mode: Wavelengths
Number of Pixels in Spectrum: 1024
>>>>>Begin Spectral Data<<<<<
801.071	27629
801.214	27595
801.356	27397
801.499	27077
801.641	27135
801.783	27017
801.926	27207
802.068	27081
802.211	27013
802.353	26902
802.496	26750
802.638	26804
802.78	26781
802.923	26811
803.065	26716
803.208	26735
803.35	26701
803.492	26906
803.635	26944
803.777	26815
803.919	26773
804.061	27222
804.204	27009
804.346	27077
804.488	26777
804.63	26853
804.773	26823
804.915	26937
805.057	27081
805.199	26948
805.341	27032
805.483	27024
805.626	27005
805.768	26975
805.91	27051
806.052	27062
806.194	26940
806.336	27241
806.478	27020
806.62	27047
806.762	27214
806.904	27348
807.046	27424
807.188	27424
807.33	27431
807.472	27572
807.614	27363
807.756	27363
807.898	27450
808.04	27275
808.182	27291
808.324	27329
808.465	27287
808.607	27637
808.749	27675
808.891	27873
809.033	27918
809.174	27698
809.316	27633
809.458	27850
809.6	27675
809.741	27762
809.883	27751
810.025	27972
810.166	27914
810.308	28013
810.45	27869
810.591	27930
810.733	27686
810.875	27580
811.016	27500
811.158	27542
811.299	27709
811.441	27918
811.582	27960
811.724	27652
811.865	27523
812.007	27759
812.148	27625
812.29	27648
812.431	27732
812.573	27956
812.714	28097
812.855	28124
812.997	28215
813.138	28173
813.279	28261
813.421	28169
813.562	28131
813.703	28002
813.845	27895
813.986	27572
814.127	27492
814.268	27272
814.41	27370
814.551	27188
814.692	27534
814.833	27199
814.974	27256
815.115	27211
815.256	27093
815.397	27195
815.539	27249
815.68	27154
815.821	27214
815.962	27203
816.103	27017
816.244	26963
816.385	26826
816.526	26925
816.666	26815
816.807	26594
816.948	26606
817.089	26746
817.23	26792
817.371	26640
817.512	26602
817.653	26625
817.793	26602
817.934	26606
818.075	26682
818.216	26545
818.356	26606
818.497	26583
818.638	26263
818.778	26434
818.919	26415
819.06	26438
819.2	26530
819.341	26636
819.481	26701
819.622	26758
819.762	27039
819.903	26864
820.043	26667
820.184	26746
820.324	26659
820.465	26701
820.605	26678
820.746	26609
820.886	26514
821.026	26792
821.167	26705
821.307	26792
821.447	26716
821.588	26587
821.728	26431
821.868	26199
822.008	26122
822.149	26073
822.289	26138
822.429	25986
822.569	25898
822.709	25757
822.849	25677
822.99	25537
823.13	25586
823.27	25464
823.41	25350
823.55	25278
823.69	25392
823.83	25422
823.97	25403
824.11	25259
824.25	25152
824.389	25110
824.529	25278
824.669	25274
824.809	25392
824.949	25304
825.089	25388
825.228	25217
825.368	25088
825.508	25084
825.648	25118
825.787	25152
825.927	25228
826.067	25065
826.206	25027
826.346	25171
826.485	25145
826.625	25156
826.765	25209
826.904	25069
827.044	24909
827.183	24935
827.323	24875
827.462	24894
827.601	24840
827.741	24886
827.88	24920
828.02	24593
828.159	24821
828.298	24817
828.437	24977
828.577	24795
828.716	24981
828.855	24719
828.994	24681
829.134	24433
829.273	24620
829.412	24517
829.551	24422
829.69	24521
829.829	24681
829.968	24566
830.107	24616
830.246	24555
830.385	24350
830.524	24445
830.663	24395
830.802	24201
830.941	24102
831.08	24102
831.219	24182
831.357	24201
831.496	24429
831.635	24125
831.774	23908
831.913	24030
832.051	23927
832.19	23942
832.329	23969
832.467	23741
832.606	23771
832.744	23733
832.883	23847
833.022	23752
833.16	23798
833.299	23809
833.437	23802
833.576	23863
833.714	23866
833.852	23855
833.991	23851
834.129	23958
834.267	23878
834.406	23794
834.544	23954
834.682	23847
834.821	23859
834.959	23992
835.097	23756
835.235	23802
835.373	23863
835.511	23729
835.65	23707
835.788	23695
835.926	23638
836.064	23459
836.202	23471
836.34	23821
836.478	23783
836.615	23653
836.753	23668
836.891	23828
837.029	23745
837.167	23668
837.305	23592
837.443	23486
837.58	23493
837.718	23528
837.856	23509
837.993	23425
838.131	23455
838.269	23372
838.406	23299
838.544	23391
838.681	23292
838.819	23174
838.956	23025
839.094	22946
839.231	23151
839.369	23326
839.506	23383
839.643	23197
839.781	23048
839.918	22999
840.055	22999
840.193	22961
840.33	22942
840.467	22984
840.604	23010
840.742	23105
840.879	22820
841.016	22881
841.153	22812
841.29	22995
841.427	22957
841.564	22942
841.701	22938
841.838	22877
841.975	22759
842.112	22896
842.249	22755
842.385	22752
842.522	22934
842.659	22797
842.796	22702
842.933	22698
843.069	22542
843.206	22656
843.343	22729
843.479	22675
843.616	22580
843.752	22360
843.889	22436
844.025	22596
844.162	22428
844.298	22500
844.435	22577
844.571	22360
844.708	22481
844.844	22596
844.98	22542
845.117	22531
845.253	22557
845.389	22325
845.525	22352
845.661	22257
845.798	22276
845.934	22200
846.07	22207
846.206	22154
846.342	22322
846.478	22139
846.614	21865
846.75	21854
846.886	21812
847.022	21972
847.158	21907
847.294	22006
847.429	21861
847.565	21895
847.701	22166
847.837	21557
847.972	21610
848.108	21766
848.244	21633
848.379	21614
848.515	21420
848.65	21511
848.786	21416
848.921	21526
849.057	21603
849.192	21572
849.328	21595
849.463	21496
849.598	21507
849.734	21367
849.869	21321
850.004	21310
850.14	21378
850.275	21268
850.41	21264
850.545	21173
850.68	21310
850.815	21291
850.95	21294
851.085	21481
851.22	21485
851.355	21268
851.49	21214
851.625	21142
851.76	21214
851.895	21214
852.03	21100
852.165	21268
852.299	21203
852.434	21496
852.569	21249
852.703	21405
852.838	21268
852.973	21424
853.107	21428
853.242	21218
853.376	21093
853.511	20986
853.645	21032
853.78	21207
853.914	21150
854.048	21112
854.183	21074
854.317	21112
854.451	21222
854.585	21135
854.72	21058
854.854	21222
854.988	20967
855.122	21017
855.256	21058
855.39	21100
855.524	21135
855.658	21039
855.792	21192
855.926	21169
856.06	21032
856.194	21085
856.327	21043
856.461	21005
856.595	21024
856.729	21043
856.862	21256
856.996	21020
857.13	21211
857.263	20986
857.397	21138
857.53	21096
857.664	21203
857.797	21070
857.931	21218
858.064	21055
858.197	21218
858.331	21081
858.464	21138
858.597	20971
858.731	21135
858.864	20998
858.997	21020
859.13	21039
859.263	21192
859.396	21222
859.529	21077
859.662	21013
859.795	21024
859.928	20994
860.061	21188
860.194	21363
860.327	21241
860.46	21112
860.592	21203
860.725	21218
860.858	21173
860.99	21066
861.123	20971
861.256	20941
861.388	21089
861.521	21591
861.653	21043
861.786	20895
861.918	20998
862.05	21009
862.183	21051
862.315	20994
862.447	21017
862.58	20864
862.712	20887
862.844	20727
862.976	20880
863.108	20762
863.24	21112
863.372	20792
863.504	20705
863.636	20811
863.768	20819
863.9	20800
864.032	20712
864.164	20682
864.296	20754
864.428	20872
864.559	20906
864.691	20830
864.823	20864
864.954	20735
865.086	20853
865.217	20796
865.349	20632
865.48	20670
865.612	20693
865.743	20788
865.875	20689
866.006	20549
866.137	20678
866.269	20724
866.4	20701
866.531	20705
866.662	20575
866.793	20644
866.924	20625
867.055	20644
867.186	20629
867.317	20609
867.448	20686
867.579	20663
867.71	20568
867.841	20552
867.972	20640
868.103	20659
868.233	20663
868.364	20632
868.495	20705
868.625	20807
868.756	20948
868.886	20731
869.017	20906
869.147	20986
869.278	20998
869.408	20952
869.539	20804
869.669	20906
869.799	20838
869.929	21020
870.06	21036
870.19	21207
870.32	21351
870.45	21252
870.58	21313
870.71	21435
870.84	21386
870.97	21279
871.1	21260
871.23	21386
871.36	21401
871.489	21397
871.619	21389
871.749	21397
871.879	21530
872.008	21561
872.138	21458
872.267	21462
872.397	21321
872.526	21279
872.656	21226
872.785	21241
872.915	21504
873.044	21583
873.173	21564
873.303	21458
873.432	21526
873.561	21530
873.69	21428
873.819	21386
873.948	21583
874.077	21519
874.206	21488
874.335	21435
874.464	21595
874.593	21629
874.722	21705
874.851	21739
874.979	21591
875.108	21770
875.237	21747
875.365	21534
875.494	21652
875.623	21755
875.751	21667
875.88	21717
876.008	21838
876.136	21941
876.265	22173
876.393	22223
876.521	22173
876.65	22223
876.778	22181
876.906	22074
877.034	22044
877.162	22116
877.29	22006
877.418	22025
877.546	22143
877.674	22082
877.802	22139
877.93	22006
878.058	22067
878.185	22013
878.313	22120
878.441	22093
878.568	21930
878.696	22036
878.824	22097
878.951	22223
879.079	22223
879.206	22287
879.333	22348
879.461	22093
879.588	22128
879.715	22284
879.842	22325
879.97	22143
880.097	21884
880.224	21842
880.351	21926
880.478	21918
880.605	21915
880.732	21854
880.859	22059
880.986	21956
881.112	21793
881.239	21819
881.366	21762
881.493	21504
881.619	21519
881.746	21526
881.872	21378
881.999	21325
882.125	21378
882.252	21519
882.378	21435
882.505	21614
882.631	21283
882.757	21287
882.883	21272
883.01	21252
883.136	21104
883.262	21112
883.388	20975
883.514	21214
883.64	21226
883.766	21108
883.892	20967
884.018	21017
884.143	21123
884.269	21275
884.395	20842
884.52	20754
884.646	20861
884.772	20689
884.897	20708
885.023	20914
885.148	20807
885.274	21051
885.399	20963
885.524	20815
885.65	20804
885.775	20906
885.9	20899
886.025	20998
886.15	20948
886.275	20842
886.4	20629
886.525	20804
886.65	20720
886.775	20693
886.9	20933
887.025	20967
887.149	20819
887.274	20598
887.399	20568
887.523	20613
887.648	20575
887.773	20518
887.897	20674
888.021	20617
888.146	20583
888.27	20651
888.395	20773
888.519	20617
888.643	20678
888.767	20644
888.891	20678
889.015	20370
889.139	20552
889.263	20396
889.387	20533
889.511	20564
889.635	20507
889.759	20275
889.883	20343
890.006	20404
890.13	20404
890.254	20282
890.377	20355
890.501	20187
890.624	19978
890.748	20202
890.871	20020
890.995	19963
891.118	19818
891.241	19970
891.364	19959
891.488	20027
891.611	19978
891.734	19845
891.857	19944
891.98	20050
892.103	19951
892.226	19986
892.349	19849
892.471	19750
892.594	20020
892.717	19868
892.839	19795
892.962	19902
893.085	19970
893.207	19830
893.33	19719
893.452	19936
893.575	19856
893.697	19803
893.819	19978
893.941	20092
894.064	19928
894.186	19887
894.308	19868
894.43	19970
894.552	20069
894.674	19955
894.796	19753
894.918	19784
895.04	19780
895.161	19814
895.283	19940
895.405	19761
895.526	19955
895.648	19944
895.769	19761
895.891	19864
896.012	20050
896.134	19970
896.255	19860
896.376	19887
896.498	19963
896.619	19856
896.74	20027
896.861	19978
896.982	20240
897.103	20442
897.224	20046
897.345	20081
897.466	20180
897.587	20130
897.708	20138
897.828	20183
897.949	20046
898.07	20027
898.19	20058
898.311	20229
898.431	20069
898.552	20084
898.672	20187
898.792	20149
898.913	20069
899.033	19997
899.153	19986
899.273	19925
899.393	19788
899.513	19902
899.633	19887
899.753	19845
899.873	19849
899.993	19852
900.113	19826
900.232	19746
900.352	19852
900.472	19769
900.591	19731
900.711	19727
900.83	19601
900.95	19750
901.069	19845
901.189	19537
901.308	19396
901.427	19301
901.546	19365
901.665	19365
901.784	19221
901.904	19080
902.023	19015
902.141	18863
902.26	18772
902.379	18829
902.498	18734
902.617	18700
902.735	18871
902.854	18749
902.973	18715
903.091	18509
903.21	18521
903.328	18513
903.446	18369
903.565	18319
903.683	18266
903.801	18155
903.919	18148
904.038	18232
904.156	18026
904.274	18125
904.392	18007
904.51	18038
904.627	18019
904.745	18083
904.863	18030
904.981	17710
905.098	17745
905.216	17729
905.334	17722
905.451	17699
905.569	17695
905.686	17703
905.803	17581
905.921	17433
906.038	17630
906.155	17539
906.272	17387
906.389	17387
906.506	17296
906.623	17204
906.74	17258
906.857	17048
906.974	17147
907.091	17223
907.208	17311
907.324	17216
907.441	17204
907.557	17003
907.674	16904
907.79	16854
907.907	16862
908.023	17079
908.139	16980
908.256	16843
908.372	16862
908.488	16740
908.604	16588
908.72	16672
908.836	16664
908.952	16565
909.068	16687
909.184	16729
909.3	16660
909.415	16577
909.531	16656
909.647	16375
909.762	16337
909.878	16325
909.993	16348
910.108	16341
910.224	16295
910.339	16299
910.454	16185
910.57	16185
910.685	16036
910.8	16405
910.915	16303
911.03	16139
911.145	15994
911.259	15926
911.374	16074
911.489	15972
911.604	15850
911.718	15736
911.833	15743
911.947	15682
912.062	15534
912.176	15789
912.291	15679
912.405	15774
912.519	15964
912.633	15888
912.748	15770
912.862	15660
912.976	15591
913.09	15416
913.204	15412
913.318	15534
913.431	15610
913.545	15485
913.659	15606
913.772	15447
913.886	15291
914	15401
914.113	15454
914.226	15428
914.34	15397
914.453	15226
914.566	15355
914.68	15230
914.793	15199
914.906	15066
915.019	14910
915.132	14823
915.245	14834
915.358	14868
915.47	14967
915.583	14986
915.696	15005
915.809	15119
915.921	15062
916.034	14830
916.146	14769
916.259	14872
916.371	14857
916.483	14864
916.595	14792
916.708	14777
916.82	14693
916.932	14678
917.044	14712
917.156	14716
917.268	14564
917.38	14644
917.491	14545
917.603	14541
917.715	14648
917.826	14701
917.938	14450
918.049	14434
918.161	14571
918.272	14716
918.384	14788
918.495	14511
918.606	14336
918.717	14324
918.828	14347
918.939	14431
919.05	14336
919.161	14339
919.272	14107
919.383	14218
919.494	14415
919.604	14594
919.715	14298
919.826	14229
919.936	14290
920.047	14328
920.157	14393
920.267	14457
920.378	14347
920.488	14271
920.598	14488
920.708	14682
920.818	14438
920.928	14476
921.038	14648
921.148	14571
921.258	14317
921.368	14149
921.477	14157
921.587	14050
921.697	13986
921.806	14065
921.916	13944
922.025	13814
922.134	13769
922.244	13651
922.353	13769
922.462	13559
922.571	13540
922.68	13403
922.789	13327
922.898	13441
923.007	13354
923.116	13407
923.224	13316
923.333	13312
923.442	13255
923.55	13194
923.659	13343
923.767	13213
923.876	13145
923.984	13255
924.092	13099
924.201	13149
924.309	13168
924.417	13076
924.525	13038
924.633	13019
924.741	14005
924.849	12795
924.956	12985
925.064	12825
925.172	12795
925.279	12749
925.387	12859
925.494	12791
925.602	12916
925.709	12833
925.816	12646
925.924	12772
926.031	12825
926.138	12764
926.245	12779
926.352	12654
926.459	12787
926.566	12802
926.673	12650
926.779	12551
926.886	12578
926.993	12403
927.099	12407
927.206	12334
927.312	12338
927.419	12422
927.525	12350
927.631	12346
927.737	12232
927.843	12209
927.95	12095
928.056	12159
928.162	12251
928.267	12186
928.373	12764
928.479	12220
928.585	12072
928.69	12186
928.796	12167
928.901	12003
929.007	11843
929.112	12019
929.218	11931
929.323	11992
929.428	11843
929.533	12041
929.638	11889
929.743	11840
929.848	11912
929.953	11863
930.058	11752
930.163	11554
930.267	11684
930.372	11767
930.477	11558
930.581	11794
930.685	11638
930.79	11448
930.894	11592
930.998	11474
931.103	11592
931.207	11261
931.311	11166
931.415	11060
931.519	10892
931.623	10919
