Data from test_V78500241_1138.txt Node
Date: Fri Mar 25 15:49:41 CST 2022
User: usil
Spectrometer: V785-0024
Trigger mode: 0
Integration Time (sec): 4.000000E-1
Scans to average: 1
Nonlinearity correction enabled: false
Boxcar width: 0
Storing dark spectrum: false
XAxis mode: Wavelengths
Number of Pixels in Spectrum: 1024
>>>>>Begin Spectral Data<<<<<
801.071	28086
801.214	28139
801.356	27880
801.499	27842
801.641	27759
801.783	27770
801.926	27850
802.068	27682
802.211	27667
802.353	27549
802.496	27439
802.638	27393
802.78	27416
802.923	27397
803.065	27397
803.208	27420
803.35	27408
803.492	27523
803.635	27625
803.777	27469
803.919	27599
804.061	28040
804.204	27774
804.346	27500
804.488	27500
804.63	27648
804.773	27542
804.915	27622
805.057	27724
805.199	27515
805.341	27698
805.483	27808
805.626	27876
805.768	27732
805.91	27812
806.052	27785
806.194	27660
806.336	28025
806.478	27880
806.62	27789
806.762	27922
806.904	28116
807.046	28356
807.188	28265
807.33	28135
807.472	28299
807.614	28188
807.756	28246
807.898	27972
808.04	27991
808.182	28051
808.324	28010
808.465	28318
808.607	28268
808.749	28401
808.891	28478
809.033	28668
809.174	28519
809.316	28401
809.458	28478
809.6	28405
809.741	28577
809.883	28611
810.025	28736
810.166	28778
810.308	28615
810.45	28778
810.591	28694
810.733	28375
810.875	28424
811.016	28401
811.158	28234
811.299	28626
811.441	28733
811.582	28500
811.724	28645
811.865	28500
812.007	28455
812.148	28493
812.29	28634
812.431	28516
812.573	28725
812.714	28831
812.855	28999
812.997	29151
813.138	29189
813.279	29170
813.421	28976
813.562	28987
813.703	28782
813.845	28672
813.986	28413
814.127	28329
814.268	28162
814.41	28356
814.551	28306
814.692	28169
814.833	28109
814.974	28059
815.115	28124
815.256	28086
815.397	28204
815.539	28067
815.68	28029
815.821	27930
815.962	28017
816.103	28040
816.244	27945
816.385	27762
816.526	27808
816.666	27568
816.807	27618
816.948	27473
817.089	27561
817.23	27519
817.371	27561
817.512	27488
817.653	27530
817.793	27431
817.934	27397
818.075	27637
818.216	27424
818.356	27431
818.497	27317
818.638	27142
818.778	27260
818.919	27287
819.06	27389
819.2	27359
819.341	27427
819.481	27363
819.622	27747
819.762	27812
819.903	27667
820.043	27644
820.184	27614
820.324	27679
820.465	27778
820.605	27587
820.746	27485
820.886	27412
821.026	27606
821.167	27477
821.307	27709
821.447	27538
821.588	27439
821.728	27310
821.868	27161
822.008	27096
822.149	26838
822.289	26880
822.429	26758
822.569	26541
822.709	26754
822.849	26514
822.99	26575
823.13	26431
823.27	26339
823.41	26275
823.55	26206
823.69	26305
823.83	26336
823.97	26263
824.11	26020
824.25	26024
824.389	26073
824.529	26320
824.669	26100
824.809	26290
824.949	26218
825.089	26305
825.228	26271
825.368	25906
825.508	25993
825.648	26111
825.787	26142
825.927	26062
826.067	25982
826.206	25997
826.346	26077
826.485	26107
826.625	26005
826.765	26119
826.904	26027
827.044	25715
827.183	25757
827.323	25658
827.462	25788
827.601	25742
827.741	25685
827.88	25681
828.02	25609
828.159	25601
828.298	25734
828.437	25742
828.577	25597
828.716	25742
828.855	25597
828.994	25377
829.134	25422
829.273	25457
829.412	25510
829.551	25388
829.69	25422
829.829	25476
829.968	25533
830.107	25438
830.246	25491
830.385	25316
830.524	25183
830.663	25232
830.802	25156
830.941	24932
831.08	25038
831.219	25107
831.357	25126
831.496	25274
831.635	25012
831.774	24859
831.913	24833
832.051	24817
832.19	24760
832.329	24897
832.467	24741
832.606	24631
832.744	24582
832.883	24665
833.022	24608
833.16	24703
833.299	24768
833.437	24715
833.576	24696
833.714	24787
833.852	24810
833.991	24844
834.129	24878
834.267	24821
834.406	24692
834.544	24783
834.682	24658
834.821	24852
834.959	24840
835.097	24627
835.235	24776
835.373	24608
835.511	24734
835.65	24513
835.788	24566
835.926	24460
836.064	24479
836.202	24376
836.34	24650
836.478	24521
836.615	24479
836.753	24582
836.891	24703
837.029	24642
837.167	24464
837.305	24445
837.443	24388
837.58	24563
837.718	24475
837.856	24486
837.993	24391
838.131	24422
838.269	24148
838.406	24311
838.544	24174
838.681	24174
838.819	24038
838.956	23939
839.094	23961
839.231	23935
839.369	23931
839.506	24155
839.643	24174
839.781	23794
839.918	23760
840.055	23859
840.193	23920
840.33	23756
840.467	23813
840.604	23824
840.742	24072
840.879	23714
841.016	23767
841.153	23581
841.29	23885
841.427	23764
841.564	23790
841.701	23676
841.838	23672
841.975	23760
842.112	23756
842.249	23676
842.385	23573
842.522	23889
842.659	23615
842.796	23535
842.933	23562
843.069	23425
843.206	23497
843.343	23512
843.479	23634
843.616	23547
843.752	23318
843.889	23277
844.025	23463
844.162	23322
844.298	23436
844.435	23193
844.571	23356
844.708	23330
844.844	23551
844.98	23490
845.117	23436
845.253	23185
845.389	23288
845.525	23105
845.661	23086
845.798	23052
845.934	23094
846.07	23029
846.206	23185
846.342	23162
846.478	22984
846.614	22828
846.75	22733
846.886	22797
847.022	22835
847.158	22957
847.294	22706
847.429	22729
847.565	22771
847.701	22942
847.837	22557
847.972	22535
848.108	22584
848.244	22535
848.379	22398
848.515	22333
848.65	22242
848.786	22287
848.921	22436
849.057	22561
849.192	22329
849.328	22386
849.463	22356
849.598	22322
849.734	22177
849.869	22112
850.004	22074
850.14	22059
850.275	22120
850.41	21972
850.545	22116
850.68	22185
850.815	22124
850.95	22051
851.085	22276
851.22	22211
851.355	22162
851.49	22112
851.625	22044
851.76	22055
851.895	21998
852.03	21937
852.165	22135
852.299	22238
852.434	22128
852.569	22177
852.703	22025
852.838	22116
852.973	22185
853.107	22230
853.242	22188
853.376	22040
853.511	21819
853.645	21857
853.78	21994
853.914	21899
854.048	21895
854.183	21922
854.317	21956
854.451	22090
854.585	21991
854.72	22074
854.854	22044
854.988	21876
855.122	21857
855.256	21865
855.39	21838
855.524	22010
855.658	22036
855.792	21994
855.926	21934
856.06	21994
856.194	21979
856.327	22055
856.461	21880
856.595	21816
856.729	21911
856.862	22067
856.996	22017
857.13	21895
857.263	22112
857.397	22131
857.53	22006
857.664	21991
857.797	21945
857.931	22025
858.064	21941
858.197	22074
858.331	21895
858.464	21888
858.597	21804
858.731	22036
858.864	21960
858.997	21835
859.13	21827
859.263	21911
859.396	22029
859.529	21831
859.662	21831
859.795	21937
859.928	21987
860.061	22120
860.194	22173
860.327	22097
860.46	21918
860.592	21983
860.725	22025
860.858	21994
860.99	21979
861.123	21915
861.256	21793
861.388	21972
861.521	22664
861.653	21846
861.786	21736
861.918	21637
862.05	21911
862.183	21945
862.315	21747
862.447	21998
862.58	21922
862.712	21637
862.844	21671
862.976	21667
863.108	21743
863.24	22158
863.372	21641
863.504	21633
863.636	21656
863.768	21709
863.9	21663
864.032	21530
864.164	21705
864.296	21720
864.428	21694
864.559	21732
864.691	21679
864.823	21694
864.954	21572
865.086	21648
865.217	21576
865.349	21447
865.48	21447
865.612	21644
865.743	21637
865.875	21667
866.006	21481
866.137	21500
866.269	21481
866.4	21614
866.531	21450
866.662	21481
866.793	21519
866.924	21332
867.055	21473
867.186	21542
867.317	21439
867.448	21367
867.579	21519
867.71	21374
867.841	21367
867.972	21416
868.103	21386
868.233	21538
868.364	21393
868.495	21530
868.625	21759
868.756	21884
868.886	21557
869.017	21526
869.147	21774
869.278	21797
869.408	21739
869.539	21732
869.669	21804
869.799	21682
869.929	21861
870.06	21831
870.19	22086
870.32	21998
870.45	21994
870.58	22150
870.71	22131
870.84	22177
870.97	22135
871.1	21994
871.23	22242
871.36	22322
871.489	22105
871.619	22242
871.749	22344
871.879	22363
872.008	22451
872.138	22390
872.267	22306
872.397	22109
872.526	22143
872.656	22105
872.785	22147
872.915	22436
873.044	22325
873.173	22268
873.303	22382
873.432	22428
873.561	22367
873.69	22325
873.819	22398
873.948	22398
874.077	22162
874.206	22348
874.335	22379
874.464	22390
874.593	22565
874.722	22535
874.851	22637
874.979	22466
875.108	22637
875.237	22519
875.365	22459
875.494	22489
875.623	22611
875.751	22512
875.88	22538
876.008	22630
876.136	22820
876.265	22961
876.393	23090
876.521	23010
876.65	22987
876.778	22961
876.906	22828
877.034	22889
877.162	22957
877.29	22782
877.418	22938
877.546	22850
877.674	22725
877.802	22930
877.93	22809
878.058	22801
878.185	22767
878.313	22843
878.441	22850
878.568	22713
878.696	22866
878.824	22923
878.951	22984
879.079	23128
879.206	23204
879.333	23109
879.461	22927
879.588	23041
879.715	23117
879.842	23155
879.97	23044
880.097	22748
880.224	22656
880.351	22877
880.478	22721
880.605	22641
880.732	22717
880.859	22953
880.986	22675
881.112	22763
881.239	22577
881.366	22382
881.493	22318
881.619	22314
881.746	22318
881.872	22284
881.999	22284
882.125	22204
882.252	22276
882.378	22253
882.505	22371
882.631	22105
882.757	21937
882.883	22051
883.01	21987
883.136	21892
883.262	21816
883.388	21717
883.514	21964
883.64	21972
883.766	21827
883.892	21705
884.018	21724
884.143	21850
884.269	22048
884.395	21694
884.52	21523
884.646	21629
884.772	21515
884.897	21549
885.023	21637
885.148	21671
885.274	21717
885.399	21663
885.524	21606
885.65	21488
885.775	21747
885.9	21511
886.025	21686
886.15	21682
886.275	21534
886.4	21545
886.525	21507
886.65	21450
886.775	21477
886.9	21644
887.025	21770
887.149	21629
887.274	21370
887.399	21447
887.523	21367
887.648	21226
887.773	21272
887.897	21485
888.021	21485
888.146	21325
888.27	21450
888.395	21443
888.519	21389
888.643	21428
888.767	21481
888.891	21188
889.015	21176
889.139	21249
889.263	21116
889.387	21207
889.511	21435
889.635	21176
889.759	21093
889.883	21077
890.006	21028
890.13	21237
890.254	21195
890.377	21001
890.501	20986
890.624	20842
890.748	20979
890.871	20834
890.995	20701
891.118	20735
891.241	20807
891.364	20693
891.488	20727
891.611	20720
891.734	20697
891.857	20686
891.98	20754
892.103	20667
892.226	20598
892.349	20663
892.471	20412
892.594	20678
892.717	20762
892.839	20560
892.962	20644
893.085	20606
893.207	20560
893.33	20396
893.452	20469
893.575	20735
893.697	20457
893.819	20777
893.941	20830
894.064	20606
894.186	20495
894.308	20476
894.43	20526
894.552	20842
894.674	20689
894.796	20484
894.918	20594
895.04	20590
895.161	20655
895.283	20609
895.405	20530
895.526	20568
895.648	20537
895.769	20556
895.891	20667
896.012	20678
896.134	20636
896.255	20560
896.376	20594
896.498	20659
896.619	20636
896.74	20602
896.861	20670
896.982	20895
897.103	21001
897.224	20853
897.345	20727
897.466	20731
897.587	20883
897.708	20937
897.828	20880
897.949	20651
898.07	20674
898.19	20739
898.311	20861
898.431	20701
898.552	20724
898.672	20819
898.792	20902
898.913	20788
899.033	20701
899.153	20609
899.273	20480
899.393	20670
899.513	20621
899.633	20571
899.753	20488
899.873	20427
899.993	20564
900.113	20507
900.232	20461
900.352	20495
900.472	20362
900.591	20214
900.711	20320
900.83	20317
900.95	20400
901.069	20530
901.189	20191
901.308	19944
901.427	19932
901.546	19833
901.665	19879
901.784	19993
901.904	19830
902.023	19605
902.141	19533
902.26	19438
902.379	19476
902.498	19384
902.617	19384
902.735	19491
902.854	19346
902.973	19335
903.091	19103
903.21	19015
903.328	19012
903.446	19008
903.565	18924
903.683	18939
903.801	18707
903.919	18734
904.038	18768
904.156	18608
904.274	18776
904.392	18681
904.51	18502
904.627	18654
904.745	18635
904.863	18715
904.981	18384
905.098	18289
905.216	18239
905.334	18251
905.451	18281
905.569	18186
905.686	18216
905.803	18319
905.921	18026
906.038	18194
906.155	18091
906.272	17961
906.389	18060
906.506	17866
906.623	17897
906.74	17767
906.857	17745
906.974	17764
907.091	17832
907.208	18060
907.324	17775
907.441	17729
907.557	17573
907.674	17509
907.79	17463
907.907	17638
908.023	17570
908.139	17577
908.256	17387
908.372	17368
908.488	17493
908.604	17223
908.72	17212
908.836	17296
908.952	17349
909.068	17250
909.184	17391
909.3	17292
909.415	17315
909.531	17220
909.647	17067
909.762	16987
909.878	16984
909.993	17029
910.108	16946
910.224	16949
910.339	16938
910.454	16805
910.57	16797
910.685	16725
910.8	16949
910.915	16850
911.03	16717
911.145	16497
911.259	16512
911.374	16500
911.489	16558
911.604	16421
911.718	16287
911.833	16341
911.947	16200
912.062	16169
912.176	16402
912.291	16348
912.405	16253
912.519	16565
912.633	16478
912.748	16306
912.862	16238
912.976	16200
913.09	15979
913.204	16002
913.318	16063
913.431	16173
913.545	16112
913.659	16158
913.772	16025
913.886	15812
914	15888
914.113	15934
914.226	15983
914.34	15915
914.453	15816
914.566	15823
914.68	15793
914.793	15747
914.906	15572
915.019	15496
915.132	15435
915.245	15397
915.358	15450
915.47	15477
915.583	15466
915.696	15473
915.809	15625
915.921	15591
916.034	15435
916.146	15363
916.259	15389
916.371	15595
916.483	15439
916.595	15313
916.708	15317
916.82	15329
916.932	15241
917.044	15256
917.156	15226
917.268	15123
917.38	15173
917.491	15146
917.603	15127
917.715	15222
917.826	15119
917.938	15108
918.049	14918
918.161	15108
918.272	15146
918.384	15211
918.495	15089
918.606	14872
918.717	14891
918.828	14895
918.939	14891
919.05	14804
919.161	14826
919.272	14587
919.383	14743
919.494	14921
919.604	15081
919.715	14857
919.826	14804
919.936	14910
920.047	14914
920.157	14830
920.267	14956
920.378	14842
920.488	14819
920.598	15081
920.708	15074
920.818	15017
920.928	14963
921.038	15157
921.148	15051
921.258	14750
921.368	14735
921.477	14564
921.587	14499
921.697	14393
921.806	14568
921.916	14412
922.025	14256
922.134	14153
922.244	14134
922.353	14282
922.462	14084
922.571	14077
922.68	13970
922.789	13833
922.898	13883
923.007	13769
923.116	13887
923.224	13803
923.333	13849
923.442	13769
923.55	13746
923.659	13727
923.767	13696
923.876	13647
923.984	13837
924.092	13594
924.201	13681
924.309	13578
924.417	13563
924.525	13540
924.633	13445
924.741	14313
924.849	13343
924.956	13487
925.064	13335
925.172	13152
925.279	13297
925.387	13266
925.494	13206
925.602	13403
925.709	13320
925.816	13168
925.924	13027
926.031	13324
926.138	13152
926.245	13179
926.352	13061
926.459	13289
926.566	13190
926.673	13050
926.779	12962
926.886	13072
926.993	12867
927.099	12840
927.206	12741
927.312	12757
927.419	12856
927.525	12814
927.631	12700
927.737	12673
927.843	12665
927.95	12521
928.056	12589
928.162	12627
928.267	12585
928.373	13179
928.479	12700
928.585	12452
928.69	12604
928.796	12578
928.901	12464
929.007	12304
929.112	12509
929.218	12460
929.323	12319
929.428	12342
929.533	12452
929.638	12338
929.743	12289
929.848	12281
929.953	12190
930.058	12235
930.163	12087
930.267	12030
930.372	12171
930.477	11942
930.581	12216
930.685	12015
930.79	11954
930.894	11908
930.998	11874
931.103	12049
931.207	11653
931.311	11558
931.415	11505
931.519	11288
931.623	11322
