Data from test_V78500241_3416.txt Node
Date: Fri Mar 25 16:05:27 CST 2022
User: usil
Spectrometer: V785-0024
Trigger mode: 0
Integration Time (sec): 4.000000E-1
Scans to average: 1
Nonlinearity correction enabled: false
Boxcar width: 0
Storing dark spectrum: false
XAxis mode: Wavelengths
Number of Pixels in Spectrum: 1024
>>>>>Begin Spectral Data<<<<<
801.071	28858
801.214	28862
801.356	28341
801.499	28626
801.641	28398
801.783	28386
801.926	28474
802.068	28489
802.211	28375
802.353	28394
802.496	28135
802.638	28268
802.78	27979
802.923	27994
803.065	28010
803.208	28109
803.35	28051
803.492	28272
803.635	28291
803.777	28154
803.919	28356
804.061	28622
804.204	28523
804.346	28341
804.488	28162
804.63	28268
804.773	28318
804.915	28428
805.057	28489
805.199	28280
805.341	28447
805.483	28462
805.626	28508
805.768	28432
805.91	28577
806.052	28584
806.194	28481
806.336	28603
806.478	28729
806.62	28443
806.762	28679
806.904	28923
807.046	29014
807.188	29006
807.33	29090
807.472	29102
807.614	28938
807.756	28999
807.898	28835
808.04	28694
808.182	28771
808.324	28816
808.465	28896
808.607	29086
808.749	29254
808.891	29326
809.033	29452
809.174	29360
809.316	29315
809.458	29303
809.6	29159
809.741	29379
809.883	29341
810.025	29425
810.166	29493
810.308	29478
810.45	29505
810.591	29360
810.733	29395
810.875	29326
811.016	29223
811.158	29159
811.299	29292
811.441	29471
811.582	29554
811.724	29261
811.865	29261
812.007	29216
812.148	29341
812.29	29246
812.431	29467
812.573	29497
812.714	29691
812.855	29760
812.997	29775
813.138	29824
813.279	29729
813.421	29893
813.562	29611
813.703	29531
813.845	29482
813.986	29341
814.127	28984
814.268	28885
814.41	28961
814.551	28965
814.692	29147
814.833	28908
814.974	28953
815.115	28892
815.256	28816
815.397	28961
815.539	28778
815.68	28873
815.821	28744
815.962	28755
816.103	28786
816.244	28561
816.385	28542
816.526	28641
816.666	28401
816.807	28348
816.948	28432
817.089	28424
817.23	28314
817.371	28303
817.512	28329
817.653	28284
817.793	28120
817.934	28246
818.075	28310
818.216	28207
818.356	28246
818.497	28109
818.638	27964
818.778	28051
818.919	28036
819.06	28135
819.2	28238
819.341	28348
819.481	28310
819.622	28367
819.762	28637
819.903	28470
820.043	28443
820.184	28527
820.324	28382
820.465	28409
820.605	28466
820.746	28337
820.886	28348
821.026	28436
821.167	28344
821.307	28417
821.447	28303
821.588	28204
821.728	28032
821.868	27869
822.008	27793
822.149	27732
822.289	27827
822.429	27500
822.569	27488
822.709	27519
822.849	27222
822.99	27416
823.13	27085
823.27	27275
823.41	27100
823.55	26963
823.69	27131
823.83	27070
823.97	27043
824.11	26845
824.25	26811
824.389	26982
824.529	27017
824.669	26925
824.809	26982
824.949	26880
825.089	27077
825.228	26883
825.368	26804
825.508	26785
825.648	26648
825.787	26830
825.927	26906
826.067	26838
826.206	26815
826.346	26883
826.485	26937
826.625	26830
826.765	26906
826.904	26849
827.044	26530
827.183	26526
827.323	26480
827.462	26579
827.601	26587
827.741	26457
827.88	26625
828.02	26336
828.159	26545
828.298	26530
828.437	26552
828.577	26480
828.716	26594
828.855	26446
828.994	26233
829.134	26343
829.273	26282
829.412	26119
829.551	26187
829.69	26199
829.829	26248
829.968	26374
830.107	26267
830.246	26092
830.385	26054
830.524	26103
830.663	26005
830.802	25966
830.941	25875
831.08	25818
831.219	25845
831.357	25814
831.496	25989
831.635	25871
831.774	25647
831.913	25685
832.051	25616
832.19	25510
832.329	25635
832.467	25460
832.606	25495
832.744	25426
832.883	25468
833.022	25441
833.16	25552
833.299	25525
833.437	25491
833.576	25518
833.714	25510
833.852	25635
833.991	25616
834.129	25556
834.267	25567
834.406	25632
834.544	25696
834.682	25651
834.821	25487
834.959	25696
835.097	25468
835.235	25529
835.373	25563
835.511	25590
835.65	25373
835.788	25487
835.926	25274
836.064	25301
836.202	25263
836.34	25362
836.478	25632
836.615	25388
836.753	25445
836.891	25510
837.029	25369
837.167	25263
837.305	25282
837.443	25160
837.58	25194
837.718	25228
837.856	25194
837.993	25244
838.131	25225
838.269	25080
838.406	25080
838.544	25046
838.681	24916
838.819	24962
838.956	24684
839.094	24620
839.231	24749
839.369	24863
839.506	25065
839.643	24985
839.781	24665
839.918	24464
840.055	24688
840.193	24650
840.33	24646
840.467	24532
840.604	24700
840.742	24837
840.879	24566
841.016	24532
841.153	24490
841.29	24559
841.427	24486
841.564	24658
841.701	24505
841.838	24593
841.975	24365
842.112	24483
842.249	24334
842.385	24273
842.522	24585
842.659	24467
842.796	24201
842.933	24285
843.069	24239
843.206	24334
843.343	24315
843.479	24266
843.616	24323
843.752	24220
843.889	24095
844.025	24174
844.162	24064
844.298	24133
844.435	24064
844.571	24034
844.708	24243
844.844	24315
844.98	24201
845.117	24311
845.253	24102
845.389	23889
845.525	24022
845.661	23798
845.798	23783
845.934	23893
846.07	23779
846.206	23859
846.342	24018
846.478	23809
846.614	23714
846.75	23627
846.886	23581
847.022	23665
847.158	23577
847.294	23611
847.429	23707
847.565	23516
847.701	23726
847.837	23269
847.972	23242
848.108	23368
848.244	23288
848.379	23143
848.515	23174
848.65	23128
848.786	23136
848.921	23136
849.057	23235
849.192	23223
849.328	23231
849.463	23029
849.598	23006
849.734	22938
849.869	22961
850.004	22934
850.14	22915
850.275	22850
850.41	22866
850.545	22790
850.68	22938
850.815	22934
850.95	22889
851.085	23227
851.22	23067
851.355	22976
851.49	22930
851.625	22915
851.76	22946
851.895	22847
852.03	22774
852.165	22904
852.299	22946
852.434	22957
852.569	22965
852.703	22858
852.838	22911
852.973	23037
853.107	22972
853.242	22801
853.376	22782
853.511	22580
853.645	22850
853.78	22866
853.914	22805
854.048	22702
854.183	22736
854.317	22740
854.451	23033
854.585	22630
854.72	22630
854.854	22831
854.988	22691
855.122	22649
855.256	22672
855.39	22675
855.524	22828
855.658	22755
855.792	22847
855.926	22710
856.06	22759
856.194	22752
856.327	22717
856.461	22748
856.595	22679
856.729	22839
856.862	22801
856.996	22740
857.13	22900
857.263	22812
857.397	22869
857.53	22729
857.664	22710
857.797	22763
857.931	22694
858.064	22809
858.197	22919
858.331	22721
858.464	22816
858.597	22710
858.731	22675
858.864	22710
858.997	22706
859.13	22687
859.263	22759
859.396	22877
859.529	22668
859.662	22748
859.795	22691
859.928	22573
860.061	22972
860.194	22885
860.327	22873
860.46	22828
860.592	22820
860.725	22908
860.858	22911
860.99	22782
861.123	22679
861.256	22725
861.388	22763
861.521	23524
861.653	22672
861.786	22538
861.918	22565
862.05	22618
862.183	22546
862.315	22744
862.447	22873
862.58	22660
862.712	22508
862.844	22421
862.976	22489
863.108	22432
863.24	22919
863.372	22375
863.504	22409
863.636	22371
863.768	22405
863.9	22455
864.032	22352
864.164	22303
864.296	22455
864.428	22584
864.559	22481
864.691	22618
864.823	22421
864.954	22436
865.086	22500
865.217	22333
865.349	22356
865.48	22390
865.612	22196
865.743	22424
865.875	22215
866.006	22253
866.137	22398
866.269	22424
866.4	22135
866.531	22246
866.662	22188
866.793	22284
866.924	22215
867.055	22207
867.186	22242
867.317	22215
867.448	22234
867.579	22166
867.71	22200
867.841	22112
867.972	22188
868.103	22177
868.233	22200
868.364	22226
868.495	22402
868.625	22424
868.756	22550
868.886	22409
869.017	22402
869.147	22489
869.278	22592
869.408	22481
869.539	22592
869.669	22504
869.799	22569
869.929	22618
870.06	22489
870.19	22767
870.32	22816
870.45	22839
870.58	22869
870.71	22900
870.84	22930
870.97	22862
871.1	22782
871.23	23067
871.36	23170
871.489	22942
871.619	22999
871.749	23128
871.879	23098
872.008	23208
872.138	23178
872.267	23060
872.397	23006
872.526	22915
872.656	22934
872.785	22911
872.915	23174
873.044	23178
873.173	23071
873.303	23109
873.432	23174
873.561	23178
873.69	23185
873.819	23117
873.948	23189
874.077	23189
874.206	22953
874.335	23102
874.464	23193
874.593	23307
874.722	23220
874.851	23414
874.979	23356
875.108	23296
875.237	23239
875.365	23197
875.494	23303
875.623	23322
875.751	23200
875.88	23387
876.008	23410
876.136	23406
876.265	23691
876.393	23817
876.521	23687
876.65	23729
876.778	23707
876.906	23551
877.034	23482
877.162	23680
877.29	23570
877.418	23657
877.546	23581
877.674	23577
877.802	23649
877.93	23684
878.058	23661
878.185	23444
878.313	23493
878.441	23585
878.568	23486
878.696	23630
878.824	23718
878.951	23767
879.079	23779
879.206	23817
879.333	23817
879.461	23627
879.588	23718
879.715	23809
879.842	23912
879.97	23794
880.097	23414
880.224	23482
880.351	23581
880.478	23414
880.605	23429
880.732	23421
880.859	23680
880.986	23524
881.112	23429
881.239	23337
881.366	23208
881.493	23155
881.619	23136
881.746	23022
881.872	23048
881.999	23029
882.125	23052
882.252	23029
882.378	23003
882.505	23147
882.631	22892
882.757	22866
882.883	22847
883.01	22752
883.136	22675
883.262	22542
883.388	22592
883.514	22645
883.64	22653
883.766	22573
883.892	22447
884.018	22535
884.143	22809
884.269	22702
884.395	22440
884.52	22329
884.646	22440
884.772	22265
884.897	22284
885.023	22181
885.148	22360
885.274	22504
885.399	22474
885.524	22341
885.65	22379
885.775	22466
885.9	22310
886.025	22424
886.15	22363
886.275	22337
886.4	22344
886.525	22272
886.65	22181
886.775	22314
886.9	22474
887.025	22592
887.149	22257
887.274	22067
887.399	22036
887.523	22268
887.648	22090
887.773	21991
887.897	22238
888.021	22200
888.146	22017
888.27	22090
888.395	22238
888.519	22116
888.643	22135
888.767	22112
888.891	21987
889.015	21941
889.139	21953
889.263	21835
889.387	22051
889.511	22147
889.635	22055
889.759	21892
889.883	21846
890.006	21766
890.13	21975
890.254	21720
890.377	21800
890.501	21694
890.624	21549
890.748	21648
890.871	21488
890.995	21450
891.118	21401
891.241	21511
891.364	21431
891.488	21599
891.611	21420
891.734	21466
891.857	21481
891.98	21572
892.103	21435
892.226	21538
892.349	21389
892.471	21192
892.594	21287
892.717	21473
892.839	21363
892.962	21291
893.085	21450
893.207	21359
893.33	21195
893.452	21226
893.575	21329
893.697	21230
893.819	21424
893.941	21416
894.064	21393
894.186	21207
894.308	21241
894.43	21466
894.552	21275
894.674	21351
894.796	21032
894.918	21283
895.04	21351
895.161	21283
895.283	21310
895.405	21116
895.526	21287
895.648	21256
895.769	21313
895.891	21310
896.012	21397
896.134	21275
896.255	21287
896.376	21306
896.498	21252
896.619	21389
896.74	21245
896.861	21344
896.982	21545
897.103	21694
897.224	21564
897.345	21454
897.466	21462
897.587	21443
897.708	21675
897.828	21530
897.949	21408
898.07	21249
898.19	21336
898.311	21545
898.431	21408
898.552	21526
898.672	21507
898.792	21496
898.913	21420
899.033	21298
899.153	21264
899.273	21230
899.393	21211
899.513	21340
899.633	21275
899.753	21264
899.873	21165
899.993	21176
900.113	21150
900.232	21093
900.352	21039
900.472	21047
900.591	20921
900.711	21009
900.83	20826
900.95	20929
901.069	20982
901.189	20857
901.308	20617
901.427	20526
901.546	20507
901.665	20560
901.784	20488
901.904	20317
902.023	20362
902.141	20088
902.26	20073
902.379	20065
902.498	19993
902.617	19993
902.735	19989
902.854	19944
902.973	19856
903.091	19635
903.21	19689
903.328	19731
903.446	19689
903.565	19601
903.683	19559
903.801	19346
903.919	19464
904.038	19502
904.156	19304
904.274	19415
904.392	19145
904.51	19137
904.627	19152
904.745	19213
904.863	19308
904.981	19057
905.098	18935
905.216	18932
905.334	18943
905.451	18947
905.569	18882
905.686	18928
905.803	18863
905.921	18642
906.038	18779
906.155	18711
906.272	18604
906.389	18589
906.506	18418
906.623	18426
906.74	18452
906.857	18342
906.974	18273
907.091	18623
907.208	18490
907.324	18452
907.441	18319
907.557	18087
907.674	18087
907.79	18057
907.907	18174
908.023	18102
908.139	18095
908.256	17954
908.372	18095
908.488	17920
908.604	17775
908.72	17798
908.836	17999
908.952	17809
909.068	17927
909.184	17954
909.3	17874
909.415	17813
909.531	17836
909.647	17615
909.762	17501
909.878	17543
909.993	17577
910.108	17516
910.224	17436
910.339	17558
910.454	17444
910.57	17417
910.685	17231
910.8	17543
910.915	17543
911.03	17395
911.145	17181
911.259	17079
911.374	17200
911.489	17117
911.604	16995
911.718	16892
911.833	16946
911.947	16755
912.062	16752
912.176	16965
912.291	16904
912.405	16850
912.519	17025
912.633	17025
912.748	16896
912.862	16831
912.976	16706
913.09	16531
913.204	16573
913.318	16679
913.431	16717
913.545	16774
913.659	16736
913.772	16542
913.886	16493
914	16409
914.113	16542
914.226	16592
914.34	16527
914.453	16367
914.566	16489
914.68	16344
914.793	16291
914.906	16120
915.019	15968
915.132	15949
915.245	15975
915.358	16086
915.47	16128
915.583	15972
915.696	15998
915.809	16196
915.921	16181
916.034	16036
916.146	15880
916.259	15861
916.371	15937
916.483	15953
916.595	15778
916.708	15804
916.82	15812
916.932	15800
917.044	15865
917.156	15857
917.268	15633
917.38	15728
917.491	15724
917.603	15709
917.715	15682
917.826	15717
917.938	15625
918.049	15591
918.161	15641
918.272	15789
918.384	15736
918.495	15545
918.606	15534
918.717	15344
918.828	15363
918.939	15412
919.05	15245
919.161	15405
919.272	15093
919.383	15249
919.494	15443
919.604	15530
919.715	15332
919.826	15302
919.936	15405
920.047	15389
920.157	15310
920.267	15454
920.378	15302
920.488	15252
920.598	15534
920.708	15545
920.818	15431
920.928	15431
921.038	15690
921.148	15481
921.258	15256
921.368	15146
921.477	15013
921.587	15089
921.697	14899
921.806	15074
921.916	14929
922.025	14758
922.134	14686
922.244	14667
922.353	14815
922.462	14590
922.571	14507
922.68	14332
922.789	14301
922.898	14336
923.007	14286
923.116	14301
923.224	14328
923.333	14374
923.442	14244
923.55	14149
923.659	14100
923.767	14256
923.876	14161
923.984	14248
924.092	13982
924.201	14027
924.309	14024
924.417	14016
924.525	14020
924.633	13978
924.741	14834
924.849	13757
924.956	13936
925.064	13712
925.172	13643
925.279	13700
925.387	13685
925.494	13776
925.602	13784
925.709	13723
925.816	13540
925.924	13613
926.031	13693
926.138	13529
926.245	13655
926.352	13487
926.459	13734
926.566	13597
926.673	13605
926.779	13510
926.886	13453
926.993	13282
927.099	13263
927.206	13152
927.312	13160
927.419	13198
927.525	13282
927.631	13301
927.737	13217
927.843	13099
927.95	13019
928.056	13069
928.162	13050
928.267	13133
928.373	13734
928.479	13194
928.585	12897
928.69	12962
928.796	12947
928.901	12821
929.007	12738
929.112	12863
929.218	12798
929.323	12825
929.428	12722
929.533	12920
929.638	12665
929.743	12726
929.848	12795
929.953	12669
930.058	12604
930.163	12380
930.267	12448
930.372	12650
930.477	12399
930.581	12650
930.685	12338
930.79	12292
930.894	12338
930.998	12235
931.103	12372
931.207	11992
931.311	11996
931.415	11889
931.519	11608
931.623	11756
