Data from test_V78500241_2940.txt Node
Date: Fri Mar 25 16:02:10 CST 2022
User: usil
Spectrometer: V785-0024
Trigger mode: 0
Integration Time (sec): 4.000000E-1
Scans to average: 1
Nonlinearity correction enabled: false
Boxcar width: 0
Storing dark spectrum: false
XAxis mode: Wavelengths
Number of Pixels in Spectrum: 1024
>>>>>Begin Spectral Data<<<<<
801.071	28577
801.214	28793
801.356	28485
801.499	28382
801.641	28295
801.783	28310
801.926	28280
802.068	28223
802.211	28257
802.353	28261
802.496	28166
802.638	27956
802.78	28002
802.923	27934
803.065	27972
803.208	27926
803.35	28131
803.492	28074
803.635	28226
803.777	28074
803.919	28207
804.061	28455
804.204	28192
804.346	28025
804.488	28173
804.63	28230
804.773	28223
804.915	28356
805.057	28474
805.199	28223
805.341	28310
805.483	28367
805.626	28481
805.768	28284
805.91	28421
806.052	28447
806.194	28226
806.336	28565
806.478	28405
806.62	28519
806.762	28557
806.904	28611
807.046	28888
807.188	28847
807.33	28862
807.472	28946
807.614	28694
807.756	28809
807.898	28675
808.04	28565
808.182	28523
808.324	28820
808.465	28812
808.607	28881
808.749	29166
808.891	29151
809.033	29258
809.174	29124
809.316	29155
809.458	29166
809.6	29025
809.741	29250
809.883	29143
810.025	29341
810.166	29349
810.308	29296
810.45	29368
810.591	29307
810.733	29227
810.875	29041
811.016	28930
811.158	29010
811.299	29181
811.441	29254
811.582	29239
811.724	29181
811.865	29204
812.007	29121
812.148	29067
812.29	29181
812.431	29364
812.573	29493
812.714	29623
812.855	29592
812.997	29570
813.138	29729
813.279	29733
813.421	29764
813.562	29630
813.703	29417
813.845	29269
813.986	28965
814.127	28759
814.268	28812
814.41	28881
814.551	28710
814.692	28869
814.833	28645
814.974	28786
815.115	28801
815.256	28820
815.397	28618
815.539	28702
815.68	28557
815.821	28489
815.962	28618
816.103	28767
816.244	28535
816.385	28276
816.526	28390
816.666	28139
816.807	28116
816.948	28272
817.089	28257
817.23	28006
817.371	28211
817.512	28051
817.653	28105
817.793	28074
817.934	28139
818.075	28128
818.216	28093
818.356	28135
818.497	28097
818.638	27907
818.778	27918
818.919	27884
819.06	27846
819.2	27914
819.341	28013
819.481	27994
819.622	28424
819.762	28653
819.903	28295
820.043	28398
820.184	28268
820.324	28421
820.465	28348
820.605	28181
820.746	28188
820.886	28063
821.026	28051
821.167	28280
821.307	28207
821.447	28158
821.588	27960
821.728	27774
821.868	27755
822.008	27713
822.149	27610
822.289	27663
822.429	27279
822.569	27283
822.709	27386
822.849	27051
822.99	27245
823.13	27039
823.27	27093
823.41	27039
823.55	26758
823.69	26842
823.83	26963
823.97	26971
824.11	26796
824.25	26777
824.389	26796
824.529	26834
824.669	26655
824.809	26849
824.949	26845
825.089	26971
825.228	26906
825.368	26663
825.508	26571
825.648	26746
825.787	26564
825.927	26731
826.067	26640
826.206	26568
826.346	26868
826.485	26838
826.625	26651
826.765	26720
826.904	26773
827.044	26450
827.183	26549
827.323	26400
827.462	26571
827.601	26499
827.741	26347
827.88	26355
828.02	26313
828.159	26320
828.298	26355
828.437	26453
828.577	26381
828.716	26336
828.855	26237
828.994	26073
829.134	26088
829.273	26176
829.412	26081
829.551	25989
829.69	26035
829.829	26050
829.968	26229
830.107	26054
830.246	26027
830.385	26005
830.524	25947
830.663	25921
830.802	25883
830.941	25696
831.08	25601
831.219	25761
831.357	25674
831.496	25898
831.635	25753
831.774	25548
831.913	25563
832.051	25377
832.19	25499
832.329	25506
832.467	25373
832.606	25377
832.744	25247
832.883	25327
833.022	25217
833.16	25407
833.299	25365
833.437	25358
833.576	25411
833.714	25445
833.852	25362
833.991	25438
834.129	25540
834.267	25438
834.406	25472
834.544	25449
834.682	25346
834.821	25381
834.959	25525
835.097	25327
835.235	25369
835.373	25301
835.511	25384
835.65	25369
835.788	25206
835.926	25148
836.064	25015
836.202	25008
836.34	25221
836.478	25236
836.615	25141
836.753	25206
836.891	25400
837.029	25194
837.167	25247
837.305	25133
837.443	25110
837.58	25129
837.718	25061
837.856	25183
837.993	24890
838.131	25232
838.269	24966
838.406	24905
838.544	24954
838.681	24604
838.819	24635
838.956	24536
839.094	24544
839.231	24719
839.369	24764
839.506	24905
839.643	24711
839.781	24544
839.918	24376
840.055	24513
840.193	24426
840.33	24460
840.467	24441
840.604	24536
840.742	24642
840.879	24334
841.016	24490
841.153	24346
841.29	24414
841.427	24570
841.564	24490
841.701	24422
841.838	24323
841.975	24239
842.112	24190
842.249	24224
842.385	24277
842.522	24471
842.659	24117
842.796	24140
842.933	24304
843.069	24110
843.206	24205
843.343	24289
843.479	24281
843.616	24285
843.752	23999
843.889	23939
844.025	24155
844.162	23920
844.298	23901
844.435	23889
844.571	23824
844.708	23931
844.844	24079
844.98	24053
845.117	24015
845.253	23882
845.389	23855
845.525	23912
845.661	23775
845.798	23653
845.934	23619
846.07	23657
846.206	23764
846.342	23752
846.478	23615
846.614	23429
846.75	23391
846.886	23417
847.022	23535
847.158	23337
847.294	23425
847.429	23493
847.565	23425
847.701	23646
847.837	23086
847.972	23083
848.108	23128
848.244	23208
848.379	23044
848.515	23006
848.65	22858
848.786	23018
848.921	22961
849.057	23033
849.192	23121
849.328	22991
849.463	22972
849.598	22980
849.734	22854
849.869	22957
850.004	22816
850.14	22797
850.275	22744
850.41	22668
850.545	22717
850.68	22778
850.815	22763
850.95	22854
851.085	22961
851.22	22965
851.355	22782
851.49	22831
851.625	22698
851.76	22755
851.895	22656
852.03	22649
852.165	22733
852.299	22755
852.434	22877
852.569	22801
852.703	22854
852.838	22797
852.973	22797
853.107	22790
853.242	22687
853.376	22607
853.511	22565
853.645	22508
853.78	22713
853.914	22675
854.048	22504
854.183	22535
854.317	22713
854.451	22687
854.585	22500
854.72	22546
854.854	22580
854.988	22538
855.122	22634
855.256	22497
855.39	22664
855.524	22557
855.658	22774
855.792	22577
855.926	22611
856.06	22759
856.194	22694
856.327	22622
856.461	22466
856.595	22554
856.729	22497
856.862	22713
856.996	22527
857.13	22626
857.263	22748
857.397	22748
857.53	22512
857.664	22694
857.797	22577
857.931	22637
858.064	22550
858.197	22786
858.331	22538
858.464	22478
858.597	22436
858.731	22485
858.864	22535
858.997	22500
859.13	22607
859.263	22649
859.396	22645
859.529	22504
859.662	22546
859.795	22538
859.928	22538
860.061	22702
860.194	22771
860.327	22744
860.46	22713
860.592	22630
860.725	22691
860.858	22687
860.99	22577
861.123	22557
861.256	22500
861.388	22679
861.521	23383
861.653	22493
861.786	22303
861.918	22371
862.05	22447
862.183	22485
862.315	22577
862.447	22546
862.58	22470
862.712	22249
862.844	22234
862.976	22432
863.108	22314
863.24	22782
863.372	22223
863.504	22249
863.636	22226
863.768	22333
863.9	22409
864.032	22230
864.164	22333
864.296	22394
864.428	22428
864.559	22363
864.691	22344
864.823	22322
864.954	22341
865.086	22306
865.217	22147
865.349	22147
865.48	22192
865.612	22207
865.743	22223
865.875	22147
866.006	21994
866.137	22143
866.269	22234
866.4	22078
866.531	22147
866.662	22150
866.793	21983
866.924	22109
867.055	22097
867.186	22238
867.317	21975
867.448	21930
867.579	22070
867.71	22097
867.841	21945
867.972	22238
868.103	22120
868.233	22169
868.364	21960
868.495	22196
868.625	22261
868.756	22584
868.886	22249
869.017	22398
869.147	22432
869.278	22508
869.408	22344
869.539	22188
869.669	22512
869.799	22360
869.929	22459
870.06	22417
870.19	22584
870.32	22668
870.45	22664
870.58	22622
870.71	22980
870.84	22820
870.97	22839
871.1	22687
871.23	22839
871.36	23022
871.489	22809
871.619	22896
871.749	22972
871.879	22847
872.008	23010
872.138	23140
872.267	22930
872.397	22717
872.526	22752
872.656	22793
872.785	22736
872.915	22919
873.044	22942
873.173	22885
873.303	22965
873.432	22987
873.561	22987
873.69	23010
873.819	22961
873.948	23094
874.077	22892
874.206	22911
874.335	22949
874.464	23147
874.593	22976
874.722	23132
874.851	23204
874.979	23284
875.108	23223
875.237	23174
875.365	23170
875.494	23185
875.623	23216
875.751	23102
875.88	23299
876.008	23265
876.136	23395
876.265	23623
876.393	23535
876.521	23642
876.65	23611
876.778	23539
876.906	23509
877.034	23539
877.162	23577
877.29	23459
877.418	23493
877.546	23627
877.674	23471
877.802	23402
877.93	23516
878.058	23448
878.185	23440
878.313	23562
878.441	23524
878.568	23349
878.696	23440
878.824	23474
878.951	23589
879.079	23726
879.206	23760
879.333	23733
879.461	23524
879.588	23649
879.715	23668
879.842	23771
879.97	23589
880.097	23330
880.224	23311
880.351	23421
880.478	23322
880.605	23334
880.732	23280
880.859	23501
880.986	23395
881.112	23376
881.239	23258
881.366	23071
881.493	22961
881.619	22793
881.746	23006
881.872	22820
881.999	22847
882.125	22835
882.252	22877
882.378	22801
882.505	22968
882.631	22691
882.757	22478
882.883	22557
883.01	22592
883.136	22481
883.262	22485
883.388	22440
883.514	22596
883.64	22618
883.766	22470
883.892	22356
884.018	22390
884.143	22531
884.269	22611
884.395	22318
884.52	22181
884.646	22223
884.772	22101
884.897	22112
885.023	22226
885.148	22447
885.274	22310
885.399	22333
885.524	22280
885.65	22188
885.775	22063
885.9	22211
886.025	22230
886.15	22207
886.275	22173
886.4	22090
886.525	22169
886.65	22059
886.775	22078
886.9	22303
887.025	22390
887.149	22143
887.274	22006
887.399	21903
887.523	21865
887.648	21873
887.773	21884
887.897	22025
888.021	21991
888.146	21964
888.27	22017
888.395	22128
888.519	21953
888.643	22078
888.767	22048
888.891	21884
889.015	21705
889.139	21759
889.263	21812
889.387	21789
889.511	21941
889.635	21884
889.759	21713
889.883	21732
890.006	21633
890.13	21770
890.254	21652
890.377	21762
890.501	21515
890.624	21633
890.748	21469
890.871	21332
890.995	21222
891.118	21165
891.241	21363
891.364	21237
891.488	21412
891.611	21249
891.734	21176
891.857	21348
891.98	21245
892.103	21336
892.226	21241
892.349	21241
892.471	21135
892.594	21252
892.717	21154
892.839	21150
892.962	21264
893.085	21294
893.207	21146
893.33	21024
893.452	21077
893.575	21298
893.697	21138
893.819	21203
893.941	21386
894.064	21233
894.186	21146
894.308	21005
894.43	21218
894.552	21264
894.674	21173
894.796	21009
894.918	21211
895.04	21047
895.161	21146
895.283	21135
895.405	21116
895.526	21131
895.648	21108
895.769	21138
895.891	21150
896.012	21249
896.134	21306
896.255	21157
896.376	21089
896.498	21127
896.619	21199
896.74	21108
896.861	21108
896.982	21454
897.103	21568
897.224	21431
897.345	21424
897.466	21370
897.587	21401
897.708	21564
897.828	21363
897.949	21249
898.07	21104
898.19	21306
898.311	21469
898.431	21249
898.552	21313
898.672	21348
898.792	21378
898.913	21291
899.033	21214
899.153	21142
899.273	21051
899.393	21135
899.513	21085
899.633	21043
899.753	21116
899.873	21055
899.993	20990
900.113	20845
900.232	20982
900.352	21047
900.472	20952
900.591	20769
900.711	20701
900.83	20815
900.95	20830
901.069	20876
901.189	20651
901.308	20469
901.427	20415
901.546	20370
901.665	20465
901.784	20408
901.904	20263
902.023	20168
902.141	20001
902.26	19993
902.379	20065
902.498	19982
902.617	19818
902.735	19955
902.854	19826
902.973	19693
903.091	19609
903.21	19529
903.328	19590
903.446	19468
903.565	19422
903.683	19369
903.801	19278
903.919	19392
904.038	19373
904.156	19251
904.274	19156
904.392	19050
904.51	19072
904.627	18977
904.745	19236
904.863	19263
904.981	18939
905.098	18791
905.216	18760
905.334	18829
905.451	18776
905.569	18848
905.686	18814
905.803	18783
905.921	18582
906.038	18555
906.155	18388
906.272	18471
906.389	18460
906.506	18266
906.623	18304
906.74	18235
906.857	18197
906.974	18273
907.091	18319
907.208	18456
907.324	18384
907.441	18243
907.557	18110
907.674	18003
907.79	17916
907.907	17931
908.023	17935
908.139	17950
908.256	17996
908.372	17939
908.488	17908
908.604	17756
908.72	17794
908.836	17786
908.952	17767
909.068	17741
909.184	17802
909.3	17665
909.415	17722
909.531	17779
909.647	17383
909.762	17459
909.878	17482
909.993	17459
910.108	17516
910.224	17433
910.339	17322
910.454	17246
910.57	17261
910.685	17151
910.8	17315
910.915	17452
911.03	17170
911.145	17143
911.259	17037
911.374	17056
911.489	16949
911.604	16889
911.718	16736
911.833	16866
911.947	16615
912.062	16592
912.176	16721
912.291	16866
912.405	16759
912.519	16953
912.633	16911
912.748	16767
912.862	16744
912.976	16615
913.09	16455
913.204	16535
913.318	16622
913.431	16710
913.545	16565
913.659	16626
913.772	16481
913.886	16451
914	16382
914.113	16489
914.226	16485
914.34	16451
914.453	16207
914.566	16436
914.68	16249
914.793	16196
914.906	16006
915.019	15949
915.132	15865
915.245	15892
915.358	16036
915.47	15994
915.583	15991
915.696	15895
915.809	16032
915.921	16112
916.034	15869
916.146	15854
916.259	15793
916.371	15945
916.483	15819
916.595	15584
916.708	15751
916.82	15778
916.932	15705
917.044	15701
917.156	15591
917.268	15526
917.38	15500
917.491	15485
917.603	15526
917.715	15652
917.826	15591
917.938	15538
918.049	15374
918.161	15454
918.272	15641
918.384	15587
918.495	15435
918.606	15272
918.717	15211
918.828	15302
918.939	15310
919.05	15218
919.161	15389
919.272	15070
919.383	15074
919.494	15370
919.604	15462
919.715	15260
919.826	15252
919.936	15256
920.047	15291
920.157	15203
920.267	15348
920.378	15283
920.488	15226
920.598	15408
920.708	15435
920.818	15393
920.928	15298
921.038	15488
921.148	15454
921.258	15249
921.368	15146
921.477	14979
921.587	14937
921.697	14826
921.806	14952
921.916	14800
922.025	14613
922.134	14602
922.244	14465
922.353	14686
922.462	14488
922.571	14393
922.68	14294
922.789	14145
922.898	14286
923.007	14153
923.116	14172
923.224	14187
923.333	14286
923.442	14115
923.55	14008
923.659	14138
923.767	14123
923.876	13986
923.984	14180
924.092	13947
924.201	13978
924.309	13978
924.417	13986
924.525	13917
924.633	13902
924.741	14735
924.849	13700
924.956	13845
925.064	13681
925.172	13658
925.279	13689
925.387	13590
925.494	13624
925.602	13837
925.709	13689
925.816	13510
925.924	13537
926.031	13605
926.138	13491
926.245	13670
926.352	13472
926.459	13540
926.566	13674
926.673	13472
926.779	13400
926.886	13331
926.993	13171
927.099	13168
927.206	13050
927.312	13103
927.419	13118
927.525	13160
927.631	13103
927.737	13012
927.843	12935
927.95	12814
928.056	12939
928.162	13008
928.267	12973
928.373	13540
928.479	13012
928.585	12791
928.69	12901
928.796	13000
928.901	12791
929.007	12665
929.112	12806
929.218	12894
929.323	12684
929.428	12665
929.533	12795
929.638	12623
929.743	12582
929.848	12665
929.953	12646
930.058	12517
930.163	12323
930.267	12289
930.372	12460
930.477	12296
930.581	12585
930.685	12483
930.79	12277
930.894	12292
930.998	12197
931.103	12258
931.207	11996
931.311	11863
931.415	11874
931.519	11615
931.623	11539
