Data from test_V78500241_1826.txt Node
Date: Fri Mar 25 15:54:27 CST 2022
User: usil
Spectrometer: V785-0024
Trigger mode: 0
Integration Time (sec): 4.000000E-1
Scans to average: 1
Nonlinearity correction enabled: false
Boxcar width: 0
Storing dark spectrum: false
XAxis mode: Wavelengths
Number of Pixels in Spectrum: 1024
>>>>>Begin Spectral Data<<<<<
801.071	28599
801.214	28649
801.356	28386
801.499	28341
801.641	28333
801.783	28379
801.926	28188
802.068	28257
802.211	28417
802.353	28192
802.496	27880
802.638	27941
802.78	28010
802.923	27827
803.065	27842
803.208	27873
803.35	28143
803.492	28112
803.635	28295
803.777	28097
803.919	28219
804.061	28531
804.204	28287
804.346	28215
804.488	28055
804.63	28185
804.773	28188
804.915	28261
805.057	28310
805.199	28169
805.341	28409
805.483	28413
805.626	28242
805.768	28287
805.91	28318
806.052	28390
806.194	28215
806.336	28637
806.478	28337
806.62	28527
806.762	28421
806.904	28565
807.046	28835
807.188	28847
807.33	28793
807.472	28919
807.614	28835
807.756	28752
807.898	28615
808.04	28584
808.182	28603
808.324	28717
808.465	28717
808.607	28885
808.749	29064
808.891	29147
809.033	29349
809.174	29155
809.316	28972
809.458	28965
809.6	29109
809.741	29113
809.883	29318
810.025	29368
810.166	29258
810.308	29311
810.45	29246
810.591	29220
810.733	29151
810.875	29121
811.016	28972
811.158	29022
811.299	29143
811.441	29315
811.582	29193
811.724	29105
811.865	29022
812.007	29075
812.148	29067
812.29	29159
812.431	29360
812.573	29261
812.714	29448
812.855	29482
812.997	29596
813.138	29570
813.279	29733
813.421	29436
813.562	29455
813.703	29345
813.845	29254
813.986	29105
814.127	28778
814.268	28793
814.41	28885
814.551	28721
814.692	28850
814.833	28675
814.974	28596
815.115	28691
815.256	28763
815.397	28736
815.539	28634
815.68	28535
815.821	28360
815.962	28497
816.103	28679
816.244	28424
816.385	28424
816.526	28242
816.666	28097
816.807	28017
816.948	28124
817.089	28147
817.23	28238
817.371	27941
817.512	28097
817.653	27979
817.793	28006
817.934	28017
818.075	28025
818.216	27930
818.356	28097
818.497	27945
818.638	27880
818.778	27717
818.919	27713
819.06	28070
819.2	27907
819.341	28082
819.481	28093
819.622	28272
819.762	28504
819.903	28322
820.043	28268
820.184	28158
820.324	28185
820.465	28261
820.605	28051
820.746	28238
820.886	28185
821.026	28109
821.167	28219
821.307	28257
821.447	28010
821.588	27914
821.728	27819
821.868	27610
822.008	27679
822.149	27576
822.289	27511
822.429	27249
822.569	27321
822.709	27283
822.849	27066
822.99	27093
823.13	27043
823.27	27013
823.41	26887
823.55	26765
823.69	26986
823.83	26956
823.97	26830
824.11	26815
824.25	26769
824.389	26743
824.529	26788
824.669	26625
824.809	26895
824.949	26796
825.089	26762
825.228	26899
825.368	26583
825.508	26568
825.648	26552
825.787	26613
825.927	26587
826.067	26701
826.206	26659
826.346	26708
826.485	26682
826.625	26541
826.765	26727
826.904	26575
827.044	26339
827.183	26495
827.323	26336
827.462	26343
827.601	26313
827.741	26355
827.88	26309
828.02	26069
828.159	26233
828.298	26446
828.437	26461
828.577	26259
828.716	26324
828.855	26275
828.994	26126
829.134	25917
829.273	26077
829.412	25982
829.551	25845
829.69	26077
829.829	25986
829.968	26088
830.107	26062
830.246	26024
830.385	25928
830.524	25883
830.663	25803
830.802	25727
830.941	25601
831.08	25529
831.219	25575
831.357	25677
831.496	25791
831.635	25723
831.774	25521
831.913	25403
832.051	25537
832.19	25396
832.329	25392
832.467	25259
832.606	25289
832.744	25198
832.883	25194
833.022	25263
833.16	25274
833.299	25350
833.437	25270
833.576	25358
833.714	25419
833.852	25476
833.991	25240
834.129	25392
834.267	25365
834.406	25327
834.544	25403
834.682	25457
834.821	25343
834.959	25616
835.097	25324
835.235	25426
835.373	25384
835.511	25331
835.65	25194
835.788	25217
835.926	25137
836.064	24935
836.202	25091
836.34	25228
836.478	25217
836.615	25012
836.753	25164
836.891	25240
837.029	25209
837.167	25069
837.305	25103
837.443	25118
837.58	25023
837.718	25080
837.856	25050
837.993	24844
838.131	25008
838.269	24973
838.406	24913
838.544	24745
838.681	24635
838.819	24661
838.956	24391
839.094	24388
839.231	24528
839.369	24620
839.506	24882
839.643	24711
839.781	24604
839.918	24369
840.055	24505
840.193	24441
840.33	24376
840.467	24410
840.604	24399
840.742	24669
840.879	24201
841.016	24334
841.153	24285
841.29	24418
841.427	24353
841.564	24342
841.701	24311
841.838	24353
841.975	24369
842.112	24239
842.249	24121
842.385	24159
842.522	24292
842.659	24171
842.796	24057
842.933	23992
843.069	24110
843.206	24098
843.343	24213
843.479	24102
843.616	23946
843.752	23908
843.889	23870
844.025	24064
844.162	23843
844.298	24060
844.435	23893
844.571	23790
844.708	23999
844.844	24034
844.98	24133
845.117	24015
845.253	23790
845.389	23726
845.525	23863
845.661	23741
845.798	23707
845.934	23570
846.07	23589
846.206	23524
846.342	23741
846.478	23623
846.614	23448
846.75	23231
846.886	23322
847.022	23387
847.158	23299
847.294	23273
847.429	23387
847.565	23356
847.701	23585
847.837	23117
847.972	22934
848.108	23296
848.244	23151
848.379	23025
848.515	23029
848.65	22915
848.786	22938
848.921	22942
849.057	23025
849.192	23056
849.328	22942
849.463	22919
849.598	22889
849.734	22763
849.869	22797
850.004	22660
850.14	22702
850.275	22706
850.41	22630
850.545	22546
850.68	22656
850.815	22668
850.95	22740
851.085	22835
851.22	22721
851.355	22634
851.49	22637
851.625	22679
851.76	22744
851.895	22535
852.03	22630
852.165	22683
852.299	22679
852.434	22797
852.569	22782
852.703	22634
852.838	22713
852.973	22759
853.107	22854
853.242	22656
853.376	22363
853.511	22481
853.645	22424
853.78	22538
853.914	22504
854.048	22474
854.183	22447
854.317	22493
854.451	22698
854.585	22466
854.72	22565
854.854	22550
854.988	22466
855.122	22413
855.256	22398
855.39	22451
855.524	22561
855.658	22497
855.792	22489
855.926	22557
856.06	22649
856.194	22550
856.327	22474
856.461	22459
856.595	22462
856.729	22409
856.862	22516
856.996	22497
857.13	22504
857.263	22512
857.397	22618
857.53	22470
857.664	22592
857.797	22634
857.931	22611
858.064	22634
858.197	22569
858.331	22474
858.464	22398
858.597	22421
858.731	22504
858.864	22500
858.997	22470
859.13	22546
859.263	22523
859.396	22542
859.529	22508
859.662	22546
859.795	22375
859.928	22660
860.061	22698
860.194	22850
860.327	22550
860.46	22424
860.592	22546
860.725	22630
860.858	22820
860.99	22497
861.123	22382
861.256	22596
861.388	22531
861.521	23178
861.653	22337
861.786	22325
861.918	22299
862.05	22440
862.183	22379
862.315	22466
862.447	22478
862.58	22299
862.712	22219
862.844	22101
862.976	22249
863.108	22257
863.24	22557
863.372	22150
863.504	22154
863.636	22139
863.768	22223
863.9	22226
864.032	22139
864.164	22177
864.296	22169
864.428	22337
864.559	22200
864.691	22306
864.823	22280
864.954	22055
865.086	22029
865.217	22070
865.349	22078
865.48	22051
865.612	22051
865.743	22242
865.875	22109
866.006	22067
866.137	22097
866.269	22135
866.4	22032
866.531	22070
866.662	21934
866.793	21975
866.924	22029
867.055	22040
867.186	21953
867.317	21895
867.448	21987
867.579	21979
867.71	21846
867.841	22017
867.972	22006
868.103	22029
868.233	22006
868.364	22116
868.495	22169
868.625	22382
868.756	22481
868.886	22249
869.017	22265
869.147	22333
869.278	22337
869.408	22230
869.539	22090
869.669	22424
869.799	22344
869.929	22390
870.06	22394
870.19	22542
870.32	22550
870.45	22557
870.58	22645
870.71	22820
870.84	22725
870.97	22618
871.1	22615
871.23	22877
871.36	22733
871.489	22679
871.619	22782
871.749	22687
871.879	22881
872.008	22915
872.138	22771
872.267	22717
872.397	22721
872.526	22752
872.656	22729
872.785	22778
872.915	22847
873.044	22900
873.173	22801
873.303	22980
873.432	22991
873.561	23025
873.69	23006
873.819	22869
873.948	22915
874.077	22812
874.206	22801
874.335	22900
874.464	23003
874.593	23105
874.722	23052
874.851	23102
874.979	23052
875.108	23189
875.237	22965
875.365	22919
875.494	23083
875.623	23159
875.751	23094
875.88	23151
876.008	23098
876.136	23307
876.265	23436
876.393	23634
876.521	23543
876.65	23531
876.778	23360
876.906	23341
877.034	23490
877.162	23376
877.29	23337
877.418	23307
877.546	23535
877.674	23474
877.802	23421
877.93	23425
878.058	23493
878.185	23334
878.313	23364
878.441	23414
878.568	23170
878.696	23452
878.824	23417
878.951	23497
879.079	23589
879.206	23699
879.333	23467
879.461	23372
879.588	23554
879.715	23581
879.842	23707
879.97	23581
880.097	23185
880.224	23311
880.351	23326
880.478	23193
880.605	23185
880.732	23178
880.859	23501
880.986	23189
881.112	23311
881.239	22987
881.366	22957
881.493	22854
881.619	22729
881.746	22820
881.872	22793
881.999	22672
882.125	22877
882.252	22812
882.378	22691
882.505	22736
882.631	22603
882.757	22527
882.883	22588
883.01	22447
883.136	22417
883.262	22268
883.388	22257
883.514	22485
883.64	22436
883.766	22272
883.892	22284
884.018	22261
884.143	22443
884.269	22424
884.395	22249
884.52	22029
884.646	22063
884.772	22036
884.897	21994
885.023	22215
885.148	22200
885.274	22284
885.399	22143
885.524	22025
885.65	22131
885.775	22059
885.9	22109
886.025	22177
886.15	22147
886.275	22158
886.4	22105
886.525	21979
886.65	21968
886.775	22112
886.9	22154
887.025	22284
887.149	22074
887.274	21865
887.399	21865
887.523	21838
887.648	21686
887.773	21728
887.897	21949
888.021	21922
888.146	21800
888.27	21991
888.395	21960
888.519	21907
888.643	21850
888.767	21945
888.891	21823
889.015	21595
889.139	21686
889.263	21641
889.387	21667
889.511	21888
889.635	21797
889.759	21530
889.883	21713
890.006	21751
890.13	21717
890.254	21496
890.377	21557
890.501	21443
890.624	21485
890.748	21397
890.871	21313
890.995	21245
891.118	21104
891.241	21218
891.364	21268
891.488	21351
891.611	21214
891.734	21230
891.857	21279
891.98	21207
892.103	21241
892.226	21142
892.349	21272
892.471	21104
892.594	21077
892.717	21100
892.839	21135
892.962	20971
893.085	21108
893.207	21009
893.33	20967
893.452	21108
893.575	21199
893.697	21096
893.819	21370
893.941	21302
894.064	21135
894.186	21096
894.308	21039
894.43	21108
894.552	21222
894.674	21199
894.796	21066
894.918	20998
895.04	20944
895.161	21116
895.283	21104
895.405	20967
895.526	21062
895.648	21020
895.769	20982
895.891	21173
896.012	21173
896.134	21104
896.255	20998
896.376	21005
896.498	21066
896.619	21051
896.74	21028
896.861	21089
896.982	21439
897.103	21568
897.224	21367
897.345	21207
897.466	21264
897.587	21310
897.708	21340
897.828	21237
897.949	21184
898.07	21123
898.19	21195
898.311	21317
898.431	21173
898.552	21154
898.672	21332
898.792	21412
898.913	21260
899.033	20994
899.153	21108
899.273	20998
899.393	20990
899.513	21043
899.633	20925
899.753	21123
899.873	20982
899.993	20914
900.113	20921
900.232	20861
900.352	21001
900.472	20891
900.591	20746
900.711	20823
900.83	20811
900.95	20933
901.069	20796
901.189	20705
901.308	20469
901.427	20370
901.546	20237
901.665	20381
901.784	20366
901.904	20096
902.023	20145
902.141	19944
902.26	19989
902.379	20039
902.498	19734
902.617	19830
902.735	19921
902.854	19883
902.973	19791
903.091	19525
903.21	19472
903.328	19422
903.446	19487
903.565	19331
903.683	19468
903.801	19156
903.919	19114
904.038	19126
904.156	19072
904.274	19080
904.392	19122
904.51	19000
904.627	19031
904.745	18981
904.863	19004
904.981	18935
905.098	18703
905.216	18665
905.334	18867
905.451	18806
905.569	18711
905.686	18745
905.803	18688
905.921	18528
906.038	18604
906.155	18418
906.272	18380
906.389	18448
906.506	18266
906.623	18129
906.74	18292
906.857	18174
906.974	18174
907.091	18270
907.208	18441
907.324	18254
907.441	18174
907.557	17965
907.674	17950
907.79	17832
907.907	17859
908.023	18003
908.139	17882
908.256	17916
908.372	17824
908.488	17802
908.604	17718
908.72	17684
908.836	17703
908.952	17653
909.068	17665
909.184	17794
909.3	17672
909.415	17573
909.531	17646
909.647	17425
909.762	17429
909.878	17417
909.993	17239
910.108	17356
910.224	17239
910.339	17337
910.454	17162
910.57	17117
910.685	17083
910.8	17364
910.915	17311
911.03	17151
911.145	17052
911.259	16980
911.374	16953
911.489	16908
911.604	16691
911.718	16771
911.833	16721
911.947	16500
912.062	16535
912.176	16626
912.291	16660
912.405	16706
912.519	16881
912.633	16927
912.748	16645
912.862	16668
912.976	16531
913.09	16462
913.204	16474
913.318	16481
913.431	16500
913.545	16474
913.659	16527
913.772	16455
913.886	16291
914	16268
914.113	16363
914.226	16424
914.34	16246
914.453	16147
914.566	16348
914.68	16257
914.793	16105
914.906	15915
915.019	15884
915.132	15781
915.245	15785
915.358	15831
915.47	15838
915.583	15907
915.696	15876
915.809	15945
915.921	15865
916.034	15736
916.146	15705
916.259	15709
916.371	15888
916.483	15846
916.595	15675
916.708	15637
916.82	15747
916.932	15641
917.044	15629
917.156	15587
917.268	15568
917.38	15564
917.491	15416
917.603	15587
917.715	15530
917.826	15511
917.938	15363
918.049	15378
918.161	15412
918.272	15523
918.384	15523
918.495	15363
918.606	15321
918.717	15176
918.828	15294
918.939	15321
919.05	15127
919.161	15173
919.272	14994
919.383	15085
919.494	15199
919.604	15340
919.715	15218
919.826	15127
919.936	15081
920.047	15256
920.157	15230
920.267	15420
920.378	15169
920.488	15123
920.598	15340
920.708	15435
920.818	15241
920.928	15272
921.038	15389
921.148	15382
921.258	15154
921.368	15058
921.477	14914
921.587	14842
921.697	14758
921.806	14986
921.916	14632
922.025	14640
922.134	14663
922.244	14480
922.353	14617
922.462	14415
922.571	14305
922.68	14164
922.789	14130
922.898	14195
923.007	14183
923.116	14161
923.224	14138
923.333	14130
923.442	13951
923.55	13944
923.659	14008
923.767	14062
923.876	14008
923.984	13963
924.092	13898
924.201	13978
924.309	13909
924.417	13765
924.525	13906
924.633	13883
924.741	14537
924.849	13613
924.956	13765
925.064	13632
925.172	13495
925.279	13559
925.387	13559
925.494	13590
925.602	13582
925.709	13590
925.816	13373
925.924	13491
926.031	13586
926.138	13464
926.245	13518
926.352	13445
926.459	13502
926.566	13453
926.673	13422
926.779	13247
926.886	13270
926.993	13171
927.099	13118
927.206	13019
927.312	13050
927.419	13122
927.525	13126
927.631	13137
927.737	12935
927.843	12943
927.95	12878
928.056	12867
928.162	12928
928.267	12844
928.373	13578
928.479	12970
928.585	12696
928.69	12791
928.796	12863
928.901	12749
929.007	12700
929.112	12757
929.218	12738
929.323	12623
929.428	12604
929.533	12768
929.638	12467
929.743	12578
929.848	12604
929.953	12589
930.058	12452
930.163	12338
930.267	12323
930.372	12479
930.477	12243
930.581	12494
930.685	12319
930.79	12159
930.894	12220
930.998	12102
931.103	12266
931.207	11893
931.311	11923
931.415	11646
931.519	11619
931.623	11528
