Data from test_V78500241_1146.txt Node
Date: Fri Mar 25 15:49:44 CST 2022
User: usil
Spectrometer: V785-0024
Trigger mode: 0
Integration Time (sec): 4.000000E-1
Scans to average: 1
Nonlinearity correction enabled: false
Boxcar width: 0
Storing dark spectrum: false
XAxis mode: Wavelengths
Number of Pixels in Spectrum: 1024
>>>>>Begin Spectral Data<<<<<
801.071	28599
801.214	28535
801.356	28398
801.499	28204
801.641	28063
801.783	28131
801.926	28135
802.068	28086
802.211	28135
802.353	27964
802.496	27930
802.638	27667
802.78	27808
802.923	27751
803.065	27663
803.208	27591
803.35	27823
803.492	27770
803.635	27960
803.777	27945
803.919	27994
804.061	28280
804.204	28082
804.346	28074
804.488	27937
804.63	28093
804.773	27827
804.915	28021
805.057	28188
805.199	28101
805.341	28059
805.483	28124
805.626	28344
805.768	28055
805.91	28314
806.052	28238
806.194	28082
806.336	28348
806.478	28306
806.62	28268
806.762	28440
806.904	28531
807.046	28816
807.188	28618
807.33	28466
807.472	28668
807.614	28660
807.756	28630
807.898	28565
808.04	28417
808.182	28611
808.324	28462
808.465	28546
808.607	28778
808.749	28866
808.891	28999
809.033	28999
809.174	29022
809.316	28850
809.458	28984
809.6	28820
809.741	28923
809.883	29105
810.025	29223
810.166	29212
810.308	29269
810.45	29124
810.591	29098
810.733	28987
810.875	28991
811.016	28824
811.158	28854
811.299	29079
811.441	29044
811.582	29048
811.724	28976
811.865	28873
812.007	28987
812.148	28938
812.29	28953
812.431	29075
812.573	29170
812.714	29288
812.855	29528
812.997	29474
813.138	29638
813.279	29539
813.421	29474
813.562	29364
813.703	29128
813.845	29193
813.986	29018
814.127	28820
814.268	28531
814.41	28592
814.551	28698
814.692	28843
814.833	28736
814.974	28649
815.115	28675
815.256	28485
815.397	28550
815.539	28573
815.68	28413
815.821	28493
815.962	28428
816.103	28436
816.244	28253
816.385	28166
816.526	28207
816.666	28013
816.807	27873
816.948	27895
817.089	27937
817.23	27964
817.371	27880
817.512	27911
817.653	27953
817.793	27953
817.934	27975
818.075	27857
818.216	27945
818.356	27937
818.497	27838
818.638	27789
818.778	27701
818.919	27694
819.06	27679
819.2	27770
819.341	27781
819.481	27865
819.622	28097
819.762	28143
819.903	28173
820.043	28238
820.184	28067
820.324	27979
820.465	28013
820.605	27968
820.746	28093
820.886	27964
821.026	27941
821.167	28017
821.307	28143
821.447	27895
821.588	28021
821.728	27743
821.868	27462
822.008	27408
822.149	27526
822.289	27420
822.429	27138
822.569	27024
822.709	27066
822.849	26906
822.99	26998
823.13	26811
823.27	26887
823.41	26769
823.55	26629
823.69	26697
823.83	26705
823.97	26644
824.11	26693
824.25	26625
824.389	26526
824.529	26720
824.669	26598
824.809	26625
824.949	26712
825.089	26617
825.228	26545
825.368	26549
825.508	26465
825.648	26461
825.787	26541
825.927	26446
826.067	26438
826.206	26419
826.346	26511
826.485	26530
826.625	26385
826.765	26575
826.904	26514
827.044	26259
827.183	26225
827.323	26168
827.462	26214
827.601	26263
827.741	26107
827.88	26122
828.02	26020
828.159	26115
828.298	26206
828.437	26084
828.577	26054
828.716	26172
828.855	26092
828.994	25875
829.134	25982
829.273	25871
829.412	25868
829.551	25811
829.69	25799
829.829	25894
829.968	26016
830.107	25932
830.246	25871
830.385	25837
830.524	25780
830.663	25753
830.802	25499
830.941	25499
831.08	25483
831.219	25441
831.357	25628
831.496	25750
831.635	25430
831.774	25384
831.913	25377
832.051	25232
832.19	25247
832.329	25274
832.467	25148
832.606	25137
832.744	25156
832.883	25072
833.022	25042
833.16	25251
833.299	25091
833.437	25133
833.576	25213
833.714	25183
833.852	25263
833.991	25282
834.129	25312
834.267	25236
834.406	25244
834.544	25266
834.682	25206
834.821	25156
834.959	25346
835.097	25080
835.235	25247
835.373	25129
835.511	25091
835.65	25091
835.788	25050
835.926	25008
836.064	24776
836.202	24859
836.34	25126
836.478	25065
836.615	25031
836.753	24962
836.891	25114
837.029	24962
837.167	24992
837.305	24901
837.443	24932
837.58	24840
837.718	24939
837.856	24954
837.993	24669
838.131	24916
838.269	24612
838.406	24802
838.544	24551
838.681	24437
838.819	24437
838.956	24266
839.094	24323
839.231	24281
839.369	24464
839.506	24703
839.643	24593
839.781	24167
839.918	24197
840.055	24365
840.193	24209
840.33	24254
840.467	24285
840.604	24342
840.742	24578
840.879	24182
841.016	24106
841.153	24144
841.29	24315
841.427	24220
841.564	24243
841.701	24174
841.838	24174
841.975	24030
842.112	24171
842.249	24087
842.385	23988
842.522	24330
842.659	24098
842.796	24007
842.933	23916
843.069	24007
843.206	23824
843.343	24022
843.479	23977
843.616	24007
843.752	23745
843.889	23840
844.025	23904
844.162	23638
844.298	23874
844.435	23726
844.571	23726
844.708	23729
844.844	23847
844.98	23939
845.117	23866
845.253	23676
845.389	23535
845.525	23554
845.661	23589
845.798	23459
845.934	23501
846.07	23501
846.206	23452
846.342	23649
846.478	23402
846.614	23261
846.75	23246
846.886	23223
847.022	23417
847.158	23140
847.294	23239
847.429	23178
847.565	23212
847.701	23345
847.837	22911
847.972	22755
848.108	22995
848.244	23029
848.379	22987
848.515	22889
848.65	22809
848.786	22748
848.921	22717
849.057	22896
849.192	22934
849.328	22706
849.463	22786
849.598	22656
849.734	22710
849.869	22615
850.004	22573
850.14	22679
850.275	22550
850.41	22417
850.545	22550
850.68	22554
850.815	22497
850.95	22516
851.085	22786
851.22	22675
851.355	22538
851.49	22611
851.625	22478
851.76	22500
851.895	22531
852.03	22535
852.165	22645
852.299	22584
852.434	22664
852.569	22588
852.703	22527
852.838	22512
852.973	22542
853.107	22675
853.242	22523
853.376	22462
853.511	22295
853.645	22352
853.78	22485
853.914	22405
854.048	22352
854.183	22337
854.317	22440
854.451	22390
854.585	22375
854.72	22265
854.854	22398
854.988	22249
855.122	22417
855.256	22169
855.39	22325
855.524	22535
855.658	22382
855.792	22470
855.926	22398
856.06	22462
856.194	22436
856.327	22303
856.461	22226
856.595	22325
856.729	22424
856.862	22356
856.996	22424
857.13	22531
857.263	22474
857.397	22455
857.53	22405
857.664	22459
857.797	22409
857.931	22565
858.064	22299
858.197	22390
858.331	22352
858.464	22230
858.597	22257
858.731	22382
858.864	22287
858.997	22306
859.13	22341
859.263	22287
859.396	22455
859.529	22299
859.662	22318
859.795	22230
859.928	22306
860.061	22481
860.194	22462
860.327	22413
860.46	22432
860.592	22451
860.725	22561
860.858	22504
860.99	22360
861.123	22200
861.256	22276
861.388	22382
861.521	23010
861.653	22166
861.786	22158
861.918	22181
862.05	22219
862.183	22219
862.315	22246
862.447	22356
862.58	22257
862.712	21975
862.844	22124
862.976	22135
863.108	22128
863.24	22500
863.372	21994
863.504	22036
863.636	22070
863.768	22029
863.9	22036
864.032	22021
864.164	21953
864.296	22040
864.428	22120
864.559	22147
864.691	22051
864.823	21903
864.954	22078
865.086	22010
865.217	21899
865.349	21812
865.48	21876
865.612	21987
865.743	21994
865.875	21865
866.006	21854
866.137	21911
866.269	21907
866.4	22093
866.531	21956
866.662	21701
866.793	21774
866.924	21895
867.055	21827
867.186	21857
867.317	21819
867.448	21808
867.579	21831
867.71	21888
867.841	21759
867.972	21838
868.103	21861
868.233	21899
868.364	21911
868.495	21918
868.625	22135
868.756	22063
868.886	22059
869.017	22135
869.147	22238
869.278	22295
869.408	22154
869.539	22086
869.669	22249
869.799	22181
869.929	22226
870.06	22272
870.19	22405
870.32	22390
870.45	22440
870.58	22531
870.71	22687
870.84	22592
870.97	22504
871.1	22470
871.23	22679
871.36	22710
871.489	22599
871.619	22736
871.749	22653
871.879	22694
872.008	22885
872.138	22702
872.267	22561
872.397	22603
872.526	22519
872.656	22390
872.785	22466
872.915	22645
873.044	22831
873.173	22763
873.303	22729
873.432	22755
873.561	22809
873.69	22835
873.819	22634
873.948	22763
874.077	22763
874.206	22660
874.335	22645
874.464	22725
874.593	22938
874.722	22892
874.851	23052
874.979	22991
875.108	22999
875.237	22908
875.365	22797
875.494	22919
875.623	22995
875.751	23010
875.88	22980
876.008	23094
876.136	23166
876.265	23307
876.393	23406
876.521	23417
876.65	23387
876.778	23421
876.906	23212
877.034	23356
877.162	23345
877.29	23083
877.418	23235
877.546	23296
877.674	23299
877.802	23254
877.93	23349
878.058	23185
878.185	23067
878.313	23246
878.441	23208
878.568	23056
878.696	23227
878.824	23337
878.951	23208
879.079	23414
879.206	23543
879.333	23452
879.461	23311
879.588	23334
879.715	23467
879.842	23509
879.97	23429
880.097	23105
880.224	23117
880.351	23025
880.478	23071
880.605	22991
880.732	23048
880.859	23376
880.986	23124
881.112	23166
881.239	22991
881.366	22790
881.493	22786
881.619	22622
881.746	22752
881.872	22691
881.999	22523
882.125	22573
882.252	22713
882.378	22622
882.505	22839
882.631	22516
882.757	22318
882.883	22519
883.01	22413
883.136	22363
883.262	22207
883.388	22196
883.514	22367
883.64	22284
883.766	22337
883.892	22086
884.018	22109
884.143	22280
884.269	22421
884.395	22013
884.52	21998
884.646	21968
884.772	21888
884.897	21915
885.023	21880
885.148	22036
885.274	22124
885.399	22025
885.524	21994
885.65	21949
885.775	21975
885.9	21972
886.025	22067
886.15	22029
886.275	21987
886.4	21983
886.525	21972
886.65	21884
886.775	21930
886.9	21991
887.025	22211
887.149	21888
887.274	21789
887.399	21751
887.523	21774
887.648	21732
887.773	21732
887.897	21835
888.021	21789
888.146	21603
888.27	21789
888.395	21865
888.519	21762
888.643	21751
888.767	21846
888.891	21591
889.015	21644
889.139	21553
889.263	21504
889.387	21511
889.511	21614
889.635	21709
889.759	21466
889.883	21462
890.006	21519
890.13	21564
890.254	21313
890.377	21397
890.501	21230
890.624	21230
890.748	21332
890.871	21138
890.995	21020
891.118	21047
891.241	21207
891.364	21005
891.488	21214
891.611	21089
891.734	21142
891.857	21150
891.98	21203
892.103	21157
892.226	21047
892.349	20994
892.471	20785
892.594	20857
892.717	20902
892.839	20971
892.962	21058
893.085	21127
893.207	20982
893.33	20804
893.452	20853
893.575	20941
893.697	20899
893.819	21127
893.941	21119
894.064	21154
894.186	20990
894.308	20781
894.43	20960
894.552	21062
894.674	20933
894.796	20849
894.918	20861
895.04	20883
895.161	20937
895.283	20876
895.405	20910
895.526	20861
895.648	20899
895.769	20998
895.891	21032
896.012	20952
896.134	21032
896.255	20967
896.376	20842
896.498	20872
896.619	20990
896.74	20895
896.861	21017
896.982	21325
897.103	21408
897.224	21230
897.345	21074
897.466	21085
897.587	21230
897.708	21412
897.828	21131
897.949	21214
898.07	20971
898.19	20998
898.311	21230
898.431	21093
898.552	21127
898.672	21199
898.792	21245
898.913	21131
899.033	20925
899.153	20967
899.273	20891
899.393	20842
899.513	20891
899.633	21001
899.753	20933
899.873	20838
899.993	20872
900.113	20739
900.232	20781
900.352	20845
900.472	20659
900.591	20674
900.711	20705
900.83	20708
900.95	20868
901.069	20735
901.189	20651
901.308	20275
901.427	20206
901.546	20096
901.665	20168
901.784	20130
901.904	20092
902.023	19989
902.141	19753
902.26	19772
902.379	19913
902.498	19719
902.617	19662
902.735	19830
902.854	19651
902.973	19689
903.091	19339
903.21	19419
903.328	19472
903.446	19183
903.565	19099
903.683	19202
903.801	19091
903.919	19148
904.038	19152
904.156	18913
904.274	19015
904.392	18909
904.51	18985
904.627	18734
904.745	18954
904.863	19004
904.981	18783
905.098	18677
905.216	18722
905.334	18604
905.451	18585
905.569	18597
905.686	18681
905.803	18620
905.921	18391
906.038	18525
906.155	18395
906.272	18247
906.389	18388
906.506	18190
906.623	18053
906.74	18125
906.857	18095
906.974	18072
907.091	18197
907.208	18136
907.324	18155
907.441	18049
907.557	17840
907.674	17802
907.79	17779
907.907	17805
908.023	17885
908.139	17889
908.256	17851
908.372	17748
908.488	17646
908.604	17592
908.72	17535
908.836	17642
908.952	17596
909.068	17562
909.184	17699
909.3	17471
909.415	17589
909.531	17528
909.647	17303
909.762	17330
909.878	17231
909.993	17273
910.108	17174
910.224	17147
910.339	17261
910.454	17010
910.57	17136
910.685	16972
910.8	17311
910.915	17185
911.03	17071
911.145	16885
911.259	16866
911.374	16816
911.489	16831
911.604	16694
911.718	16626
911.833	16546
911.947	16481
912.062	16493
912.176	16611
912.291	16550
912.405	16527
912.519	16809
912.633	16664
912.748	16561
912.862	16508
912.976	16371
913.09	16280
913.204	16371
913.318	16394
913.431	16481
913.545	16417
913.659	16497
913.772	16314
913.886	16284
914	16177
914.113	16154
914.226	16204
914.34	16185
914.453	16177
914.566	16238
914.68	16116
914.793	15945
914.906	15857
915.019	15831
915.132	15705
915.245	15774
915.358	15838
915.47	15717
915.583	15739
915.696	15698
915.809	15808
915.921	15930
916.034	15720
916.146	15701
916.259	15576
916.371	15789
916.483	15641
916.595	15549
916.708	15606
916.82	15629
916.932	15576
917.044	15481
917.156	15412
917.268	15443
917.38	15469
917.491	15454
917.603	15393
917.715	15420
917.826	15507
917.938	15408
918.049	15283
918.161	15313
918.272	15420
918.384	15450
918.495	15332
918.606	15161
918.717	15116
918.828	15077
918.939	15089
919.05	15032
919.161	15161
919.272	14960
919.383	14971
919.494	15097
919.604	15348
919.715	14990
919.826	14960
919.936	15062
920.047	15161
920.157	15089
920.267	15199
920.378	15123
920.488	15116
920.598	15291
920.708	15469
920.818	15184
920.928	15146
921.038	15382
921.148	15393
921.258	15074
921.368	14925
921.477	14891
921.587	14811
921.697	14648
921.806	14861
921.916	14712
922.025	14560
922.134	14492
922.244	14408
922.353	14469
922.462	14431
922.571	14244
922.68	14138
922.789	14176
922.898	14008
923.007	14054
923.116	14092
923.224	14054
923.333	14073
923.442	13993
923.55	13967
923.659	13925
923.767	13963
923.876	13875
923.984	13890
924.092	13852
924.201	13757
924.309	13837
924.417	13833
924.525	13738
924.633	13731
924.741	14530
924.849	13537
924.956	13605
925.064	13491
925.172	13491
925.279	13403
925.387	13445
925.494	13483
925.602	13613
925.709	13487
925.816	13483
925.924	13487
926.031	13449
926.138	13441
926.245	13480
926.352	13441
926.459	13502
926.566	13460
926.673	13297
926.779	13141
926.886	13285
926.993	12981
927.099	13149
927.206	12901
927.312	12924
927.419	13080
927.525	13019
927.631	12985
927.737	12882
927.843	12848
927.95	12783
928.056	12779
928.162	12871
928.267	12890
928.373	13426
928.479	12871
928.585	12593
928.69	12741
928.796	12787
928.901	12650
929.007	12525
929.112	12745
929.218	12574
929.323	12547
929.428	12620
929.533	12719
929.638	12426
929.743	12570
929.848	12563
929.953	12540
930.058	12376
930.163	12311
930.267	12182
930.372	12353
930.477	12190
930.581	12418
930.685	12266
930.79	12110
930.894	12144
930.998	12053
931.103	12186
931.207	11859
931.311	11733
931.415	11691
931.519	11425
931.623	11474
