Data from test_V78500241_2042.txt Node
Date: Fri Mar 25 15:55:56 CST 2022
User: usil
Spectrometer: V785-0024
Trigger mode: 0
Integration Time (sec): 4.000000E-1
Scans to average: 1
Nonlinearity correction enabled: false
Boxcar width: 0
Storing dark spectrum: false
XAxis mode: Wavelengths
Number of Pixels in Spectrum: 1024
>>>>>Begin Spectral Data<<<<<
801.071	28786
801.214	28763
801.356	28626
801.499	28565
801.641	28481
801.783	28367
801.926	28504
802.068	28436
802.211	28249
802.353	28207
802.496	28124
802.638	28128
802.78	28173
802.923	28029
803.065	27876
803.208	28124
803.35	28238
803.492	28200
803.635	28344
803.777	28150
803.919	28265
804.061	28554
804.204	28386
804.346	28322
804.488	28207
804.63	28390
804.773	28276
804.915	28386
805.057	28348
805.199	28188
805.341	28329
805.483	28573
805.626	28557
805.768	28348
805.91	28455
806.052	28478
806.194	28322
806.336	28675
806.478	28577
806.62	28603
806.762	28668
806.904	28660
807.046	29003
807.188	28968
807.33	28946
807.472	29010
807.614	28908
807.756	28774
807.898	28881
808.04	28721
808.182	28740
808.324	28904
808.465	28885
808.607	29124
808.749	29174
808.891	29250
809.033	29433
809.174	29261
809.316	29178
809.458	29079
809.6	29083
809.741	29143
809.883	29261
810.025	29547
810.166	29448
810.308	29467
810.45	29474
810.591	29471
810.733	29143
810.875	29033
811.016	29231
811.158	29128
811.299	29311
811.441	29398
811.582	29406
811.724	29315
811.865	29174
812.007	29273
812.148	29254
812.29	29433
812.431	29375
812.573	29619
812.714	29661
812.855	29779
812.997	29878
813.138	29950
813.279	29954
813.421	29824
813.562	29737
813.703	29467
813.845	29429
813.986	29170
814.127	28999
814.268	28961
814.41	28824
814.551	28778
814.692	28953
814.833	28961
814.974	28843
815.115	28953
815.256	28786
815.397	28892
815.539	28736
815.68	28721
815.821	28622
815.962	28710
816.103	28660
816.244	28500
816.385	28508
816.526	28523
816.666	28204
816.807	28177
816.948	28310
817.089	28272
817.23	28295
817.371	28295
817.512	28063
817.653	28147
817.793	28074
817.934	28207
818.075	28147
818.216	28177
818.356	28051
818.497	28013
818.638	27964
818.778	27960
818.919	27926
819.06	28082
819.2	28238
819.341	28276
819.481	28265
819.622	28424
819.762	28607
819.903	28500
820.043	28417
820.184	28409
820.324	28329
820.465	28341
820.605	28390
820.746	28215
820.886	28280
821.026	28310
821.167	28417
821.307	28284
821.447	28230
821.588	28204
821.728	27994
821.868	27854
822.008	27785
822.149	27656
822.289	27534
822.429	27359
822.569	27477
822.709	27367
822.849	27310
822.99	27169
823.13	27108
823.27	27313
823.41	26925
823.55	27093
823.69	27028
823.83	27009
823.97	26929
824.11	26864
824.25	26883
824.389	26785
824.529	26960
824.669	26781
824.809	27081
824.949	27108
825.089	26864
825.228	26956
825.368	26796
825.508	26720
825.648	26739
825.787	26785
825.927	26674
826.067	26667
826.206	26796
826.346	26804
826.485	26746
826.625	26754
826.765	26883
826.904	26857
827.044	26541
827.183	26511
827.323	26427
827.462	26522
827.601	26533
827.741	26465
827.88	26511
828.02	26438
828.159	26381
828.298	26484
828.437	26457
828.577	26473
828.716	26537
828.855	26457
828.994	26138
829.134	26145
829.273	26168
829.412	26134
829.551	26172
829.69	26103
829.829	26115
829.968	26206
830.107	26301
830.246	26130
830.385	26005
830.524	26031
830.663	25833
830.802	25921
830.941	25837
831.08	25727
831.219	25799
831.357	25799
831.496	25959
831.635	25769
831.774	25651
831.913	25689
832.051	25567
832.19	25578
832.329	25483
832.467	25491
832.606	25362
832.744	25388
832.883	25479
833.022	25388
833.16	25441
833.299	25430
833.437	25491
833.576	25449
833.714	25491
833.852	25643
833.991	25655
834.129	25613
834.267	25609
834.406	25449
834.544	25453
834.682	25575
834.821	25487
834.959	25590
835.097	25472
835.235	25510
835.373	25460
835.511	25415
835.65	25278
835.788	25301
835.926	25225
836.064	25084
836.202	25148
836.34	25263
836.478	25411
836.615	25232
836.753	25388
836.891	25331
837.029	25373
837.167	25240
837.305	25133
837.443	25293
837.58	25152
837.718	25183
837.856	25031
837.993	25076
838.131	25114
838.269	24935
838.406	25072
838.544	24817
838.681	24814
838.819	24776
838.956	24551
839.094	24479
839.231	24661
839.369	24654
839.506	24943
839.643	24779
839.781	24684
839.918	24464
840.055	24612
840.193	24445
840.33	24448
840.467	24494
840.604	24574
840.742	24776
840.879	24338
841.016	24456
841.153	24410
841.29	24551
841.427	24616
841.564	24597
841.701	24467
841.838	24407
841.975	24525
842.112	24407
842.249	24311
842.385	24201
842.522	24429
842.659	24369
842.796	24102
842.933	24159
843.069	24163
843.206	24254
843.343	24403
843.479	24186
843.616	24247
843.752	23908
843.889	23977
844.025	24159
844.162	23973
844.298	23996
844.435	24045
844.571	23973
844.708	23977
844.844	24273
844.98	24155
845.117	24072
845.253	23790
845.389	23828
845.525	23920
845.661	23954
845.798	23615
845.934	23882
846.07	23714
846.206	23809
846.342	23847
846.478	23627
846.614	23486
846.75	23490
846.886	23440
847.022	23535
847.158	23452
847.294	23528
847.429	23528
847.565	23398
847.701	23642
847.837	23162
847.972	23178
848.108	23261
848.244	23356
848.379	23083
848.515	23060
848.65	23041
848.786	23060
848.921	23083
849.057	23235
849.192	23212
849.328	22991
849.463	23037
849.598	22835
849.734	22976
849.869	23029
850.004	22733
850.14	22778
850.275	22850
850.41	22679
850.545	22694
850.68	22759
850.815	22740
850.95	22778
851.085	22862
851.22	22869
851.355	22854
851.49	22767
851.625	22790
851.76	22767
851.895	22797
852.03	22573
852.165	22869
852.299	22889
852.434	22869
852.569	22942
852.703	22839
852.838	23071
852.973	22923
853.107	22881
853.242	22687
853.376	22462
853.511	22550
853.645	22569
853.78	22831
853.914	22675
854.048	22599
854.183	22656
854.317	22596
854.451	22744
854.585	22637
854.72	22607
854.854	22767
854.988	22535
855.122	22668
855.256	22557
855.39	22588
855.524	22706
855.658	22706
855.792	22478
855.926	22691
856.06	22538
856.194	22645
856.327	22679
856.461	22626
856.595	22694
856.729	22584
856.862	22634
856.996	22577
857.13	22713
857.263	22778
857.397	22748
857.53	22622
857.664	22641
857.797	22622
857.931	22679
858.064	22744
858.197	22698
858.331	22706
858.464	22645
858.597	22462
858.731	22588
858.864	22531
858.997	22512
859.13	22538
859.263	22721
859.396	22767
859.529	22641
859.662	22580
859.795	22626
859.928	22622
860.061	22816
860.194	22881
860.327	22744
860.46	22641
860.592	22778
860.725	22904
860.858	22725
860.99	22653
861.123	22489
861.256	22451
861.388	22679
861.521	23368
861.653	22618
861.786	22493
861.918	22527
862.05	22523
862.183	22531
862.315	22599
862.447	22557
862.58	22512
862.712	22436
862.844	22318
862.976	22462
863.108	22443
863.24	22873
863.372	22272
863.504	22341
863.636	22382
863.768	22440
863.9	22299
864.032	22348
864.164	22462
864.296	22402
864.428	22531
864.559	22352
864.691	22485
864.823	22405
864.954	22352
865.086	22318
865.217	22192
865.349	22177
865.48	22242
865.612	22261
865.743	22280
865.875	22253
866.006	22150
866.137	22230
866.269	22154
866.4	22226
866.531	22128
866.662	22101
866.793	22173
866.924	21991
867.055	22143
867.186	22169
867.317	22109
867.448	22017
867.579	22162
867.71	22063
867.841	21956
867.972	22166
868.103	22070
868.233	22135
868.364	22158
868.495	22257
868.625	22341
868.756	22375
868.886	22348
869.017	22405
869.147	22470
869.278	22481
869.408	22516
869.539	22371
869.669	22417
869.799	22382
869.929	22375
870.06	22382
870.19	22809
870.32	22660
870.45	22531
870.58	22816
870.71	22889
870.84	23018
870.97	22668
871.1	22698
871.23	22946
871.36	22930
871.489	22957
871.619	22885
871.749	22915
871.879	22991
872.008	23102
872.138	22919
872.267	23155
872.397	22908
872.526	22793
872.656	22725
872.785	22744
872.915	22934
873.044	23132
873.173	22965
873.303	23071
873.432	22938
873.561	23029
873.69	23117
873.819	22949
873.948	23014
874.077	23067
874.206	23086
874.335	23060
874.464	23094
874.593	23231
874.722	23269
874.851	23174
874.979	23181
875.108	23299
875.237	23174
875.365	23094
875.494	23071
875.623	23261
875.751	23185
875.88	23212
876.008	23341
876.136	23368
876.265	23535
876.393	23680
876.521	23661
876.65	23668
876.778	23573
876.906	23455
877.034	23452
877.162	23547
877.29	23406
877.418	23493
877.546	23516
877.674	23558
877.802	23551
877.93	23516
878.058	23486
878.185	23516
878.313	23570
878.441	23642
878.568	23315
878.696	23486
878.824	23535
878.951	23691
879.079	23634
879.206	23783
879.333	23794
879.461	23509
879.588	23615
879.715	23764
879.842	23760
879.97	23600
880.097	23414
880.224	23288
880.351	23482
880.478	23368
880.605	23296
880.732	23448
880.859	23668
880.986	23322
881.112	23410
881.239	23071
881.366	23075
881.493	23018
881.619	22889
881.746	22953
881.872	23022
881.999	22797
882.125	22946
882.252	22858
882.378	22923
882.505	22904
882.631	22721
882.757	22546
882.883	22717
883.01	22615
883.136	22554
883.262	22603
883.388	22402
883.514	22679
883.64	22660
883.766	22561
883.892	22493
884.018	22478
884.143	22618
884.269	22649
884.395	22310
884.52	22135
884.646	22261
884.772	22196
884.897	22154
885.023	22223
885.148	22253
885.274	22363
885.399	22504
885.524	22207
885.65	22143
885.775	22287
885.9	22265
886.025	22344
886.15	22249
886.275	22223
886.4	22211
886.525	22143
886.65	22215
886.775	22116
886.9	22329
887.025	22371
887.149	22200
887.274	22051
887.399	21945
887.523	22044
887.648	21911
887.773	21880
887.897	22040
888.021	22055
888.146	21998
888.27	22101
888.395	21975
888.519	22021
888.643	22059
888.767	22010
888.891	21941
889.015	21739
889.139	21797
889.263	21709
889.387	21972
889.511	22006
889.635	21869
889.759	21789
889.883	21713
890.006	21808
890.13	21888
890.254	21610
890.377	21686
890.501	21595
890.624	21481
890.748	21511
890.871	21504
890.995	21294
891.118	21252
891.241	21344
891.364	21355
891.488	21458
891.611	21291
891.734	21256
891.857	21332
891.98	21313
892.103	21340
892.226	21233
892.349	21294
892.471	21131
892.594	21184
892.717	21188
892.839	21180
892.962	21081
893.085	21195
893.207	21363
893.33	21009
893.452	20986
893.575	21279
893.697	21169
893.819	21291
893.941	21355
894.064	21454
894.186	21047
894.308	21119
894.43	21268
894.552	21325
894.674	21207
894.796	21142
894.918	21203
895.04	21070
895.161	21142
895.283	21252
895.405	21123
895.526	21192
895.648	21233
895.769	21184
895.891	21272
896.012	21317
896.134	21154
896.255	21302
896.376	21112
896.498	21207
896.619	21264
896.74	21005
896.861	21348
896.982	21557
897.103	21641
897.224	21469
897.345	21359
897.466	21329
897.587	21447
897.708	21538
897.828	21523
897.949	21241
898.07	21294
898.19	21355
898.311	21439
898.431	21367
898.552	21325
898.672	21443
898.792	21462
898.913	21226
899.033	21264
899.153	21211
899.273	20956
899.393	21131
899.513	21173
899.633	21108
899.753	21127
899.873	21081
899.993	21093
900.113	21043
900.232	21055
900.352	21020
900.472	20899
900.591	20861
900.711	20887
900.83	20941
900.95	20990
901.069	20967
901.189	20804
901.308	20533
901.427	20537
901.546	20438
901.665	20476
901.784	20495
901.904	20434
902.023	20096
902.141	19947
902.26	19978
902.379	20005
902.498	20069
902.617	19841
902.735	19959
902.854	19871
902.973	19841
903.091	19559
903.21	19651
903.328	19620
903.446	19449
903.565	19392
903.683	19426
903.801	19240
903.919	19400
904.038	19354
904.156	19293
904.274	19285
904.392	19156
904.51	19088
904.627	19221
904.745	19057
904.863	19236
904.981	18954
905.098	18829
905.216	18802
905.334	18802
905.451	18890
905.569	18757
905.686	18856
905.803	18798
905.921	18608
906.038	18711
906.155	18722
906.272	18483
906.389	18517
906.506	18334
906.623	18289
906.74	18289
906.857	18243
906.974	18197
907.091	18471
907.208	18372
907.324	18361
907.441	18273
907.557	18110
907.674	18064
907.79	17996
907.907	17958
908.023	18079
908.139	18117
908.256	18026
908.372	17973
908.488	17935
908.604	17893
908.72	17878
908.836	17745
908.952	17786
909.068	17821
909.184	17832
909.3	17863
909.415	17813
909.531	17718
909.647	17547
909.762	17505
909.878	17414
909.993	17535
910.108	17398
910.224	17353
910.339	17410
910.454	17288
910.57	17258
910.685	17208
910.8	17410
910.915	17433
911.03	17197
911.145	17067
911.259	17067
911.374	17117
911.489	16927
911.604	16896
911.718	16820
911.833	16687
911.947	16706
912.062	16573
912.176	16755
912.291	16839
912.405	16706
912.519	16976
912.633	16904
912.748	16786
912.862	16812
912.976	16615
913.09	16394
913.204	16447
913.318	16611
913.431	16569
913.545	16637
913.659	16622
913.772	16481
913.886	16417
914	16352
914.113	16512
914.226	16443
914.34	16504
914.453	16143
914.566	16554
914.68	16329
914.793	16280
914.906	16116
915.019	15918
915.132	15895
915.245	16036
915.358	16006
915.47	15983
915.583	15968
915.696	15892
915.809	16017
915.921	16021
916.034	15895
916.146	15854
916.259	15789
916.371	15964
916.483	15850
916.595	15766
916.708	15778
916.82	15641
916.932	15686
917.044	15694
917.156	15660
917.268	15595
917.38	15644
917.491	15534
917.603	15606
917.715	15610
917.826	15766
917.938	15481
918.049	15382
918.161	15587
918.272	15568
918.384	15576
918.495	15584
918.606	15344
918.717	15207
918.828	15374
918.939	15348
919.05	15188
919.161	15294
919.272	15119
919.383	15173
919.494	15336
919.604	15420
919.715	15321
919.826	15230
919.936	15252
920.047	15313
920.157	15313
920.267	15401
920.378	15260
920.488	15169
920.598	15466
920.708	15458
920.818	15405
920.928	15416
921.038	15542
921.148	15519
921.258	15237
921.368	15131
921.477	15005
921.587	15009
921.697	14906
921.806	14967
921.916	14815
922.025	14663
922.134	14629
922.244	14587
922.353	14594
922.462	14526
922.571	14400
922.68	14358
922.789	14225
922.898	14256
923.007	14237
923.116	14275
923.224	14225
923.333	14214
923.442	14088
923.55	14092
923.659	14168
923.767	14145
923.876	13944
923.984	14058
924.092	13951
924.201	14164
924.309	13978
924.417	13913
924.525	13894
924.633	13845
924.741	14838
924.849	13742
924.956	13753
925.064	13795
925.172	13533
925.279	13556
925.387	13666
925.494	13525
925.602	13750
925.709	13670
925.816	13575
925.924	13525
926.031	13704
926.138	13514
926.245	13666
926.352	13373
926.459	13521
926.566	13636
926.673	13460
926.779	13266
926.886	13354
926.993	13301
927.099	13194
927.206	13156
927.312	13080
927.419	13244
927.525	13110
927.631	13103
927.737	13061
927.843	12970
927.95	12894
928.056	13012
928.162	12985
928.267	13061
928.373	13590
928.479	13133
928.585	12741
928.69	12890
928.796	12905
928.901	12871
929.007	12703
929.112	12840
929.218	12768
929.323	12779
929.428	12658
929.533	12768
929.638	12582
929.743	12559
929.848	12639
929.953	12578
930.058	12448
930.163	12429
930.267	12422
930.372	12399
930.477	12266
930.581	12467
930.685	12391
930.79	12323
930.894	12254
930.998	12140
931.103	12273
931.207	11996
931.311	11893
931.415	11874
931.519	11573
931.623	11630
