Data from test_V78500241_659.txt Node
Date: Fri Mar 25 15:46:22 CST 2022
User: usil
Spectrometer: V785-0024
Trigger mode: 0
Integration Time (sec): 4.000000E-1
Scans to average: 1
Nonlinearity correction enabled: false
Boxcar width: 0
Storing dark spectrum: false
XAxis mode: Wavelengths
Number of Pixels in Spectrum: 1024
>>>>>Begin Spectral Data<<<<<
801.071	26259
801.214	26465
801.356	26027
801.499	25978
801.641	25883
801.783	25841
801.926	25906
802.068	25944
802.211	25761
802.353	25605
802.496	25586
802.638	25445
802.78	25457
802.923	25335
803.065	25407
803.208	25411
803.35	25495
803.492	25651
803.635	25731
803.777	25384
803.919	25635
804.061	25746
804.204	25712
804.346	25476
804.488	25479
804.63	25529
804.773	25464
804.915	25540
805.057	25601
805.199	25460
805.341	25479
805.483	25586
805.626	25666
805.768	25662
805.91	25651
806.052	25704
806.194	25502
806.336	25795
806.478	25662
806.62	25704
806.762	25742
806.904	25940
807.046	26237
807.188	26077
807.33	26069
807.472	26111
807.614	25845
807.756	26005
807.898	25970
808.04	25742
808.182	25715
808.324	25871
808.465	25803
808.607	25974
808.749	26275
808.891	26339
809.033	26492
809.174	26195
809.316	26225
809.458	26157
809.6	26065
809.741	26332
809.883	26408
810.025	26450
810.166	26453
810.308	26503
810.45	26396
810.591	26240
810.733	26244
810.875	26035
811.016	26145
811.158	26100
811.299	26271
811.441	26336
811.582	26275
811.724	26206
811.865	26103
812.007	26084
812.148	26145
812.29	26164
812.431	26317
812.573	26511
812.714	26575
812.855	26697
812.997	26712
813.138	26868
813.279	26769
813.421	26743
813.562	26552
813.703	26400
813.845	26336
813.986	25906
814.127	25913
814.268	25811
814.41	25902
814.551	25772
814.692	25712
814.833	25776
814.974	25639
815.115	25784
815.256	25624
815.397	25548
815.539	25624
815.68	25468
815.821	25384
815.962	25521
816.103	25514
816.244	25525
816.385	25343
816.526	25411
816.666	25057
816.807	25114
816.948	25080
817.089	25110
817.23	25133
817.371	25012
817.512	25050
817.653	24935
817.793	24973
817.934	24989
818.075	24992
818.216	25110
818.356	25042
818.497	24958
818.638	24703
818.778	24787
818.919	24745
819.06	24947
819.2	24890
819.341	25042
819.481	24981
819.622	25168
819.762	25304
819.903	25263
820.043	25232
820.184	25198
820.324	25038
820.465	25057
820.605	25088
820.746	25171
820.886	24920
821.026	25069
821.167	25065
821.307	25160
821.447	25057
821.588	24958
821.728	24882
821.868	24650
822.008	24525
822.149	24334
822.289	24350
822.429	24148
822.569	24174
822.709	24106
822.849	23847
822.99	23939
823.13	24022
823.27	23859
823.41	23756
823.55	23657
823.69	23722
823.83	23794
823.97	23729
824.11	23600
824.25	23585
824.389	23703
824.529	23661
824.669	23539
824.809	23729
824.949	23668
825.089	23790
825.228	23627
825.368	23417
825.508	23261
825.648	23406
825.787	23512
825.927	23528
826.067	23402
826.206	23520
826.346	23509
826.485	23551
826.625	23516
826.765	23577
826.904	23524
827.044	23265
827.183	23223
827.323	23018
827.462	23155
827.601	23166
827.741	23147
827.88	23155
828.02	23090
828.159	23090
828.298	23239
828.437	23159
828.577	23098
828.716	23212
828.855	23048
828.994	22881
829.134	22835
829.273	22942
829.412	22896
829.551	22660
829.69	22812
829.829	22885
829.968	22877
830.107	22972
830.246	22911
830.385	22953
830.524	22797
830.663	22698
830.802	22588
830.941	22417
831.08	22375
831.219	22459
831.357	22516
831.496	22649
831.635	22428
831.774	22394
831.913	22299
832.051	22249
832.19	22219
832.329	22215
832.467	22211
832.606	22200
832.744	22112
832.883	22036
833.022	22226
833.16	22249
833.299	22135
833.437	22101
833.576	22128
833.714	22120
833.852	22310
833.991	22215
834.129	22348
834.267	22207
834.406	22128
834.544	22291
834.682	22063
834.821	22196
834.959	22379
835.097	22154
835.235	22181
835.373	22257
835.511	22120
835.65	22044
835.788	21994
835.926	21968
836.064	21972
836.202	21842
836.34	22101
836.478	21945
836.615	22097
836.753	21975
836.891	22173
837.029	22013
837.167	22002
837.305	21918
837.443	21880
837.58	21808
837.718	21941
837.856	21892
837.993	21800
838.131	21793
838.269	21732
838.406	21797
838.544	21660
838.681	21606
838.819	21412
838.956	21420
839.094	21359
839.231	21405
839.369	21523
839.506	21728
839.643	21671
839.781	21424
839.918	21336
840.055	21408
840.193	21294
840.33	21275
840.467	21317
840.604	21389
840.742	21679
840.879	21169
841.016	21264
841.153	21260
841.29	21393
841.427	21294
841.564	21401
841.701	21233
841.838	21332
841.975	21233
842.112	21268
842.249	21089
842.385	21157
842.522	21329
842.659	21211
842.796	21062
842.933	20998
843.069	21032
843.206	20963
843.343	21165
843.479	20994
843.616	20990
843.752	20762
843.889	20891
844.025	21020
844.162	20785
844.298	20956
844.435	20800
844.571	20796
844.708	20788
844.844	21055
844.98	20944
845.117	20941
845.253	20705
845.389	20621
845.525	20842
845.661	20731
845.798	20613
845.934	20602
846.07	20549
846.206	20568
846.342	20678
846.478	20590
846.614	20351
846.75	20275
846.886	20377
847.022	20366
847.158	20324
847.294	20355
847.429	20381
847.565	20248
847.701	20629
847.837	20096
847.972	19940
848.108	20256
848.244	20005
848.379	19986
848.515	19932
848.65	19940
848.786	19921
848.921	19986
849.057	19982
849.192	20168
849.328	19917
849.463	19925
849.598	19879
849.734	19917
849.869	19655
850.004	19715
850.14	19700
850.275	19704
850.41	19712
850.545	19632
850.68	19537
850.815	19658
850.95	19712
851.085	19917
851.22	19822
851.355	19662
851.49	19677
851.625	19552
851.76	19670
851.895	19594
852.03	19609
852.165	19734
852.299	19719
852.434	19852
852.569	19715
852.703	19681
852.838	19784
852.973	19887
853.107	19841
853.242	19575
853.376	19533
853.511	19502
853.645	19514
853.78	19681
853.914	19575
854.048	19312
854.183	19502
854.317	19468
854.451	19727
854.585	19548
854.72	19544
854.854	19575
854.988	19464
855.122	19365
855.256	19339
855.39	19396
855.524	19506
855.658	19480
855.792	19483
855.926	19464
856.06	19616
856.194	19556
856.327	19480
856.461	19540
856.595	19457
856.729	19578
856.862	19620
856.996	19578
857.13	19590
857.263	19628
857.397	19556
857.53	19582
857.664	19533
857.797	19620
857.931	19666
858.064	19472
858.197	19681
858.331	19468
858.464	19434
858.597	19339
858.731	19441
858.864	19567
858.997	19540
859.13	19544
859.263	19624
859.396	19487
859.529	19449
859.662	19514
859.795	19457
859.928	19514
860.061	19609
860.194	19544
860.327	19658
860.46	19453
860.592	19594
860.725	19715
860.858	19521
860.99	19544
861.123	19510
861.256	19434
861.388	19537
861.521	20012
861.653	19362
861.786	19247
861.918	19293
862.05	19464
862.183	19430
862.315	19540
862.447	19499
862.58	19487
862.712	19301
862.844	19183
862.976	19377
863.108	19263
863.24	19597
863.372	19266
863.504	19358
863.636	19263
863.768	19217
863.9	19350
864.032	19160
864.164	19145
864.296	19263
864.428	19343
864.559	19415
864.691	19381
864.823	19308
864.954	19187
865.086	19126
865.217	19206
865.349	19091
865.48	19198
865.612	19168
865.743	19282
865.875	19156
866.006	19114
866.137	19198
866.269	19069
866.4	19202
866.531	19053
866.662	19091
866.793	19110
866.924	19027
867.055	19164
867.186	19069
867.317	19027
867.448	18951
867.579	19088
867.71	18993
867.841	18966
867.972	19004
868.103	19133
868.233	19171
868.364	19061
868.495	19110
868.625	19331
868.756	19445
868.886	19297
869.017	19354
869.147	19460
869.278	19373
869.408	19392
869.539	19266
869.669	19384
869.799	19441
869.929	19510
870.06	19422
870.19	19693
870.32	19738
870.45	19788
870.58	19696
870.71	19928
870.84	19856
870.97	19761
871.1	19803
871.23	19871
871.36	20001
871.489	19913
871.619	19970
871.749	19875
871.879	20058
872.008	20111
872.138	20081
872.267	20027
872.397	19784
872.526	19769
872.656	19776
872.785	19814
872.915	20046
873.044	19989
873.173	20039
873.303	20016
873.432	20050
873.561	20130
873.69	20092
873.819	20012
873.948	20122
874.077	20084
874.206	19883
874.335	20020
874.464	20103
874.593	20210
874.722	20259
874.851	20305
874.979	20210
875.108	20339
875.237	20206
875.365	20180
875.494	20183
875.623	20339
875.751	20221
875.88	20248
876.008	20328
876.136	20450
876.265	20724
876.393	20849
876.521	20739
876.65	20674
876.778	20686
876.906	20701
877.034	20644
877.162	20606
877.29	20560
877.418	20609
877.546	20693
877.674	20575
877.802	20587
877.93	20701
878.058	20545
878.185	20564
878.313	20579
878.441	20636
878.568	20549
878.696	20560
878.824	20648
878.951	20857
879.079	20807
879.206	20933
879.333	20921
879.461	20667
879.588	20800
879.715	20864
879.842	20941
879.97	20701
880.097	20560
880.224	20488
880.351	20446
880.478	20454
880.605	20412
880.732	20480
880.859	20746
880.986	20530
881.112	20374
881.239	20431
881.366	20286
881.493	20199
881.619	20100
881.746	20027
881.872	20134
881.999	19940
882.125	19967
882.252	20065
882.378	20073
882.505	20130
882.631	19887
882.757	19734
882.883	19928
883.01	19742
883.136	19776
883.262	19727
883.388	19594
883.514	19826
883.64	19811
883.766	19719
883.892	19605
884.018	19662
884.143	19715
884.269	19837
884.395	19590
884.52	19400
884.646	19445
884.772	19514
884.897	19331
885.023	19548
885.148	19514
885.274	19544
885.399	19601
885.524	19567
885.65	19499
885.775	19518
885.9	19480
886.025	19605
886.15	19521
886.275	19445
886.4	19422
886.525	19384
886.65	19339
886.775	19301
886.9	19529
887.025	19658
887.149	19476
887.274	19164
887.399	19221
887.523	19171
887.648	19118
887.773	19236
887.897	19343
888.021	19270
888.146	19179
888.27	19320
888.395	19384
888.519	19202
888.643	19282
888.767	19270
888.891	19179
889.015	19027
889.139	19126
889.263	19069
889.387	19168
889.511	19369
889.635	19198
889.759	19034
889.883	18947
890.006	19015
890.13	19114
890.254	18989
890.377	18962
890.501	18715
890.624	18821
890.748	18882
890.871	18745
890.995	18585
891.118	18528
891.241	18593
891.364	18772
891.488	18665
891.611	18734
891.734	18688
891.857	18677
891.98	18745
892.103	18745
892.226	18715
892.349	18563
892.471	18437
892.594	18684
892.717	18650
892.839	18582
892.962	18741
893.085	18578
893.207	18681
893.33	18509
893.452	18563
893.575	18661
893.697	18623
893.819	18661
893.941	18825
894.064	18795
894.186	18570
894.308	18448
894.43	18703
894.552	18783
894.674	18711
894.796	18563
894.918	18471
895.04	18589
895.161	18654
895.283	18684
895.405	18578
895.526	18582
895.648	18616
895.769	18563
895.891	18665
896.012	18730
896.134	18669
896.255	18593
896.376	18700
896.498	18791
896.619	18627
896.74	18677
896.861	18642
896.982	18939
897.103	19065
897.224	18962
897.345	18776
897.466	18837
897.587	18954
897.708	18928
897.828	18905
897.949	18837
898.07	18760
898.19	18833
898.311	18943
898.431	18840
898.552	18844
898.672	19050
898.792	18989
898.913	19000
899.033	18821
899.153	18700
899.273	18547
899.393	18646
899.513	18673
899.633	18688
899.753	18669
899.873	18677
899.993	18802
900.113	18642
900.232	18650
900.352	18669
900.472	18517
900.591	18486
900.711	18521
900.83	18441
900.95	18635
901.069	18593
901.189	18391
901.308	18220
901.427	18152
901.546	18053
901.665	18034
901.784	18121
901.904	17901
902.023	18003
902.141	17608
902.26	17653
902.379	17672
902.498	17573
902.617	17520
902.735	17630
902.854	17543
902.973	17611
903.091	17273
903.21	17254
903.328	17258
903.446	17337
903.565	17067
903.683	17220
903.801	17048
903.919	17033
904.038	17037
904.156	16896
904.274	17029
904.392	16824
904.51	16778
904.627	16839
904.745	16831
904.863	16881
904.981	16725
905.098	16664
905.216	16447
905.334	16592
905.451	16550
905.569	16535
905.686	16660
905.803	16542
905.921	16352
906.038	16436
906.155	16424
906.272	16306
906.389	16261
906.506	16112
906.623	16120
906.74	16059
906.857	16051
906.974	16036
907.091	16074
907.208	16249
907.324	16105
907.441	16112
907.557	15857
907.674	15812
907.79	15816
907.907	15778
908.023	15694
908.139	15770
908.256	15743
908.372	15755
908.488	15770
908.604	15580
908.72	15466
908.836	15622
908.952	15523
909.068	15671
909.184	15713
909.3	15572
909.415	15633
909.531	15580
909.647	15332
909.762	15431
909.878	15222
909.993	15294
910.108	15195
910.224	15150
910.339	15222
910.454	15142
910.57	14994
910.685	14998
910.8	15306
910.915	15237
911.03	15043
911.145	14868
911.259	14880
911.374	14902
911.489	14765
911.604	14830
911.718	14632
911.833	14587
911.947	14598
912.062	14484
912.176	14629
912.291	14705
912.405	14629
912.519	14815
912.633	14826
912.748	14655
912.862	14663
912.976	14404
913.09	14389
913.204	14355
913.318	14636
913.431	14541
913.545	14511
913.659	14571
913.772	14473
913.886	14275
914	14221
914.113	14431
914.226	14385
914.34	14396
914.453	14130
914.566	14339
914.68	14176
914.793	14142
914.906	13997
915.019	14008
915.132	13879
915.245	14035
915.358	13913
915.47	13909
915.583	13917
915.696	13883
915.809	14168
915.921	14115
916.034	13830
916.146	13845
916.259	13772
916.371	13959
916.483	13852
916.595	13906
916.708	13826
916.82	13898
916.932	13696
917.044	13753
917.156	13677
917.268	13655
917.38	13624
917.491	13548
917.603	13723
917.715	13662
917.826	13814
917.938	13601
918.049	13525
918.161	13597
918.272	13776
918.384	13666
918.495	13571
918.606	13449
918.717	13358
918.828	13476
918.939	13373
919.05	13350
919.161	13312
919.272	13232
919.383	13206
919.494	13483
919.604	13677
919.715	13449
919.826	13350
919.936	13422
920.047	13540
920.157	13369
920.267	13575
920.378	13434
920.488	13358
920.598	13567
920.708	13677
920.818	13533
920.928	13495
921.038	13696
921.148	13613
921.258	13362
921.368	13324
921.477	13156
921.587	13149
921.697	13034
921.806	13190
921.916	13015
922.025	12886
922.134	12916
922.244	12700
922.353	12954
922.462	12692
922.571	12639
922.68	12528
922.789	12509
922.898	12513
923.007	12391
923.116	12612
923.224	12414
923.333	12460
923.442	12285
923.55	12296
923.659	12361
923.767	12376
923.876	12300
923.984	12327
924.092	12194
924.201	12285
924.309	12270
924.417	12330
924.525	12186
924.633	12228
924.741	12928
924.849	11992
924.956	12190
925.064	12026
925.172	11958
925.279	11939
925.387	12022
925.494	12038
925.602	11954
925.709	12003
925.816	11832
925.924	11958
926.031	11992
926.138	11878
926.245	11931
926.352	11855
926.459	12038
926.566	11939
926.673	11878
926.779	11771
926.886	11775
926.993	11623
927.099	11611
927.206	11497
927.312	11532
927.419	11642
927.525	11570
927.631	11615
927.737	11528
927.843	11509
927.95	11337
928.056	11398
928.162	11429
928.267	11433
928.373	11984
928.479	11417
928.585	11189
928.69	11406
928.796	11482
928.901	11288
929.007	11105
929.112	11246
929.218	11277
929.323	11189
929.428	11193
929.533	11307
929.638	10946
929.743	11166
929.848	11128
929.953	11132
930.058	11056
930.163	10869
930.267	10873
930.372	11014
930.477	10953
930.581	11022
930.685	10999
930.79	10782
930.894	10755
930.998	10763
931.103	10938
931.207	10500
931.311	10474
931.415	10367
931.519	10246
931.623	10074
