Data from test_V78500241_1448.txt Node
Date: Fri Mar 25 15:51:49 CST 2022
User: usil
Spectrometer: V785-0024
Trigger mode: 0
Integration Time (sec): 4.000000E-1
Scans to average: 1
Nonlinearity correction enabled: false
Boxcar width: 0
Storing dark spectrum: false
XAxis mode: Wavelengths
Number of Pixels in Spectrum: 1024
>>>>>Begin Spectral Data<<<<<
801.071	28428
801.214	28485
801.356	28257
801.499	28074
801.641	28036
801.783	28055
801.926	28006
802.068	28086
802.211	28025
802.353	27888
802.496	27709
802.638	27713
802.78	27728
802.923	27675
803.065	27576
803.208	27717
803.35	27682
803.492	27899
803.635	27945
803.777	27781
803.919	27823
804.061	28489
804.204	27972
804.346	27880
804.488	27892
804.63	27956
804.773	27823
804.915	28116
805.057	28078
805.199	27998
805.341	28169
805.483	28070
805.626	28211
805.768	27998
805.91	28109
806.052	28124
806.194	27895
806.336	28371
806.478	28234
806.62	28063
806.762	28333
806.904	28478
807.046	28577
807.188	28569
807.33	28500
807.472	28683
807.614	28500
807.756	28489
807.898	28413
808.04	28382
808.182	28306
808.324	28493
808.465	28561
808.607	28645
808.749	28854
808.891	28858
809.033	28904
809.174	28915
809.316	28820
809.458	28687
809.6	28721
809.741	28820
809.883	28904
810.025	29060
810.166	29254
810.308	29277
810.45	29022
810.591	28972
810.733	28771
810.875	28881
811.016	28706
811.158	28683
811.299	28900
811.441	28942
811.582	28949
811.724	28885
811.865	28698
812.007	28744
812.148	28816
812.29	28885
812.431	29006
812.573	29250
812.714	29223
812.855	29425
812.997	29402
813.138	29524
813.279	29482
813.421	29322
813.562	29334
813.703	29231
813.845	29090
813.986	28710
814.127	28577
814.268	28713
814.41	28512
814.551	28493
814.692	28531
814.833	28607
814.974	28325
815.115	28592
815.256	28451
815.397	28329
815.539	28333
815.68	28322
815.821	28333
815.962	28363
816.103	28329
816.244	28322
816.385	28158
816.526	28006
816.666	27854
816.807	27835
816.948	27914
817.089	27953
817.23	27812
817.371	27911
817.512	27930
817.653	27785
817.793	27785
817.934	27812
818.075	27979
818.216	27854
818.356	27831
818.497	27747
818.638	27523
818.778	27561
818.919	27641
819.06	27557
819.2	27755
819.341	27739
819.481	27709
819.622	27903
819.762	28135
819.903	27945
820.043	27930
820.184	27899
820.324	27873
820.465	28002
820.605	27846
820.746	27998
820.886	27656
821.026	27907
821.167	27888
821.307	27899
821.447	27819
821.588	27785
821.728	27671
821.868	27553
822.008	27241
822.149	27298
822.289	27226
822.429	26971
822.569	27043
822.709	26998
822.849	26830
822.99	26902
823.13	26727
823.27	26830
823.41	26651
823.55	26613
823.69	26731
823.83	26712
823.97	26526
824.11	26412
824.25	26484
824.389	26488
824.529	26564
824.669	26476
824.809	26590
824.949	26594
825.089	26587
825.228	26648
825.368	26267
825.508	26366
825.648	26317
825.787	26286
825.927	26362
826.067	26419
826.206	26263
826.346	26343
826.485	26229
826.625	26294
826.765	26545
826.904	26370
827.044	26001
827.183	26176
827.323	26054
827.462	26221
827.601	26157
827.741	26058
827.88	26024
828.02	25963
828.159	26001
828.298	26005
828.437	26122
828.577	25959
828.716	26183
828.855	25883
828.994	25750
829.134	25689
829.273	25776
829.412	25731
829.551	25651
829.69	25628
829.829	25662
829.968	25811
830.107	25757
830.246	25757
830.385	25693
830.524	25723
830.663	25590
830.802	25468
830.941	25304
831.08	25327
831.219	25476
831.357	25392
831.496	25567
831.635	25346
831.774	25301
831.913	25225
832.051	25133
832.19	25190
832.329	25217
832.467	25084
832.606	24943
832.744	24875
832.883	24924
833.022	25008
833.16	24985
833.299	24973
833.437	25076
833.576	25015
833.714	25053
833.852	25000
833.991	25126
834.129	25179
834.267	25213
834.406	25175
834.544	25175
834.682	24989
834.821	25076
834.959	25183
835.097	24951
835.235	25031
835.373	25012
835.511	24871
835.65	24745
835.788	24939
835.926	24817
836.064	24757
836.202	24757
836.34	24954
836.478	24935
836.615	24882
836.753	24837
836.891	24894
837.029	25023
837.167	24810
837.305	24817
837.443	24867
837.58	24684
837.718	24669
837.856	24768
837.993	24669
838.131	24757
838.269	24544
838.406	24669
838.544	24426
838.681	24330
838.819	24243
838.956	24136
839.094	24273
839.231	24258
839.369	24281
839.506	24574
839.643	24429
839.781	24155
839.918	24178
840.055	24289
840.193	24144
840.33	24015
840.467	24121
840.604	24121
840.742	24304
840.879	23912
841.016	24057
841.153	24068
841.29	24155
841.427	24201
841.564	24140
841.701	23878
841.838	24136
841.975	23999
842.112	24003
842.249	23847
842.385	23931
842.522	24163
842.659	23912
842.796	23805
842.933	23942
843.069	23889
843.206	23809
843.343	23931
843.479	23859
843.616	23870
843.752	23589
843.889	23642
844.025	23710
844.162	23752
844.298	23798
844.435	23680
844.571	23505
844.708	23703
844.844	23726
844.98	23764
845.117	23710
845.253	23581
845.389	23471
845.525	23512
845.661	23463
845.798	23486
845.934	23307
846.07	23250
846.206	23391
846.342	23512
846.478	23368
846.614	23067
846.75	23136
846.886	23128
847.022	23185
847.158	23242
847.294	23140
847.429	23094
847.565	23010
847.701	23322
847.837	22892
847.972	22801
848.108	22866
848.244	22904
848.379	22797
848.515	22660
848.65	22523
848.786	22649
848.921	22698
849.057	22698
849.192	22774
849.328	22729
849.463	22577
849.598	22683
849.734	22588
849.869	22584
850.004	22455
850.14	22497
850.275	22371
850.41	22417
850.545	22424
850.68	22402
850.815	22489
850.95	22306
851.085	22649
851.22	22611
851.355	22451
851.49	22557
851.625	22421
851.76	22398
851.895	22329
852.03	22360
852.165	22443
852.299	22462
852.434	22565
852.569	22405
852.703	22462
852.838	22443
852.973	22443
853.107	22386
853.242	22371
853.376	22242
853.511	22139
853.645	22246
853.78	22344
853.914	22287
854.048	22257
854.183	22242
854.317	22291
854.451	22299
854.585	22329
854.72	22303
854.854	22314
854.988	22215
855.122	22246
855.256	22226
855.39	22249
855.524	22470
855.658	22314
855.792	22223
855.926	22272
856.06	22272
856.194	22382
856.327	22291
856.461	22109
856.595	22242
856.729	22295
856.862	22519
856.996	22280
857.13	22272
857.263	22402
857.397	22390
857.53	22268
857.664	22242
857.797	22314
857.931	22325
858.064	22246
858.197	22333
858.331	22207
858.464	22188
858.597	22200
858.731	22105
858.864	22242
858.997	22185
859.13	22268
859.263	22291
859.396	22405
859.529	22284
859.662	22253
859.795	22287
859.928	22188
860.061	22409
860.194	22557
860.327	22238
860.46	22261
860.592	22428
860.725	22322
860.858	22379
860.99	22242
861.123	22112
861.256	22177
861.388	22295
861.521	23060
861.653	22230
861.786	22006
861.918	22177
862.05	22204
862.183	22215
862.315	22223
862.447	22246
862.58	22166
862.712	21899
862.844	21903
862.976	22063
863.108	21975
863.24	22303
863.372	21937
863.504	21956
863.636	21926
863.768	22010
863.9	22032
864.032	21857
864.164	22040
864.296	21766
864.428	22002
864.559	22074
864.691	22017
864.823	21941
864.954	21892
865.086	21884
865.217	21831
865.349	21770
865.48	21854
865.612	21960
865.743	22135
865.875	21903
866.006	21857
866.137	21785
866.269	21739
866.4	21781
866.531	21660
866.662	21747
866.793	21728
866.924	21762
867.055	21800
867.186	21884
867.317	21747
867.448	21679
867.579	21663
867.71	21759
867.841	21599
867.972	21717
868.103	21656
868.233	21812
868.364	21888
868.495	21903
868.625	21994
868.756	22150
868.886	22055
869.017	21937
869.147	22059
869.278	22101
869.408	21922
869.539	21983
869.669	22185
869.799	22040
869.929	22120
870.06	22139
870.19	22234
870.32	22147
870.45	22375
870.58	22303
870.71	22573
870.84	22546
870.97	22284
871.1	22455
871.23	22565
871.36	22694
871.489	22421
871.619	22561
871.749	22592
871.879	22493
872.008	22752
872.138	22573
872.267	22500
872.397	22417
872.526	22272
872.656	22344
872.785	22413
872.915	22740
873.044	22618
873.173	22577
873.303	22630
873.432	22596
873.561	22740
873.69	22630
873.819	22603
873.948	22698
874.077	22767
874.206	22599
874.335	22577
874.464	22797
874.593	22938
874.722	22694
874.851	22892
874.979	22835
875.108	22866
875.237	22862
875.365	22752
875.494	22759
875.623	22976
875.751	22900
875.88	22862
876.008	22965
876.136	23121
876.265	23277
876.393	23337
876.521	23330
876.65	23334
876.778	23178
876.906	23231
877.034	23269
877.162	23265
877.29	23105
877.418	23193
877.546	23155
877.674	23178
877.802	23083
877.93	23170
878.058	23143
878.185	23010
878.313	23200
878.441	23162
878.568	23044
878.696	23079
878.824	23337
878.951	23334
879.079	23387
879.206	23425
879.333	23311
879.461	23197
879.588	23292
879.715	23311
879.842	23482
879.97	23288
880.097	23041
880.224	23083
880.351	23079
880.478	23029
880.605	22999
880.732	22942
880.859	23235
880.986	23018
881.112	23041
881.239	22877
881.366	22698
881.493	22694
881.619	22584
881.746	22637
881.872	22573
881.999	22504
882.125	22481
882.252	22615
882.378	22596
882.505	22675
882.631	22455
882.757	22303
882.883	22295
883.01	22242
883.136	22223
883.262	22166
883.388	22109
883.514	22287
883.64	22253
883.766	22158
883.892	21960
884.018	22128
884.143	22272
884.269	22303
884.395	21979
884.52	21960
884.646	21975
884.772	21743
884.897	21823
885.023	21884
885.148	21903
885.274	21979
885.399	21846
885.524	21880
885.65	21987
885.775	21945
885.9	21964
886.025	21960
886.15	22021
886.275	21850
886.4	21869
886.525	21838
886.65	21781
886.775	21793
886.9	22074
887.025	22036
887.149	21736
887.274	21656
887.399	21720
887.523	21625
887.648	21618
887.773	21564
887.897	21713
888.021	21553
888.146	21705
888.27	21827
888.395	21743
888.519	21679
888.643	21580
888.767	21732
888.891	21568
889.015	21481
889.139	21496
889.263	21469
889.387	21431
889.511	21606
889.635	21587
889.759	21492
889.883	21424
890.006	21416
890.13	21424
890.254	21302
890.377	21329
890.501	21188
890.624	21169
890.748	21298
890.871	21051
890.995	20952
891.118	20956
891.241	21074
891.364	20979
891.488	21123
891.611	21051
891.734	20963
891.857	21127
891.98	21135
892.103	20941
892.226	20960
892.349	20807
892.471	20739
892.594	20929
892.717	20906
892.839	21013
892.962	20937
893.085	20937
893.207	20868
893.33	20804
893.452	20853
893.575	20918
893.697	20842
893.819	20918
893.941	21100
894.064	20948
894.186	20823
894.308	20811
894.43	21020
894.552	21100
894.674	20910
894.796	20769
894.918	20918
895.04	20777
895.161	20842
895.283	20868
895.405	20750
895.526	20826
895.648	20902
895.769	20842
895.891	20762
896.012	20853
896.134	20933
896.255	21009
896.376	20975
896.498	20857
896.619	20914
896.74	20872
896.861	20994
896.982	21310
897.103	21279
897.224	21074
897.345	21066
897.466	21005
897.587	21085
897.708	21176
897.828	21055
897.949	21066
898.07	20948
898.19	21005
898.311	21074
898.431	20944
898.552	21154
898.672	21051
898.792	21195
898.913	21119
899.033	21020
899.153	20883
899.273	20579
899.393	20842
899.513	20777
899.633	20785
899.753	20853
899.873	20777
899.993	20781
900.113	20868
900.232	20727
900.352	20724
900.472	20632
900.591	20568
900.711	20648
900.83	20533
900.95	20670
901.069	20613
901.189	20423
901.308	20248
901.427	20157
901.546	20176
901.665	20035
901.784	20172
901.904	19951
902.023	19951
902.141	19803
902.26	19620
902.379	19841
902.498	19674
902.617	19529
902.735	19715
902.854	19670
902.973	19457
903.091	19365
903.21	19308
903.328	19316
903.446	19217
903.565	19156
903.683	19251
903.801	18951
903.919	18973
904.038	19046
904.156	18856
904.274	18996
904.392	18810
904.51	18859
904.627	18829
904.745	18924
904.863	18890
904.981	18620
905.098	18578
905.216	18578
905.334	18570
905.451	18502
905.569	18490
905.686	18604
905.803	18467
905.921	18315
906.038	18528
906.155	18395
906.272	18228
906.389	18254
906.506	18095
906.623	18110
906.74	18045
906.857	17931
906.974	17996
907.091	18098
907.208	18239
907.324	18007
907.441	18007
907.557	17779
907.674	17786
907.79	17634
907.907	17661
908.023	17767
908.139	17741
908.256	17745
908.372	17703
908.488	17630
908.604	17581
908.72	17501
908.836	17528
908.952	17501
909.068	17459
909.184	17642
909.3	17474
909.415	17417
909.531	17440
909.647	17212
909.762	17277
909.878	17128
909.993	17250
910.108	17242
910.224	17128
910.339	17178
910.454	17117
910.57	16961
910.685	16862
910.8	17181
910.915	17048
911.03	16942
911.145	16881
911.259	16790
911.374	16820
911.489	16786
911.604	16725
911.718	16489
911.833	16561
911.947	16367
912.062	16280
912.176	16542
912.291	16542
912.405	16558
912.519	16653
912.633	16740
912.748	16607
912.862	16596
912.976	16303
913.09	16230
913.204	16287
913.318	16352
913.431	16386
913.545	16455
913.659	16386
913.772	16329
913.886	16093
914	16090
914.113	16219
914.226	16181
914.34	16177
914.453	15998
914.566	16169
914.68	16105
914.793	15987
914.906	15675
915.019	15682
915.132	15713
915.245	15656
915.358	15717
915.47	15728
915.583	15671
915.696	15755
915.809	15778
915.921	15781
916.034	15580
916.146	15625
916.259	15652
916.371	15648
916.483	15660
916.595	15568
916.708	15488
916.82	15530
916.932	15511
917.044	15454
917.156	15454
917.268	15389
917.38	15313
917.491	15382
917.603	15348
917.715	15405
917.826	15447
917.938	15302
918.049	15233
918.161	15245
918.272	15313
918.384	15351
918.495	15245
918.606	15070
918.717	14982
918.828	15081
918.939	15051
919.05	15017
919.161	15036
919.272	14891
919.383	14880
919.494	15100
919.604	15233
919.715	15036
919.826	14952
919.936	15089
920.047	15180
920.157	15055
920.267	15264
920.378	15043
920.488	14895
920.598	15230
920.708	15367
920.818	15226
920.928	15203
921.038	15226
921.148	15176
921.258	15051
921.368	14754
921.477	14667
921.587	14716
921.697	14602
921.806	14811
921.916	14663
922.025	14514
922.134	14457
922.244	14240
922.353	14419
922.462	14225
922.571	14214
922.68	14096
922.789	14016
922.898	14008
923.007	13974
923.116	13974
923.224	14031
923.333	14016
923.442	13913
923.55	13814
923.659	13856
923.767	13776
923.876	13693
923.984	13860
924.092	13723
924.201	13788
924.309	13738
924.417	13685
924.525	13670
924.633	13685
924.741	14530
924.849	13460
924.956	13655
925.064	13563
925.172	13312
925.279	13403
925.387	13468
925.494	13400
925.602	13514
925.709	13521
925.816	13350
925.924	13331
926.031	13480
926.138	13308
926.245	13460
926.352	13255
926.459	13411
926.566	13472
926.673	13263
926.779	13145
926.886	13164
926.993	13027
927.099	12932
927.206	12894
927.312	12905
927.419	13008
927.525	12886
927.631	12943
927.737	12806
927.843	12829
927.95	12730
928.056	12768
928.162	12798
928.267	12814
928.373	13415
928.479	12840
928.585	12593
928.69	12681
928.796	12791
928.901	12654
929.007	12483
929.112	12635
929.218	12654
929.323	12540
929.428	12464
929.533	12601
929.638	12376
929.743	12403
929.848	12578
929.953	12399
930.058	12319
930.163	12121
930.267	12205
930.372	12350
930.477	12144
930.581	12304
930.685	12239
930.79	12026
930.894	12087
930.998	12049
931.103	12136
931.207	11775
931.311	11657
931.415	11638
931.519	11452
931.623	11387
