Data from test_V78500241_1819.txt Node
Date: Fri Mar 25 15:54:24 CST 2022
User: usil
Spectrometer: V785-0024
Trigger mode: 0
Integration Time (sec): 4.000000E-1
Scans to average: 1
Nonlinearity correction enabled: false
Boxcar width: 0
Storing dark spectrum: false
XAxis mode: Wavelengths
Number of Pixels in Spectrum: 1024
>>>>>Begin Spectral Data<<<<<
801.071	28596
801.214	28485
801.356	28310
801.499	28333
801.641	28162
801.783	28188
801.926	28318
802.068	28082
802.211	28013
802.353	27914
802.496	27793
802.638	27838
802.78	27797
802.923	27781
803.065	27675
803.208	27747
803.35	27835
803.492	27979
803.635	28090
803.777	27911
803.919	28040
804.061	28303
804.204	28082
804.346	27987
804.488	28006
804.63	27930
804.773	27968
804.915	28074
805.057	28150
805.199	28109
805.341	28185
805.483	28382
805.626	28067
805.768	28192
805.91	28207
806.052	28128
806.194	28162
806.336	28390
806.478	28284
806.62	28192
806.762	28451
806.904	28462
807.046	28668
807.188	28744
807.33	28649
807.472	28713
807.614	28584
807.756	28637
807.898	28485
808.04	28535
808.182	28314
808.324	28573
808.465	28527
808.607	28691
808.749	28733
808.891	29071
809.033	28873
809.174	28915
809.316	28904
809.458	28858
809.6	28706
809.741	29071
809.883	28999
810.025	29277
810.166	29071
810.308	29071
810.45	29174
810.591	28923
810.733	28888
810.875	28965
811.016	28721
811.158	28850
811.299	29041
811.441	28965
811.582	29056
811.724	28805
811.865	28843
812.007	28801
812.148	28942
812.29	29033
812.431	29075
812.573	29102
812.714	29231
812.855	29379
812.997	29463
813.138	29577
813.279	29478
813.421	29459
813.562	29299
813.703	29212
813.845	29060
813.986	28812
814.127	28729
814.268	28523
814.41	28793
814.551	28580
814.692	28660
814.833	28531
814.974	28645
815.115	28691
815.256	28405
815.397	28356
815.539	28466
815.68	28481
815.821	28226
815.962	28436
816.103	28432
816.244	28238
816.385	28051
816.526	28188
816.666	28025
816.807	27816
816.948	27892
817.089	28032
817.23	27972
817.371	27869
817.512	27857
817.653	27873
817.793	27800
817.934	27850
818.075	27922
818.216	27838
818.356	27808
818.497	27797
818.638	27781
818.778	27610
818.919	27625
819.06	27720
819.2	27705
819.341	27876
819.481	27953
819.622	28162
819.762	28204
819.903	28036
820.043	28120
820.184	28067
820.324	28044
820.465	28188
820.605	28029
820.746	28074
820.886	27778
821.026	27960
821.167	27968
821.307	28090
821.447	27854
821.588	27819
821.728	27656
821.868	27591
822.008	27492
822.149	27370
822.289	27348
822.429	27047
822.569	27051
822.709	27070
822.849	26857
822.99	27028
823.13	26826
823.27	26769
823.41	26838
823.55	26533
823.69	26739
823.83	26640
823.97	26678
824.11	26488
824.25	26480
824.389	26473
824.529	26545
824.669	26492
824.809	26568
824.949	26457
825.089	26644
825.228	26659
825.368	26301
825.508	26343
825.648	26469
825.787	26476
825.927	26438
826.067	26450
826.206	26393
826.346	26343
826.485	26465
826.625	26298
826.765	26507
826.904	26423
827.044	26100
827.183	26259
827.323	26027
827.462	26031
827.601	26046
827.741	26069
827.88	26172
828.02	25883
828.159	26145
828.298	26077
828.437	26214
828.577	25989
828.716	26237
828.855	26008
828.994	25852
829.134	25799
829.273	25890
829.412	25841
829.551	25719
829.69	25856
829.829	25951
829.968	25841
830.107	25856
830.246	25868
830.385	25704
830.524	25685
830.663	25624
830.802	25476
830.941	25540
831.08	25343
831.219	25400
831.357	25438
831.496	25639
831.635	25388
831.774	25381
831.913	25350
832.051	25110
832.19	25232
832.329	25266
832.467	25088
832.606	25141
832.744	24943
832.883	25145
833.022	25076
833.16	25053
833.299	25225
833.437	25099
833.576	25156
833.714	25160
833.852	25179
833.991	25324
834.129	25217
834.267	25293
834.406	25198
834.544	25145
834.682	25156
834.821	25103
834.959	25327
835.097	25129
835.235	25278
835.373	25031
835.511	25114
835.65	24913
835.788	25088
835.926	24909
836.064	24791
836.202	24833
836.34	24973
836.478	24932
836.615	24962
836.753	24837
836.891	24996
837.029	25015
837.167	24821
837.305	24806
837.443	24848
837.58	24696
837.718	24905
837.856	24760
837.993	24623
838.131	24878
838.269	24608
838.406	24593
838.544	24650
838.681	24464
838.819	24456
838.956	24224
839.094	24266
839.231	24247
839.369	24395
839.506	24745
839.643	24574
839.781	24205
839.918	24228
840.055	24270
840.193	24121
840.33	24251
840.467	24129
840.604	24239
840.742	24376
840.879	24030
841.016	24140
841.153	24053
841.29	24216
841.427	24098
841.564	24182
841.701	24121
841.838	24194
841.975	24079
842.112	24045
842.249	24049
842.385	23954
842.522	24060
842.659	23965
842.796	23923
842.933	23946
843.069	23942
843.206	23882
843.343	23980
843.479	23794
843.616	23992
843.752	23676
843.889	23748
844.025	23824
844.162	23634
844.298	23767
844.435	23649
844.571	23775
844.708	23745
844.844	23836
844.98	23707
845.117	23866
845.253	23627
845.389	23634
845.525	23604
845.661	23558
845.798	23486
845.934	23440
846.07	23535
846.206	23421
846.342	23653
846.478	23379
846.614	23117
846.75	23143
846.886	23083
847.022	23227
847.158	23117
847.294	23212
847.429	23094
847.565	23094
847.701	23402
847.837	22991
847.972	22892
848.108	22946
848.244	22999
848.379	22839
848.515	22736
848.65	22706
848.786	22744
848.921	22668
849.057	22831
849.192	22816
849.328	22611
849.463	22592
849.598	22687
849.734	22634
849.869	22573
850.004	22485
850.14	22474
850.275	22523
850.41	22432
850.545	22352
850.68	22523
850.815	22459
850.95	22413
851.085	22592
851.22	22634
851.355	22489
851.49	22447
851.625	22485
851.76	22584
851.895	22436
852.03	22375
852.165	22497
852.299	22599
852.434	22538
852.569	22561
852.703	22497
852.838	22557
852.973	22740
853.107	22436
853.242	22379
853.376	22295
853.511	22272
853.645	22207
853.78	22428
853.914	22371
854.048	22215
854.183	22238
854.317	22356
854.451	22455
854.585	22363
854.72	22398
854.854	22394
854.988	22192
855.122	22276
855.256	22192
855.39	22303
855.524	22436
855.658	22360
855.792	22322
855.926	22379
856.06	22162
856.194	22417
856.327	22291
856.461	22272
856.595	22196
856.729	22234
856.862	22306
856.996	22280
857.13	22322
857.263	22493
857.397	22356
857.53	22306
857.664	22356
857.797	22333
857.931	22409
858.064	22310
858.197	22360
858.331	22265
858.464	22169
858.597	22150
858.731	22272
858.864	22147
858.997	22284
859.13	22398
859.263	22287
859.396	22318
859.529	22322
859.662	22223
859.795	22173
859.928	22405
860.061	22360
860.194	22588
860.327	22268
860.46	22272
860.592	22527
860.725	22493
860.858	22379
860.99	22390
861.123	22246
861.256	22246
861.388	22318
861.521	22991
861.653	22086
861.786	22017
861.918	22105
862.05	22242
862.183	22154
862.315	22265
862.447	22196
862.58	22128
862.712	22067
862.844	21983
862.976	22078
863.108	21987
863.24	22535
863.372	21994
863.504	21979
863.636	21915
863.768	22097
863.9	21926
864.032	21838
864.164	21911
864.296	22017
864.428	22059
864.559	22139
864.691	22067
864.823	21972
864.954	21850
865.086	22044
865.217	21934
865.349	21770
865.48	21823
865.612	21918
865.743	22044
865.875	21778
866.006	21842
866.137	21831
866.269	21892
866.4	21876
866.531	21812
866.662	21964
866.793	21823
866.924	21793
867.055	21911
867.186	21876
867.317	21656
867.448	21762
867.579	21823
867.71	21747
867.841	21759
867.972	21652
868.103	21679
868.233	21755
868.364	21899
868.495	21861
868.625	22101
868.756	22120
868.886	21915
869.017	22147
869.147	22135
869.278	22025
869.408	22101
869.539	22166
869.669	22139
869.799	22211
869.929	22116
870.06	22109
870.19	22417
870.32	22363
870.45	22367
870.58	22367
870.71	22675
870.84	22630
870.97	22409
871.1	22478
871.23	22637
871.36	22847
871.489	22538
871.619	22516
871.749	22626
871.879	22702
872.008	22721
872.138	22763
872.267	22649
872.397	22561
872.526	22489
872.656	22554
872.785	22523
872.915	22809
873.044	22782
873.173	22668
873.303	22801
873.432	22763
873.561	22828
873.69	22710
873.819	22577
873.948	22809
874.077	22687
874.206	22584
874.335	22649
874.464	22736
874.593	23052
874.722	22908
874.851	22885
874.979	22812
875.108	22915
875.237	22782
875.365	22767
875.494	22930
875.623	22968
875.751	22949
875.88	22927
876.008	22900
876.136	23003
876.265	23242
876.393	23387
876.521	23303
876.65	23326
876.778	23284
876.906	23261
877.034	23231
877.162	23299
877.29	23212
877.418	23212
877.546	23170
877.674	23231
877.802	23326
877.93	23280
878.058	23223
878.185	23014
878.313	23220
878.441	23216
878.568	22923
878.696	23105
878.824	23307
878.951	23223
879.079	23303
879.206	23512
879.333	23440
879.461	23189
879.588	23250
879.715	23425
879.842	23493
879.97	23315
880.097	23048
880.224	23064
880.351	23079
880.478	23022
880.605	23067
880.732	23060
880.859	23227
880.986	23071
881.112	23052
881.239	22980
881.366	22736
881.493	22679
881.619	22729
881.746	22592
881.872	22660
881.999	22664
882.125	22561
882.252	22630
882.378	22588
882.505	22889
882.631	22527
882.757	22303
882.883	22390
883.01	22299
883.136	22181
883.262	22048
883.388	22204
883.514	22207
883.64	22348
883.766	22242
883.892	22124
884.018	22109
884.143	22177
884.269	22360
884.395	21926
884.52	21854
884.646	21949
884.772	21789
884.897	21876
885.023	21975
885.148	22048
885.274	22029
885.399	22017
885.524	21983
885.65	21945
885.775	21895
885.9	21987
886.025	22082
886.15	21953
886.275	21907
886.4	21762
886.525	21876
886.65	21899
886.775	21835
886.9	21888
887.025	22120
887.149	21827
887.274	21876
887.399	21603
887.523	21679
887.648	21705
887.773	21519
887.897	21713
888.021	21667
888.146	21633
888.27	21804
888.395	21751
888.519	21648
888.643	21808
888.767	21797
888.891	21644
889.015	21538
889.139	21458
889.263	21458
889.387	21500
889.511	21599
889.635	21610
889.759	21568
889.883	21447
890.006	21500
890.13	21488
890.254	21408
890.377	21401
890.501	21226
890.624	21142
890.748	21291
890.871	21203
890.995	20971
891.118	20899
891.241	21093
891.364	21146
891.488	21222
891.611	21013
891.734	20891
891.857	21211
891.98	21005
892.103	21142
892.226	20941
892.349	20944
892.471	20849
892.594	20994
892.717	20872
892.839	20914
892.962	20956
893.085	21047
893.207	20891
893.33	20925
893.452	20906
893.575	20891
893.697	20785
893.819	21043
893.941	21123
894.064	21036
894.186	20773
894.308	20796
894.43	20982
894.552	21020
894.674	20994
894.796	20788
894.918	20933
895.04	20769
895.161	20902
895.283	20876
895.405	20712
895.526	20933
895.648	20830
895.769	21009
895.891	20948
896.012	21150
896.134	20960
896.255	20982
896.376	20845
896.498	21005
896.619	20967
896.74	20864
896.861	20883
896.982	21256
897.103	21264
897.224	21039
897.345	21142
897.466	21005
897.587	21112
897.708	21222
897.828	21161
897.949	20880
898.07	20921
898.19	21009
898.311	21192
898.431	21051
898.552	21043
898.672	21169
898.792	21226
898.913	21116
899.033	21055
899.153	20868
899.273	20727
899.393	20796
899.513	20815
899.633	20941
899.753	20845
899.873	20834
899.993	20887
900.113	20762
900.232	20769
900.352	20712
900.472	20606
900.591	20571
900.711	20606
900.83	20549
900.95	20735
901.069	20663
901.189	20518
901.308	20301
901.427	20172
901.546	20221
901.665	20240
901.784	20119
901.904	20054
902.023	19894
902.141	19803
902.26	19788
902.379	19750
902.498	19734
902.617	19613
902.735	19776
902.854	19677
902.973	19540
903.091	19396
903.21	19343
903.328	19358
903.446	19225
903.565	19122
903.683	19179
903.801	18996
903.919	18977
904.038	19217
904.156	18909
904.274	19053
904.392	18852
904.51	18825
904.627	18939
904.745	19034
904.863	18875
904.981	18738
905.098	18547
905.216	18582
905.334	18627
905.451	18521
905.569	18566
905.686	18642
905.803	18456
905.921	18361
906.038	18464
906.155	18365
906.272	18205
906.389	18311
906.506	18178
906.623	18121
906.74	18163
906.857	18003
906.974	17931
907.091	18129
907.208	18152
907.324	18053
907.441	18045
907.557	17863
907.674	17885
907.79	17707
907.907	17802
908.023	17885
908.139	17904
908.256	17756
908.372	17752
908.488	17703
908.604	17566
908.72	17589
908.836	17532
908.952	17463
909.068	17505
909.184	17562
909.3	17478
909.415	17596
909.531	17543
909.647	17334
909.762	17223
909.878	17239
909.993	17246
910.108	17280
910.224	17254
910.339	17181
910.454	17166
910.57	17037
910.685	17014
910.8	17166
910.915	17162
911.03	16961
911.145	16828
911.259	16767
911.374	16900
911.489	16664
911.604	16752
911.718	16630
911.833	16569
911.947	16348
912.062	16405
912.176	16527
912.291	16523
912.405	16592
912.519	16733
912.633	16710
912.748	16653
912.862	16493
912.976	16440
913.09	16200
913.204	16299
913.318	16341
913.431	16398
913.545	16436
913.659	16466
913.772	16284
913.886	16234
914	16067
914.113	16135
914.226	16356
914.34	16105
914.453	16120
914.566	16173
914.68	16002
914.793	15972
914.906	15816
915.019	15770
915.132	15675
915.245	15682
915.358	15793
915.47	15831
915.583	15663
915.696	15736
915.809	15823
915.921	15785
916.034	15656
916.146	15564
916.259	15618
916.371	15759
916.483	15652
916.595	15488
916.708	15538
916.82	15545
916.932	15466
917.044	15572
917.156	15515
917.268	15359
917.38	15367
917.491	15401
917.603	15370
917.715	15386
917.826	15473
917.938	15344
918.049	15218
918.161	15226
918.272	15389
918.384	15435
918.495	15199
918.606	15100
918.717	15043
918.828	15180
918.939	15165
919.05	15017
919.161	15047
919.272	14971
919.383	14868
919.494	15104
919.604	15325
919.715	15051
919.826	15009
919.936	15089
920.047	15180
920.157	15032
920.267	15233
920.378	15062
920.488	14948
920.598	15272
920.708	15408
920.818	15157
920.928	15214
921.038	15370
921.148	15237
921.258	14956
921.368	14910
921.477	14754
921.587	14788
921.697	14621
921.806	14739
921.916	14602
922.025	14450
922.134	14404
922.244	14396
922.353	14370
922.462	14305
922.571	14252
922.68	14065
922.789	13997
922.898	14100
923.007	14096
923.116	14115
923.224	14031
923.333	13993
923.442	13963
923.55	13875
923.659	13936
923.767	13906
923.876	13894
923.984	13868
924.092	13772
924.201	13799
924.309	13753
924.417	13856
924.525	13822
924.633	13734
924.741	14442
924.849	13506
924.956	13674
925.064	13510
925.172	13419
925.279	13449
925.387	13487
925.494	13426
925.602	13628
925.709	13480
925.816	13445
925.924	13415
926.031	13438
926.138	13403
926.245	13407
926.352	13221
926.459	13362
926.566	13320
926.673	13263
926.779	13236
926.886	13133
926.993	13107
927.099	12993
927.206	12962
927.312	12954
927.419	13038
927.525	12962
927.631	13015
927.737	12871
927.843	12814
927.95	12730
928.056	12783
928.162	12878
928.267	12878
928.373	13514
928.479	12867
928.585	12669
928.69	12684
928.796	12825
928.901	12684
929.007	12563
929.112	12673
929.218	12551
929.323	12563
929.428	12475
929.533	12719
929.638	12414
929.743	12574
929.848	12509
929.953	12479
930.058	12395
930.163	12175
930.267	12216
930.372	12372
930.477	12178
930.581	12372
930.685	12262
930.79	12148
930.894	12114
930.998	12098
931.103	12148
931.207	11745
931.311	11809
931.415	11672
931.519	11501
931.623	11493
