Data from test_V78500241_958.txt Node
Date: Fri Mar 25 15:48:26 CST 2022
User: usil
Spectrometer: V785-0024
Trigger mode: 0
Integration Time (sec): 4.000000E-1
Scans to average: 1
Nonlinearity correction enabled: false
Boxcar width: 0
Storing dark spectrum: false
XAxis mode: Wavelengths
Number of Pixels in Spectrum: 1024
>>>>>Begin Spectral Data<<<<<
801.071	28626
801.214	28550
801.356	28337
801.499	28215
801.641	28185
801.783	28246
801.926	28318
802.068	28204
802.211	28112
802.353	28128
802.496	27812
802.638	27895
802.78	27808
802.923	27846
803.065	27644
803.208	27934
803.35	27888
803.492	27956
803.635	27945
803.777	27861
803.919	28082
804.061	28348
804.204	28002
804.346	27953
804.488	27975
804.63	28055
804.773	27934
804.915	28101
805.057	28032
805.199	28036
805.341	28204
805.483	28185
805.626	28029
805.768	28086
805.91	28055
806.052	28109
806.194	28105
806.336	28344
806.478	28276
806.62	28303
806.762	28432
806.904	28421
807.046	28725
807.188	28466
807.33	28573
807.472	28733
807.614	28668
807.756	28535
807.898	28516
808.04	28409
808.182	28478
808.324	28554
808.465	28554
808.607	28717
808.749	28888
808.891	28908
809.033	29014
809.174	28831
809.316	28911
809.458	28862
809.6	28713
809.741	29083
809.883	29018
810.025	29280
810.166	29067
810.308	29197
810.45	29159
810.591	29056
810.733	28995
810.875	28999
811.016	28637
811.158	28881
811.299	28938
811.441	28957
811.582	29147
811.724	28949
811.865	28805
812.007	28877
812.148	28965
812.29	28896
812.431	29041
812.573	29292
812.714	29398
812.855	29486
812.997	29440
813.138	29729
813.279	29566
813.421	29429
813.562	29444
813.703	29299
813.845	29060
813.986	29018
814.127	28755
814.268	28634
814.41	28683
814.551	28596
814.692	28580
814.833	28626
814.974	28618
815.115	28710
815.256	28542
815.397	28512
815.539	28417
815.68	28462
815.821	28424
815.962	28497
816.103	28462
816.244	28417
816.385	28101
816.526	28257
816.666	28017
816.807	27911
816.948	27975
817.089	28109
817.23	27880
817.371	27854
817.512	27991
817.653	27899
817.793	27819
817.934	27861
818.075	27983
818.216	27941
818.356	27956
818.497	27770
818.638	27698
818.778	27648
818.919	27675
819.06	27850
819.2	27994
819.341	27922
819.481	27907
819.622	28010
819.762	28356
819.903	28299
820.043	28204
820.184	28090
820.324	28082
820.465	28051
820.605	27949
820.746	28166
820.886	27724
821.026	28040
821.167	28074
821.307	28048
821.447	27876
821.588	27766
821.728	27774
821.868	27557
822.008	27526
822.149	27363
822.289	27477
822.429	27112
822.569	27173
822.709	27020
822.849	26933
822.99	26872
823.13	26944
823.27	26796
823.41	26720
823.55	26594
823.69	26781
823.83	26720
823.97	26648
824.11	26564
824.25	26625
824.389	26754
824.529	26621
824.669	26511
824.809	26754
824.949	26762
825.089	26697
825.228	26845
825.368	26320
825.508	26556
825.648	26328
825.787	26370
825.927	26575
826.067	26294
826.206	26278
826.346	26419
826.485	26541
826.625	26351
826.765	26526
826.904	26408
827.044	26244
827.183	26202
827.323	26138
827.462	26126
827.601	26161
827.741	26134
827.88	26317
828.02	26122
828.159	26130
828.298	26164
828.437	26214
828.577	26020
828.716	26286
828.855	26088
828.994	25932
829.134	25898
829.273	25864
829.412	25833
829.551	25833
829.69	25887
829.829	25883
829.968	25818
830.107	25986
830.246	25982
830.385	25780
830.524	25738
830.663	25586
830.802	25624
830.941	25358
831.08	25533
831.219	25597
831.357	25639
831.496	25643
831.635	25449
831.774	25388
831.913	25487
832.051	25255
832.19	25213
832.329	25266
832.467	25164
832.606	25122
832.744	25084
832.883	25110
833.022	25084
833.16	25107
833.299	25065
833.437	25247
833.576	25244
833.714	25156
833.852	25217
833.991	25225
834.129	25225
834.267	25289
834.406	25190
834.544	25160
834.682	25187
834.821	25122
834.959	25297
835.097	25190
835.235	25263
835.373	25122
835.511	25141
835.65	24970
835.788	25114
835.926	24970
836.064	24905
836.202	24829
836.34	25050
836.478	25088
836.615	25023
836.753	24958
836.891	25027
837.029	24939
837.167	24916
837.305	24932
837.443	24840
837.58	24840
837.718	24996
837.856	24848
837.993	24772
838.131	24852
838.269	24734
838.406	24772
838.544	24639
838.681	24494
838.819	24426
838.956	24296
839.094	24289
839.231	24300
839.369	24429
839.506	24547
839.643	24578
839.781	24391
839.918	24266
840.055	24376
840.193	24281
840.33	24148
840.467	24220
840.604	24327
840.742	24452
840.879	24136
841.016	24216
841.153	24178
841.29	24365
841.427	24174
841.564	24388
841.701	24152
841.838	24155
841.975	24136
842.112	24144
842.249	24079
842.385	24038
842.522	24224
842.659	24060
842.796	23965
842.933	23950
843.069	23927
843.206	23882
843.343	23950
843.479	24015
843.616	23931
843.752	23737
843.889	23828
844.025	23771
844.162	23798
844.298	23855
844.435	23592
844.571	23646
844.708	23790
844.844	23882
844.98	23946
845.117	23813
845.253	23722
845.389	23680
845.525	23646
845.661	23627
845.798	23486
845.934	23455
846.07	23535
846.206	23482
846.342	23474
846.478	23467
846.614	23197
846.75	23124
846.886	23231
847.022	23246
847.158	23208
847.294	23200
847.429	23261
847.565	23151
847.701	23360
847.837	23044
847.972	22908
848.108	22999
848.244	22991
848.379	22797
848.515	22850
848.65	22767
848.786	22729
848.921	22923
849.057	22889
849.192	22820
849.328	22812
849.463	22801
849.598	22736
849.734	22759
849.869	22611
850.004	22451
850.14	22535
850.275	22497
850.41	22519
850.545	22523
850.68	22489
850.815	22580
850.95	22672
851.085	22862
851.22	22649
851.355	22580
851.49	22493
851.625	22390
851.76	22561
851.895	22470
852.03	22577
852.165	22706
852.299	22626
852.434	22683
852.569	22618
852.703	22497
852.838	22634
852.973	22637
853.107	22675
853.242	22504
853.376	22466
853.511	22109
853.645	22325
853.78	22447
853.914	22512
854.048	22325
854.183	22337
854.317	22375
854.451	22713
854.585	22325
854.72	22363
854.854	22527
854.988	22337
855.122	22382
855.256	22257
855.39	22413
855.524	22341
855.658	22421
855.792	22371
855.926	22333
856.06	22382
856.194	22417
856.327	22287
856.461	22451
856.595	22238
856.729	22360
856.862	22462
856.996	22390
857.13	22451
857.263	22325
857.397	22455
857.53	22344
857.664	22424
857.797	22337
857.931	22519
858.064	22394
858.197	22344
858.331	22371
858.464	22329
858.597	22219
858.731	22306
858.864	22310
858.997	22257
859.13	22409
859.263	22325
859.396	22485
859.529	22371
859.662	22341
859.795	22322
859.928	22375
860.061	22443
860.194	22538
860.327	22386
860.46	22234
860.592	22436
860.725	22466
860.858	22550
860.99	22341
861.123	22295
861.256	22230
861.388	22436
861.521	23048
861.653	22188
861.786	22257
861.918	22131
862.05	22196
862.183	22226
862.315	22341
862.447	22413
862.58	22162
862.712	22097
862.844	22074
862.976	22154
863.108	22124
863.24	22455
863.372	22017
863.504	22086
863.636	22017
863.768	22181
863.9	22029
864.032	22051
864.164	21956
864.296	22013
864.428	22135
864.559	22067
864.691	22131
864.823	22059
864.954	22116
865.086	22131
865.217	21911
865.349	21953
865.48	21937
865.612	22078
865.743	22074
865.875	21922
866.006	21899
866.137	21983
866.269	22021
866.4	21960
866.531	21979
866.662	21918
866.793	21922
866.924	21880
867.055	21941
867.186	21941
867.317	21785
867.448	21793
867.579	21884
867.71	21694
867.841	21804
867.972	21937
868.103	21751
868.233	21884
868.364	21972
868.495	22055
868.625	22101
868.756	22109
868.886	21983
869.017	22211
869.147	22196
869.278	22192
869.408	22185
869.539	22032
869.669	22215
869.799	22196
869.929	22394
870.06	22116
870.19	22470
870.32	22348
870.45	22523
870.58	22424
870.71	22596
870.84	22649
870.97	22535
871.1	22493
871.23	22702
871.36	22725
871.489	22569
871.619	22653
871.749	22710
871.879	22698
872.008	22900
872.138	22710
872.267	22721
872.397	22565
872.526	22398
872.656	22561
872.785	22531
872.915	22786
873.044	22866
873.173	22805
873.303	22786
873.432	22771
873.561	22820
873.69	22866
873.819	22767
873.948	22843
874.077	22656
874.206	22809
874.335	22755
874.464	22858
874.593	22828
874.722	22889
874.851	22919
874.979	22972
875.108	22972
875.237	22984
875.365	22793
875.494	22748
875.623	23067
875.751	22843
875.88	22900
876.008	22938
876.136	23124
876.265	23376
876.393	23497
876.521	23425
876.65	23429
876.778	23391
876.906	23258
877.034	23250
877.162	23383
877.29	23113
877.418	23261
877.546	23315
877.674	23204
877.802	23200
877.93	23273
878.058	23155
878.185	23113
878.313	23159
878.441	23181
878.568	23170
878.696	23242
878.824	23334
878.951	23277
879.079	23467
879.206	23543
879.333	23398
879.461	23315
879.588	23334
879.715	23440
879.842	23543
879.97	23433
880.097	23128
880.224	23102
880.351	23121
880.478	23083
880.605	23075
880.732	23022
880.859	23364
880.986	23041
881.112	23067
881.239	22995
881.366	22820
881.493	22740
881.619	22645
881.746	22702
881.872	22702
881.999	22584
882.125	22508
882.252	22752
882.378	22634
882.505	22679
882.631	22485
882.757	22299
882.883	22284
883.01	22375
883.136	22249
883.262	22105
883.388	22196
883.514	22371
883.64	22379
883.766	22352
883.892	22150
884.018	22086
884.143	22226
884.269	22382
884.395	22086
884.52	21926
884.646	21934
884.772	21926
884.897	21960
885.023	22105
885.148	22124
885.274	22017
885.399	22036
885.524	22040
885.65	21975
885.775	21953
885.9	21899
886.025	21994
886.15	21987
886.275	21892
886.4	21994
886.525	21876
886.65	21800
886.775	21800
886.9	22090
887.025	22097
887.149	21972
887.274	21663
887.399	21705
887.523	21755
887.648	21686
887.773	21720
887.897	21892
888.021	21747
888.146	21595
888.27	21808
888.395	21915
888.519	21709
888.643	21770
888.767	21732
888.891	21652
889.015	21488
889.139	21637
889.263	21496
889.387	21534
889.511	21720
889.635	21580
889.759	21439
889.883	21473
890.006	21538
890.13	21603
890.254	21454
890.377	21439
890.501	21287
890.624	21195
890.748	21169
890.871	21123
890.995	21043
891.118	21017
891.241	21199
891.364	21024
891.488	21222
891.611	21085
891.734	21096
891.857	21135
891.98	21112
892.103	21173
892.226	21096
892.349	20960
892.471	20918
892.594	21081
892.717	20956
892.839	20929
892.962	20887
893.085	21077
893.207	20944
893.33	21005
893.452	20975
893.575	20918
893.697	21024
893.819	21077
893.941	21096
894.064	21047
894.186	20967
894.308	20929
894.43	21089
894.552	21089
894.674	21077
894.796	20811
894.918	20876
895.04	20819
895.161	20952
895.283	21039
895.405	20712
895.526	20826
895.648	20956
895.769	20914
895.891	21001
896.012	21085
896.134	21104
896.255	21043
896.376	20921
896.498	20925
896.619	20906
896.74	20963
896.861	20990
896.982	21211
897.103	21469
897.224	21077
897.345	21112
897.466	21104
897.587	21081
897.708	21188
897.828	21283
897.949	21184
898.07	21009
898.19	21062
898.311	21150
898.431	21081
898.552	21112
898.672	21249
898.792	21157
898.913	21233
899.033	21043
899.153	20979
899.273	20868
899.393	20944
899.513	20994
899.633	20937
899.753	20880
899.873	20906
899.993	20914
900.113	20743
900.232	20845
900.352	20731
900.472	20625
900.591	20404
900.711	20651
900.83	20659
900.95	20613
901.069	20804
901.189	20499
901.308	20275
901.427	20122
901.546	20195
901.665	20134
901.784	20282
901.904	20157
902.023	20016
902.141	19791
902.26	19860
902.379	19898
902.498	19765
902.617	19620
902.735	19731
902.854	19643
902.973	19609
903.091	19430
903.21	19464
903.328	19304
903.446	19282
903.565	19171
903.683	19251
903.801	19171
903.919	19156
904.038	19095
904.156	18970
904.274	18951
904.392	18905
904.51	18882
904.627	18897
904.745	18996
904.863	18840
904.981	18764
905.098	18513
905.216	18547
905.334	18597
905.451	18696
905.569	18673
905.686	18494
905.803	18608
905.921	18327
906.038	18498
906.155	18403
906.272	18262
906.389	18277
906.506	18136
906.623	18182
906.74	18178
906.857	17980
906.974	18079
907.091	18190
907.208	18205
907.324	18041
907.441	17980
907.557	17927
907.674	17847
907.79	17775
907.907	17836
908.023	17927
908.139	17908
908.256	17813
908.372	17703
908.488	17760
908.604	17482
908.72	17630
908.836	17672
908.952	17478
909.068	17627
909.184	17661
909.3	17573
909.415	17589
909.531	17558
909.647	17368
909.762	17296
909.878	17200
909.993	17334
910.108	17197
910.224	17318
910.339	17208
910.454	17048
910.57	17079
910.685	17029
910.8	17227
910.915	17166
911.03	17083
911.145	16862
911.259	16831
911.374	17022
911.489	16793
911.604	16645
911.718	16558
911.833	16634
911.947	16516
912.062	16455
912.176	16603
912.291	16634
912.405	16622
912.519	16782
912.633	16679
912.748	16645
912.862	16622
912.976	16489
913.09	16314
913.204	16379
913.318	16394
913.431	16470
913.545	16462
913.659	16470
913.772	16287
913.886	16207
914	16109
914.113	16181
914.226	16253
914.34	16242
914.453	16067
914.566	16147
914.68	15987
914.793	15994
914.906	15903
915.019	15838
915.132	15739
915.245	15793
915.358	15774
915.47	15736
915.583	15743
915.696	15812
915.809	15903
915.921	15823
916.034	15797
916.146	15694
916.259	15633
916.371	15766
916.483	15667
916.595	15629
916.708	15549
916.82	15606
916.932	15584
917.044	15549
917.156	15576
917.268	15382
917.38	15382
917.491	15359
917.603	15378
917.715	15431
917.826	15526
917.938	15344
918.049	15211
918.161	15317
918.272	15408
918.384	15462
918.495	15298
918.606	15119
918.717	15165
918.828	15135
918.939	15127
919.05	15039
919.161	15104
919.272	14823
919.383	14956
919.494	15203
919.604	15393
919.715	15161
919.826	15055
919.936	15112
920.047	15047
920.157	15108
920.267	15230
920.378	15123
920.488	15112
920.598	15268
920.708	15397
920.818	15203
920.928	15214
921.038	15420
921.148	15291
921.258	14994
921.368	14933
921.477	14872
921.587	14815
921.697	14693
921.806	14880
921.916	14659
922.025	14518
922.134	14476
922.244	14404
922.353	14545
922.462	14282
922.571	14214
922.68	14024
922.789	14046
922.898	14100
923.007	14081
923.116	14206
923.224	14016
923.333	14020
923.442	13951
923.55	13849
923.659	13970
923.767	14001
923.876	13925
923.984	13982
924.092	13780
924.201	13795
924.309	13837
924.417	13769
924.525	13681
924.633	13818
924.741	14564
924.849	13460
924.956	13636
925.064	13559
925.172	13354
925.279	13483
925.387	13529
925.494	13518
925.602	13567
925.709	13426
925.816	13354
925.924	13445
926.031	13533
926.138	13457
926.245	13358
926.352	13251
926.459	13415
926.566	13426
926.673	13331
926.779	13221
926.886	13213
926.993	13072
927.099	13008
927.206	12916
927.312	12913
927.419	13031
927.525	13076
927.631	13107
927.737	12913
927.843	12897
927.95	12711
928.056	12787
928.162	12757
928.267	12837
928.373	13335
928.479	12924
928.585	12677
928.69	12764
928.796	12852
928.901	12696
929.007	12627
929.112	12669
929.218	12669
929.323	12639
929.428	12509
929.533	12635
929.638	12479
929.743	12494
929.848	12585
929.953	12399
930.058	12388
930.163	12186
930.267	12281
930.372	12357
930.477	12144
930.581	12391
930.685	12213
930.79	12064
930.894	12155
930.998	12026
931.103	12171
931.207	11817
931.311	11786
931.415	11771
931.519	11471
931.623	11467
