Data from test_V78500241_3098.txt Node
Date: Fri Mar 25 16:03:15 CST 2022
User: usil
Spectrometer: V785-0024
Trigger mode: 0
Integration Time (sec): 4.000000E-1
Scans to average: 1
Nonlinearity correction enabled: false
Boxcar width: 0
Storing dark spectrum: false
XAxis mode: Wavelengths
Number of Pixels in Spectrum: 1024
>>>>>Begin Spectral Data<<<<<
801.071	28443
801.214	28413
801.356	28219
801.499	28169
801.641	28070
801.783	28116
801.926	28265
802.068	28040
802.211	27903
802.353	28051
802.496	27766
802.638	27781
802.78	27705
802.923	27720
803.065	27846
803.208	27644
803.35	27797
803.492	27911
803.635	27835
803.777	27694
803.919	27994
804.061	28394
804.204	28166
804.346	27953
804.488	27739
804.63	27956
804.773	27914
804.915	28090
805.057	28333
805.199	28010
805.341	28112
805.483	28185
805.626	28166
805.768	27975
805.91	28185
806.052	28234
806.194	28029
806.336	28169
806.478	28059
806.62	28067
806.762	28261
806.904	28432
807.046	28725
807.188	28577
807.33	28588
807.472	28687
807.614	28459
807.756	28516
807.898	28432
808.04	28238
808.182	28310
808.324	28459
808.465	28470
808.607	28527
808.749	28873
808.891	28930
809.033	28995
809.174	28797
809.316	28904
809.458	28672
809.6	28668
809.741	28976
809.883	28968
810.025	29075
810.166	29227
810.308	29166
810.45	29033
810.591	28885
810.733	28812
810.875	28843
811.016	28752
811.158	28740
811.299	28729
811.441	28930
811.582	28877
811.724	28835
811.865	28793
812.007	28733
812.148	28835
812.29	28835
812.431	28946
812.573	29022
812.714	29235
812.855	29414
812.997	29288
813.138	29436
813.279	29520
813.421	29277
813.562	29170
813.703	29117
813.845	28991
813.986	28698
814.127	28542
814.268	28523
814.41	28500
814.551	28618
814.692	28554
814.833	28516
814.974	28462
815.115	28485
815.256	28440
815.397	28443
815.539	28409
815.68	28246
815.821	28253
815.962	28329
816.103	28177
816.244	28154
816.385	28017
816.526	28059
816.666	27835
816.807	27846
816.948	28025
817.089	27865
817.23	27720
817.371	27850
817.512	27819
817.653	27869
817.793	27698
817.934	27785
818.075	27804
818.216	27964
818.356	27637
818.497	27625
818.638	27439
818.778	27530
818.919	27481
819.06	27519
819.2	27789
819.341	27800
819.481	27808
819.622	28093
819.762	28261
819.903	28048
820.043	27998
820.184	27922
820.324	27934
820.465	28025
820.605	27876
820.746	27911
820.886	27816
821.026	27960
821.167	27880
821.307	28010
821.447	27956
821.588	27739
821.728	27648
821.868	27511
822.008	27397
822.149	27214
822.289	27218
822.429	27055
822.569	26914
822.709	26925
822.849	26693
822.99	26819
823.13	26743
823.27	26826
823.41	26686
823.55	26530
823.69	26640
823.83	26625
823.97	26571
824.11	26526
824.25	26457
824.389	26457
824.529	26446
824.669	26381
824.809	26583
824.949	26583
825.089	26598
825.228	26503
825.368	26313
825.508	26290
825.648	26313
825.787	26343
825.927	26362
826.067	26393
826.206	26415
826.346	26541
826.485	26343
826.625	26408
826.765	26343
826.904	26499
827.044	26119
827.183	26225
827.323	25993
827.462	26183
827.601	25921
827.741	26081
827.88	26092
828.02	25913
828.159	26027
828.298	26218
828.437	26138
828.577	25974
828.716	26107
828.855	25966
828.994	25734
829.134	25719
829.273	25860
829.412	25700
829.551	25734
829.69	25746
829.829	25772
829.968	25818
830.107	25826
830.246	25746
830.385	25647
830.524	25791
830.663	25559
830.802	25449
830.941	25426
831.08	25430
831.219	25415
831.357	25422
831.496	25495
831.635	25362
831.774	25156
831.913	25217
832.051	25122
832.19	25198
832.329	25255
832.467	25091
832.606	25012
832.744	24977
832.883	25019
833.022	24977
833.16	24932
833.299	25031
833.437	24989
833.576	25061
833.714	25046
833.852	25228
833.991	25069
834.129	25122
834.267	25122
834.406	25091
834.544	25255
834.682	25072
834.821	25031
834.959	25304
835.097	25046
835.235	25107
835.373	25141
835.511	25141
835.65	24981
835.788	25015
835.926	24871
836.064	24711
836.202	24741
836.34	24905
836.478	25099
836.615	24958
836.753	24985
836.891	24954
837.029	25019
837.167	24829
837.305	24958
837.443	24711
837.58	24711
837.718	24760
837.856	24833
837.993	24719
838.131	24760
838.269	24555
838.406	24734
838.544	24460
838.681	24323
838.819	24251
838.956	24258
839.094	24300
839.231	24213
839.369	24285
839.506	24627
839.643	24494
839.781	24289
839.918	24045
840.055	24136
840.193	24144
840.33	24022
840.467	24072
840.604	24228
840.742	24433
840.879	24026
841.016	23950
841.153	23992
841.29	24342
841.427	24121
841.564	24152
841.701	24079
841.838	24110
841.975	23965
842.112	23904
842.249	24007
842.385	23893
842.522	24114
842.659	23954
842.796	23737
842.933	23874
843.069	23840
843.206	23908
843.343	24091
843.479	23786
843.616	23878
843.752	23619
843.889	23653
844.025	23748
844.162	23653
844.298	23771
844.435	23600
844.571	23638
844.708	23707
844.844	23885
844.98	23817
845.117	23745
845.253	23627
845.389	23414
845.525	23615
845.661	23505
845.798	23425
845.934	23379
846.07	23349
846.206	23326
846.342	23467
846.478	23360
846.614	23193
846.75	23098
846.886	23079
847.022	23239
847.158	23250
847.294	23064
847.429	23102
847.565	23121
847.701	23349
847.837	22850
847.972	22828
848.108	22927
848.244	22953
848.379	22706
848.515	22706
848.65	22691
848.786	22630
848.921	22782
849.057	22744
849.192	22771
849.328	22752
849.463	22736
849.598	22588
849.734	22565
849.869	22565
850.004	22432
850.14	22538
850.275	22516
850.41	22337
850.545	22333
850.68	22561
850.815	22390
850.95	22386
851.085	22660
851.22	22565
851.355	22436
851.49	22459
851.625	22386
851.76	22333
851.895	22341
852.03	22455
852.165	22542
852.299	22580
852.434	22535
852.569	22535
852.703	22554
852.838	22485
852.973	22656
853.107	22546
853.242	22459
853.376	22226
853.511	22223
853.645	22276
853.78	22409
853.914	22276
854.048	22242
854.183	22276
854.317	22382
854.451	22451
854.585	22325
854.72	22329
854.854	22382
854.988	22246
855.122	22287
855.256	22169
855.39	22261
855.524	22329
855.658	22329
855.792	22348
855.926	22428
856.06	22360
856.194	22306
856.327	22348
856.461	22329
856.595	22211
856.729	22356
856.862	22519
856.996	22371
857.13	22341
857.263	22341
857.397	22299
857.53	22379
857.664	22318
857.797	22276
857.931	22360
858.064	22318
858.197	22470
858.331	22238
858.464	22238
858.597	22143
858.731	22226
858.864	22257
858.997	22261
859.13	22204
859.263	22303
859.396	22356
859.529	22211
859.662	22322
859.795	22192
859.928	22246
860.061	22417
860.194	22523
860.327	22348
860.46	22409
860.592	22428
860.725	22478
860.858	22493
860.99	22344
861.123	22226
861.256	22276
861.388	22295
861.521	22968
861.653	22154
861.786	22029
861.918	22112
862.05	22166
862.183	22284
862.315	22280
862.447	22337
862.58	22200
862.712	22150
862.844	21930
862.976	22029
863.108	22040
863.24	22344
863.372	21960
863.504	22036
863.636	22021
863.768	22010
863.9	22078
864.032	21937
864.164	21949
864.296	22036
864.428	22139
864.559	22067
864.691	21987
864.823	21979
864.954	21979
865.086	21960
865.217	21903
865.349	21895
865.48	21926
865.612	21949
865.743	21991
865.875	21956
866.006	21903
866.137	21911
866.269	21827
866.4	21930
866.531	21873
866.662	21728
866.793	21903
866.924	21888
867.055	21922
867.186	21793
867.317	21892
867.448	21770
867.579	21675
867.71	21679
867.841	21709
867.972	21739
868.103	21762
868.233	21804
868.364	21911
868.495	21937
868.625	21911
868.756	22188
868.886	22051
869.017	21960
869.147	22253
869.278	22185
869.408	22063
869.539	22067
869.669	22147
869.799	22192
869.929	22185
870.06	22131
870.19	22226
870.32	22249
870.45	22527
870.58	22462
870.71	22443
870.84	22599
870.97	22428
871.1	22459
871.23	22744
871.36	22725
871.489	22538
871.619	22546
871.749	22660
871.879	22774
872.008	22889
872.138	22573
872.267	22752
872.397	22637
872.526	22519
872.656	22519
872.785	22493
872.915	22694
873.044	22771
873.173	22557
873.303	22645
873.432	22797
873.561	22809
873.69	22778
873.819	22611
873.948	22645
874.077	22702
874.206	22588
874.335	22717
874.464	22786
874.593	22805
874.722	22889
874.851	22968
874.979	22999
875.108	23052
875.237	22824
875.365	22733
875.494	22805
875.623	22885
875.751	22908
875.88	22919
876.008	23079
876.136	23075
876.265	23284
876.393	23429
876.521	23349
876.65	23364
876.778	23212
876.906	23239
877.034	23277
877.162	23292
877.29	23174
877.418	23273
877.546	23170
877.674	23265
877.802	23246
877.93	23193
878.058	23273
878.185	23083
878.313	23132
878.441	23364
878.568	23098
878.696	23162
878.824	23398
878.951	23345
879.079	23349
879.206	23425
879.333	23368
879.461	23143
879.588	23273
879.715	23318
879.842	23463
879.97	23208
880.097	23075
880.224	22984
880.351	23170
880.478	23105
880.605	23014
880.732	23121
880.859	23322
880.986	23159
881.112	23090
881.239	22839
881.366	22892
881.493	22805
881.619	22554
881.746	22713
881.872	22683
881.999	22592
882.125	22447
882.252	22660
882.378	22497
882.505	22698
882.631	22474
882.757	22295
882.883	22432
883.01	22455
883.136	22329
883.262	22242
883.388	22093
883.514	22268
883.64	22314
883.766	22253
883.892	22051
884.018	22139
884.143	22105
884.269	22249
884.395	22032
884.52	21880
884.646	22021
884.772	21827
884.897	21812
885.023	21930
885.148	22059
885.274	22105
885.399	21994
885.524	21949
885.65	21972
885.775	21857
885.9	21937
886.025	22048
886.15	22021
886.275	21850
886.4	21880
886.525	21850
886.65	21736
886.775	21899
886.9	22044
887.025	22139
887.149	21800
887.274	21694
887.399	21614
887.523	21603
887.648	21641
887.773	21686
887.897	21713
888.021	21823
888.146	21572
888.27	21850
888.395	21736
888.519	21816
888.643	21652
888.767	21739
888.891	21686
889.015	21511
889.139	21473
889.263	21424
889.387	21603
889.511	21656
889.635	21606
889.759	21519
889.883	21496
890.006	21553
890.13	21538
890.254	21382
890.377	21454
890.501	21230
890.624	21184
890.748	21165
890.871	21119
890.995	20982
891.118	20971
891.241	21138
891.364	21047
891.488	21207
891.611	21055
891.734	21039
891.857	21024
891.98	21074
892.103	20979
892.226	21005
892.349	20960
892.471	20800
892.594	20861
892.717	21043
892.839	20921
892.962	20979
893.085	20982
893.207	20982
893.33	20906
893.452	20887
893.575	20883
893.697	20944
893.819	21142
893.941	21096
894.064	21077
894.186	20895
894.308	20826
894.43	20998
894.552	21135
894.674	21104
894.796	20910
894.918	20906
895.04	20906
895.161	20918
895.283	21028
895.405	20952
895.526	20914
895.648	20948
895.769	20929
895.891	20937
896.012	21043
896.134	20937
896.255	20857
896.376	20811
896.498	20914
896.619	20876
896.74	20971
896.861	20880
896.982	21279
897.103	21382
897.224	21176
897.345	21157
897.466	21123
897.587	21123
897.708	21283
897.828	21127
897.949	21077
898.07	20910
898.19	20982
898.311	21093
898.431	21108
898.552	21055
898.672	21138
898.792	21226
898.913	21154
899.033	20994
899.153	20872
899.273	20845
899.393	20785
899.513	20861
899.633	20834
899.753	20941
899.873	20625
899.993	20963
900.113	20762
900.232	20823
900.352	20754
900.472	20746
900.591	20545
900.711	20636
900.83	20492
900.95	20697
901.069	20655
901.189	20514
901.308	20180
901.427	20084
901.546	20111
901.665	20161
901.784	20119
901.904	20001
902.023	19940
902.141	19635
902.26	19655
902.379	19822
902.498	19655
902.617	19632
902.735	19681
902.854	19708
902.973	19635
903.091	19331
903.21	19285
903.328	19278
903.446	19263
903.565	19152
903.683	19069
903.801	19057
903.919	19110
904.038	19107
904.156	18924
904.274	19015
904.392	18852
904.51	18875
904.627	18947
904.745	18886
904.863	18859
904.981	18650
905.098	18673
905.216	18669
905.334	18559
905.451	18593
905.569	18570
905.686	18616
905.803	18570
905.921	18327
906.038	18437
906.155	18388
906.272	18273
906.389	18277
906.506	18117
906.623	18144
906.74	18140
906.857	17927
906.974	17901
907.091	18110
907.208	18197
907.324	18155
907.441	18102
907.557	17767
907.674	17874
907.79	17798
907.907	17775
908.023	17790
908.139	17783
908.256	17779
908.372	17661
908.488	17718
908.604	17687
908.72	17482
908.836	17535
908.952	17566
909.068	17615
909.184	17634
909.3	17551
909.415	17615
909.531	17482
909.647	17292
909.762	17200
909.878	17250
909.993	17254
910.108	17231
910.224	17265
910.339	17117
910.454	17003
910.57	17174
910.685	16953
910.8	17208
910.915	17151
911.03	17025
911.145	16805
911.259	16816
911.374	16725
911.489	16729
911.604	16691
911.718	16500
911.833	16565
911.947	16440
912.062	16443
912.176	16577
912.291	16478
912.405	16683
912.519	16706
912.633	16759
912.748	16603
912.862	16409
912.976	16295
913.09	16253
913.204	16306
913.318	16318
913.431	16428
913.545	16432
913.659	16569
913.772	16371
913.886	16135
914	16101
914.113	16257
914.226	16284
914.34	16265
914.453	16109
914.566	16120
914.68	16078
914.793	16021
914.906	15831
915.019	15732
915.132	15652
915.245	15720
915.358	15838
915.47	15652
915.583	15732
915.696	15682
915.809	15781
915.921	15835
916.034	15739
916.146	15720
916.259	15751
916.371	15766
916.483	15675
916.595	15519
916.708	15511
916.82	15504
916.932	15469
917.044	15584
917.156	15462
917.268	15329
917.38	15386
917.491	15378
917.603	15473
917.715	15428
917.826	15439
917.938	15329
918.049	15116
918.161	15302
918.272	15469
918.384	15264
918.495	15260
918.606	15184
918.717	15112
918.828	15203
918.939	15176
919.05	15009
919.161	15081
919.272	14902
919.383	14967
919.494	15150
919.604	15268
919.715	14990
919.826	14994
919.936	15017
920.047	15150
920.157	15085
920.267	15268
920.378	14998
920.488	14975
920.598	15165
920.708	15329
920.818	15081
920.928	15135
921.038	15348
921.148	15154
921.258	14975
921.368	14918
921.477	14792
921.587	14785
921.697	14579
921.806	14838
921.916	14727
922.025	14514
922.134	14454
922.244	14290
922.353	14484
922.462	14324
922.571	14214
922.68	14126
922.789	14084
922.898	14073
923.007	13967
923.116	14123
923.224	14008
923.333	13967
923.442	13970
923.55	13856
923.659	13917
923.767	14012
923.876	13849
923.984	13955
924.092	13814
924.201	13799
924.309	13818
924.417	13757
924.525	13776
924.633	13696
924.741	14450
924.849	13521
924.956	13594
925.064	13552
925.172	13449
925.279	13453
925.387	13483
925.494	13457
925.602	13662
925.709	13396
925.816	13365
925.924	13369
926.031	13495
926.138	13400
926.245	13495
926.352	13270
926.459	13445
926.566	13392
926.673	13285
926.779	13183
926.886	13145
926.993	13042
927.099	13080
927.206	12886
927.312	12932
927.419	13069
927.525	12970
927.631	12993
927.737	12920
927.843	12890
927.95	12703
928.056	12760
928.162	12787
928.267	12882
928.373	13434
928.479	12913
928.585	12620
928.69	12745
928.796	12764
928.901	12646
929.007	12483
929.112	12646
929.218	12688
929.323	12612
929.428	12486
929.533	12665
929.638	12452
929.743	12426
929.848	12502
929.953	12502
930.058	12391
930.163	12243
930.267	12129
930.372	12330
930.477	12171
930.581	12456
930.685	12247
930.79	12057
930.894	12182
930.998	12072
931.103	12136
931.207	11859
931.311	11745
931.415	11608
931.519	11452
931.623	11440
