Data from test_V78500241_1700.txt Node
Date: Fri Mar 25 15:53:34 CST 2022
User: usil
Spectrometer: V785-0024
Trigger mode: 0
Integration Time (sec): 4.000000E-1
Scans to average: 1
Nonlinearity correction enabled: false
Boxcar width: 0
Storing dark spectrum: false
XAxis mode: Wavelengths
Number of Pixels in Spectrum: 1024
>>>>>Begin Spectral Data<<<<<
801.071	28162
801.214	28143
801.356	27964
801.499	27865
801.641	27736
801.783	27633
801.926	27812
802.068	27656
802.211	27568
802.353	27488
802.496	27420
802.638	27287
802.78	27412
802.923	27302
803.065	27173
803.208	27241
803.35	27332
803.492	27393
803.635	27424
803.777	27401
803.919	27473
804.061	27762
804.204	27511
804.346	27507
804.488	27481
804.63	27561
804.773	27447
804.915	27500
805.057	27587
805.199	27450
805.341	27675
805.483	27728
805.626	27713
805.768	27644
805.91	27603
806.052	27576
806.194	27610
806.336	27850
806.478	27781
806.62	27667
806.762	27797
806.904	27949
807.046	28207
807.188	28158
807.33	27895
807.472	28211
807.614	28048
807.756	28040
807.898	27994
808.04	27922
808.182	28051
808.324	27994
808.465	28086
808.607	28280
808.749	28478
808.891	28573
809.033	28542
809.174	28451
809.316	28249
809.458	28265
809.6	28169
809.741	28462
809.883	28451
810.025	28755
810.166	28527
810.308	28584
810.45	28542
810.591	28596
810.733	28440
810.875	28272
811.016	28131
811.158	28238
811.299	28527
811.441	28550
811.582	28565
811.724	28455
811.865	28421
812.007	28356
812.148	28432
812.29	28428
812.431	28603
812.573	28565
812.714	28771
812.855	28938
812.997	28957
813.138	29071
813.279	29037
813.421	28892
813.562	28896
813.703	28656
813.845	28645
813.986	28436
814.127	28192
814.268	27960
814.41	28051
814.551	28010
814.692	28147
814.833	28025
814.974	28059
815.115	28112
815.256	27892
815.397	27937
815.539	27934
815.68	27732
815.821	27846
815.962	27823
816.103	27838
816.244	27762
816.385	27766
816.526	27675
816.666	27351
816.807	27382
816.948	27485
817.089	27534
817.23	27424
817.371	27397
817.512	27367
817.653	27424
817.793	27302
817.934	27389
818.075	27359
818.216	27397
818.356	27370
818.497	27218
818.638	27017
818.778	26960
818.919	26998
819.06	27104
819.2	27142
819.341	27287
819.481	27416
819.622	27587
819.762	27614
819.903	27481
820.043	27477
820.184	27603
820.324	27507
820.465	27496
820.605	27534
820.746	27336
820.886	27325
821.026	27336
821.167	27469
821.307	27469
821.447	27367
821.588	27283
821.728	27127
821.868	26918
822.008	26845
822.149	26758
822.289	26716
822.429	26552
822.569	26602
822.709	26446
822.849	26309
822.99	26263
823.13	26320
823.27	26187
823.41	26221
823.55	26024
823.69	26134
823.83	26126
823.97	25993
824.11	25898
824.25	25921
824.389	25898
824.529	25986
824.669	25959
824.809	26180
824.949	26084
825.089	25993
825.228	26039
825.368	25788
825.508	25879
825.648	25734
825.787	26035
825.927	25978
826.067	25791
826.206	25734
826.346	25837
826.485	25921
826.625	25845
826.765	25871
826.904	25902
827.044	25715
827.183	25548
827.323	25445
827.462	25521
827.601	25540
827.741	25381
827.88	25521
828.02	25441
828.159	25502
828.298	25674
828.437	25708
828.577	25438
828.716	25563
828.855	25422
828.994	25122
829.134	25304
829.273	25324
829.412	25251
829.551	25263
829.69	25213
829.829	25282
829.968	25266
830.107	25320
830.246	25274
830.385	25217
830.524	25027
830.663	25015
830.802	24973
830.941	24920
831.08	24829
831.219	24992
831.357	24825
831.496	25099
831.635	24795
831.774	24882
831.913	24734
832.051	24646
832.19	24578
832.329	24570
832.467	24464
832.606	24486
832.744	24536
832.883	24304
833.022	24460
833.16	24544
833.299	24509
833.437	24566
833.576	24578
833.714	24616
833.852	24540
833.991	24570
834.129	24684
834.267	24616
834.406	24593
834.544	24460
834.682	24555
834.821	24597
834.959	24776
835.097	24456
835.235	24650
835.373	24494
835.511	24536
835.65	24460
835.788	24350
835.926	24174
836.064	24205
836.202	24266
836.34	24407
836.478	24456
836.615	24407
836.753	24433
836.891	24414
837.029	24380
837.167	24266
837.305	24243
837.443	24300
837.58	24285
837.718	24296
837.856	24262
837.993	24060
838.131	24125
838.269	24060
838.406	24186
838.544	23893
838.681	23851
838.819	23859
838.956	23752
839.094	23615
839.231	23767
839.369	23859
839.506	24049
839.643	24018
839.781	23657
839.918	23516
840.055	23722
840.193	23661
840.33	23543
840.467	23562
840.604	23661
840.742	23882
840.879	23471
841.016	23509
841.153	23474
841.29	23668
841.427	23558
841.564	23619
841.701	23627
841.838	23657
841.975	23471
842.112	23486
842.249	23311
842.385	23376
842.522	23619
842.659	23497
842.796	23307
842.933	23493
843.069	23356
843.206	23235
843.343	23341
843.479	23406
843.616	23296
843.752	23178
843.889	23174
844.025	23307
844.162	23132
844.298	23166
844.435	23086
844.571	23124
844.708	23075
844.844	23189
844.98	23277
845.117	23166
845.253	23098
845.389	23037
845.525	22927
845.661	22965
845.798	22873
845.934	22938
846.07	22847
846.206	22866
846.342	22915
846.478	22786
846.614	22626
846.75	22561
846.886	22649
847.022	22721
847.158	22664
847.294	22592
847.429	22611
847.565	22497
847.701	22881
847.837	22181
847.972	22284
848.108	22390
848.244	22348
848.379	22280
848.515	22200
848.65	22173
848.786	22143
848.921	22101
849.057	22253
849.192	22306
849.328	22162
849.463	22200
849.598	22116
849.734	22143
849.869	21934
850.004	22002
850.14	21994
850.275	21911
850.41	21964
850.545	21774
850.68	21812
850.815	21854
850.95	22002
851.085	22162
851.22	22086
851.355	21956
851.49	22067
851.625	21865
851.76	21945
851.895	21869
852.03	21823
852.165	21797
852.299	22010
852.434	21892
852.569	21975
852.703	21907
852.838	21975
852.973	22105
853.107	22032
853.242	21876
853.376	21869
853.511	21720
853.645	21747
853.78	21850
853.914	21766
854.048	21580
854.183	21713
854.317	21713
854.451	21895
854.585	21854
854.72	21808
854.854	21892
854.988	21526
855.122	21781
855.256	21637
855.39	21652
855.524	21857
855.658	21926
855.792	21846
855.926	21797
856.06	21759
856.194	21781
856.327	21701
856.461	21679
856.595	21762
856.729	21812
856.862	21941
856.996	21823
857.13	21774
857.263	21926
857.397	21831
857.53	21766
857.664	21785
857.797	21880
857.931	21930
858.064	21789
858.197	21903
858.331	21785
858.464	21686
858.597	21648
858.731	21679
858.864	21739
858.997	21686
859.13	21785
859.263	21743
859.396	21899
859.529	21667
859.662	21622
859.795	21869
859.928	21625
860.061	21854
860.194	21964
860.327	21846
860.46	21857
860.592	21895
860.725	21930
860.858	21873
860.99	21751
861.123	21739
861.256	21751
861.388	21789
861.521	22436
861.653	21625
861.786	21538
861.918	21591
862.05	21686
862.183	21728
862.315	21610
862.447	21926
862.58	21690
862.712	21526
862.844	21363
862.976	21629
863.108	21641
863.24	22067
863.372	21424
863.504	21500
863.636	21492
863.768	21557
863.9	21428
864.032	21405
864.164	21416
864.296	21405
864.428	21606
864.559	21576
864.691	21557
864.823	21542
864.954	21500
865.086	21397
865.217	21450
865.349	21336
865.48	21351
865.612	21443
865.743	21450
865.875	21408
866.006	21291
866.137	21397
866.269	21294
866.4	21332
866.531	21344
866.662	21218
866.793	21340
866.924	21306
867.055	21367
867.186	21321
867.317	21355
867.448	21180
867.579	21237
867.71	21329
867.841	21157
867.972	21233
868.103	21230
868.233	21226
868.364	21287
868.495	21302
868.625	21473
868.756	21720
868.886	21477
869.017	21580
869.147	21572
869.278	21614
869.408	21580
869.539	21637
869.669	21523
869.799	21625
869.929	21644
870.06	21637
870.19	21869
870.32	21755
870.45	21937
870.58	21964
870.71	22017
870.84	21956
870.97	21922
871.1	21915
871.23	22048
871.36	22093
871.489	21949
871.619	22109
871.749	22078
871.879	22192
872.008	22226
872.138	22097
872.267	22261
872.397	22120
872.526	22063
872.656	22006
872.785	21960
872.915	22116
873.044	22280
873.173	22128
873.303	22257
873.432	22173
873.561	22306
873.69	22147
873.819	22074
873.948	22215
874.077	22192
874.206	22086
874.335	22048
874.464	22257
874.593	22417
874.722	22382
874.851	22451
874.979	22409
875.108	22504
875.237	22310
875.365	22253
875.494	22329
875.623	22459
875.751	22261
875.88	22280
876.008	22497
876.136	22607
876.265	22698
876.393	22755
876.521	22752
876.65	22816
876.778	22748
876.906	22729
877.034	22717
877.162	22733
877.29	22675
877.418	22702
877.546	22702
877.674	22656
877.802	22763
877.93	22763
878.058	22672
878.185	22580
878.313	22782
878.441	22755
878.568	22569
878.696	22519
878.824	22740
878.951	22755
879.079	22839
879.206	22991
879.333	22930
879.461	22691
879.588	22862
879.715	23098
879.842	23006
879.97	22809
880.097	22592
880.224	22577
880.351	22592
880.478	22622
880.605	22504
880.732	22584
880.859	22763
880.986	22569
881.112	22542
881.239	22424
881.366	22295
881.493	22207
881.619	22131
881.746	22162
881.872	22147
881.999	22128
882.125	22120
882.252	22196
882.378	21998
882.505	22181
882.631	22074
882.757	21728
882.883	21930
883.01	21846
883.136	21816
883.262	21667
883.388	21629
883.514	21804
883.64	21736
883.766	21743
883.892	21629
884.018	21660
884.143	21675
884.269	21823
884.395	21530
884.52	21458
884.646	21477
884.772	21507
884.897	21416
885.023	21492
885.148	21473
885.274	21538
885.399	21564
885.524	21416
885.65	21416
885.775	21420
885.9	21283
886.025	21477
886.15	21439
886.275	21393
886.4	21260
886.525	21469
886.65	21272
886.775	21351
886.9	21507
887.025	21682
887.149	21428
887.274	21249
887.399	21237
887.523	21192
887.648	21131
887.773	21169
887.897	21237
888.021	21195
888.146	21112
888.27	21199
888.395	21359
888.519	21272
888.643	21291
888.767	21176
888.891	21058
889.015	21047
889.139	21024
889.263	20956
889.387	21051
889.511	21165
889.635	21279
889.759	21036
889.883	20929
890.006	21043
890.13	21047
890.254	20929
890.377	20956
890.501	20925
890.624	20644
890.748	20861
890.871	20708
890.995	20465
891.118	20537
891.241	20541
891.364	20682
891.488	20727
891.611	20511
891.734	20659
891.857	20655
891.98	20640
892.103	20712
892.226	20495
892.349	20476
892.471	20377
892.594	20492
892.717	20549
892.839	20366
892.962	20431
893.085	20511
893.207	20469
893.33	20355
893.452	20370
893.575	20526
893.697	20446
893.819	20705
893.941	20686
894.064	20659
894.186	20362
894.308	20301
894.43	20454
894.552	20716
894.674	20514
894.796	20362
894.918	20415
895.04	20454
895.161	20514
895.283	20537
895.405	20469
895.526	20438
895.648	20450
895.769	20484
895.891	20514
896.012	20476
896.134	20568
896.255	20575
896.376	20377
896.498	20450
896.619	20351
896.74	20408
896.861	20499
896.982	20796
897.103	20910
897.224	20651
897.345	20689
897.466	20648
897.587	20590
897.708	20712
897.828	20720
897.949	20526
898.07	20613
898.19	20587
898.311	20716
898.431	20617
898.552	20701
898.672	20727
898.792	20883
898.913	20621
899.033	20469
899.153	20400
899.273	20263
899.393	20408
899.513	20393
899.633	20320
899.753	20408
899.873	20336
899.993	20522
900.113	20495
900.232	20381
900.352	20362
900.472	20214
900.591	20111
900.711	20233
900.83	20225
900.95	20313
901.069	20278
901.189	20180
901.308	19940
901.427	19837
901.546	19788
901.665	19594
901.784	19845
901.904	19655
902.023	19453
902.141	19320
902.26	19221
902.379	19354
902.498	19278
902.617	19179
902.735	19354
902.854	19221
902.973	19133
903.091	18962
903.21	19046
903.328	18989
903.446	18844
903.565	18734
903.683	18779
903.801	18601
903.919	18688
904.038	18700
904.156	18513
904.274	18665
904.392	18563
904.51	18654
904.627	18544
904.745	18566
904.863	18566
904.981	18338
905.098	18110
905.216	18285
905.334	18163
905.451	18197
905.569	18155
905.686	18232
905.803	18292
905.921	17901
906.038	18053
906.155	17996
906.272	17794
906.389	17855
906.506	17718
906.623	17805
906.74	17756
906.857	17615
906.974	17573
907.091	17748
907.208	17863
907.324	17802
907.441	17596
907.557	17459
907.674	17520
907.79	17353
907.907	17433
908.023	17391
908.139	17482
908.256	17303
908.372	17311
908.488	17296
908.604	17117
908.72	17124
908.836	17159
908.952	17071
909.068	17098
909.184	17269
909.3	17136
909.415	17121
909.531	17109
909.647	16976
909.762	16847
909.878	16835
909.993	16908
910.108	16698
910.224	16805
910.339	16729
910.454	16736
910.57	16664
910.685	16512
910.8	16904
910.915	16797
911.03	16592
911.145	16447
911.259	16470
911.374	16466
911.489	16329
911.604	16215
911.718	16173
911.833	16219
911.947	16002
912.062	16078
912.176	16150
912.291	16147
912.405	16295
912.519	16299
912.633	16306
912.748	16154
912.862	16192
912.976	16025
913.09	15888
913.204	15884
913.318	16109
913.431	16082
913.545	16097
913.659	16131
913.772	15987
913.886	15964
914	15778
914.113	15808
914.226	16002
914.34	15899
914.453	15641
914.566	15949
914.68	15686
914.793	15584
914.906	15447
915.019	15291
915.132	15393
915.245	15348
915.358	15393
915.47	15439
915.583	15355
915.696	15351
915.809	15473
915.921	15549
916.034	15344
916.146	15302
916.259	15313
916.371	15313
916.483	15272
916.595	15188
916.708	15218
916.82	15138
916.932	15287
917.044	15104
917.156	15138
917.268	15074
917.38	15013
917.491	14971
917.603	15055
917.715	15085
917.826	15036
917.938	15005
918.049	14883
918.161	14971
918.272	15020
918.384	15058
918.495	14925
918.606	14746
918.717	14758
918.828	14765
918.939	14845
919.05	14651
919.161	14667
919.272	14514
919.383	14575
919.494	14834
919.604	14887
919.715	14849
919.826	14621
919.936	14689
920.047	14807
920.157	14739
920.267	14967
920.378	14743
920.488	14651
920.598	14880
920.708	15047
920.818	14872
920.928	14823
921.038	15077
921.148	14933
921.258	14678
921.368	14617
921.477	14461
921.587	14537
921.697	14381
921.806	14450
921.916	14351
922.025	14164
922.134	14115
922.244	14123
922.353	14191
922.462	14069
922.571	13906
922.68	13753
922.789	13795
922.898	13833
923.007	13636
923.116	13738
923.224	13769
923.333	13700
923.442	13628
923.55	13502
923.659	13632
923.767	13605
923.876	13552
923.984	13620
924.092	13476
924.201	13491
924.309	13521
924.417	13575
924.525	13449
924.633	13464
924.741	14202
924.849	13228
924.956	13327
925.064	13133
925.172	13118
925.279	13156
925.387	13187
925.494	13160
925.602	13221
925.709	13179
925.816	13008
925.924	13137
926.031	13202
926.138	13076
926.245	13095
926.352	12935
926.459	13122
926.566	13160
926.673	12993
926.779	12939
926.886	12924
926.993	12859
927.099	12738
927.206	12658
927.312	12601
927.419	12707
927.525	12711
927.631	12669
927.737	12612
927.843	12620
927.95	12544
928.056	12559
928.162	12559
928.267	12597
928.373	13187
928.479	12574
928.585	12395
928.69	12532
928.796	12608
928.901	12357
929.007	12220
929.112	12380
929.218	12376
929.323	12311
929.428	12258
929.533	12342
929.638	12133
929.743	12224
929.848	12277
929.953	12235
930.058	12095
930.163	11973
930.267	11980
930.372	11973
930.477	11843
930.581	12098
930.685	11904
930.79	11870
930.894	11851
930.998	11817
931.103	11931
931.207	11604
931.311	11471
931.415	11414
931.519	11239
931.623	11201
