Data from test_V78500241_1911.txt Node
Date: Fri Mar 25 15:55:02 CST 2022
User: usil
Spectrometer: V785-0024
Trigger mode: 0
Integration Time (sec): 4.000000E-1
Scans to average: 1
Nonlinearity correction enabled: false
Boxcar width: 0
Storing dark spectrum: false
XAxis mode: Wavelengths
Number of Pixels in Spectrum: 1024
>>>>>Begin Spectral Data<<<<<
801.071	28763
801.214	28759
801.356	28462
801.499	28363
801.641	28398
801.783	28261
801.926	28333
802.068	28329
802.211	28276
802.353	28188
802.496	28128
802.638	28124
802.78	28051
802.923	27774
803.065	27949
803.208	27926
803.35	27953
803.492	28128
803.635	28253
803.777	28070
803.919	28265
804.061	28375
804.204	28272
804.346	28169
804.488	28070
804.63	28173
804.773	28112
804.915	28363
805.057	28242
805.199	28306
805.341	28466
805.483	28417
805.626	28367
805.768	28360
805.91	28443
806.052	28371
806.194	28337
806.336	28527
806.478	28318
806.62	28432
806.762	28504
806.904	28687
807.046	28953
807.188	28831
807.33	28748
807.472	28946
807.614	28721
807.756	28949
807.898	28698
808.04	28809
808.182	28573
808.324	28702
808.465	28683
808.607	28866
808.749	29162
808.891	29083
809.033	29261
809.174	29170
809.316	28980
809.458	29147
809.6	29067
809.741	29246
809.883	29326
810.025	29349
810.166	29277
810.308	29463
810.45	29410
810.591	29254
810.733	29121
810.875	29090
811.016	29083
811.158	28987
811.299	29250
811.441	29296
811.582	29292
811.724	29185
811.865	29071
812.007	29121
812.148	29174
812.29	29220
812.431	29311
812.573	29573
812.714	29531
812.855	29566
812.997	29707
813.138	29855
813.279	29790
813.421	29714
813.562	29585
813.703	29486
813.845	29353
813.986	29033
814.127	28976
814.268	28831
814.41	28911
814.551	28759
814.692	28866
814.833	28816
814.974	28774
815.115	28763
815.256	28535
815.397	28729
815.539	28679
815.68	28580
815.821	28615
815.962	28668
816.103	28755
816.244	28493
816.385	28375
816.526	28493
816.666	28257
816.807	28196
816.948	28128
817.089	28169
817.23	28276
817.371	28143
817.512	28188
817.653	28150
817.793	28124
817.934	28128
818.075	28093
818.216	28120
818.356	28093
818.497	27907
818.638	27918
818.778	27835
818.919	27956
819.06	27994
819.2	28032
819.341	28105
819.481	28154
819.622	28211
819.762	28386
819.903	28356
820.043	28318
820.184	28272
820.324	28173
820.465	28405
820.605	28276
820.746	28162
820.886	28128
821.026	28436
821.167	28238
821.307	28268
821.447	28124
821.588	28010
821.728	27972
821.868	27812
822.008	27622
822.149	27709
822.289	27576
822.429	27420
822.569	27336
822.709	27230
822.849	27157
822.99	27275
823.13	27116
823.27	27062
823.41	26880
823.55	26914
823.69	26975
823.83	26918
823.97	26895
824.11	26769
824.25	26769
824.389	26667
824.529	26895
824.669	26689
824.809	26929
824.949	26834
825.089	26975
825.228	26902
825.368	26564
825.508	26484
825.648	26754
825.787	26625
825.927	26674
826.067	26720
826.206	26811
826.346	26811
826.485	26773
826.625	26686
826.765	26731
826.904	26640
827.044	26343
827.183	26473
827.323	26370
827.462	26374
827.601	26389
827.741	26366
827.88	26438
828.02	26347
828.159	26366
828.298	26431
828.437	26301
828.577	26278
828.716	26568
828.855	26374
828.994	26046
829.134	25970
829.273	26062
829.412	26164
829.551	25928
829.69	26130
829.829	26035
829.968	26149
830.107	26267
830.246	26050
830.385	26005
830.524	25982
830.663	25959
830.802	25826
830.941	25632
831.08	25632
831.219	25685
831.357	25712
831.496	25932
831.635	25628
831.774	25590
831.913	25537
832.051	25483
832.19	25403
832.329	25540
832.467	25183
832.606	25339
832.744	25263
832.883	25221
833.022	25388
833.16	25308
833.299	25278
833.437	25388
833.576	25293
833.714	25499
833.852	25533
833.991	25396
834.129	25449
834.267	25529
834.406	25426
834.544	25392
834.682	25419
834.821	25350
834.959	25495
835.097	25331
835.235	25377
835.373	25407
835.511	25381
835.65	25316
835.788	25221
835.926	25091
836.064	25057
836.202	25008
836.34	25129
836.478	25160
836.615	25156
836.753	25282
836.891	25327
837.029	25171
837.167	25034
837.305	25164
837.443	25080
837.58	25076
837.718	25156
837.856	25057
837.993	24905
838.131	25065
838.269	24882
838.406	24871
838.544	24856
838.681	24715
838.819	24536
838.956	24532
839.094	24566
839.231	24597
839.369	24703
839.506	24905
839.643	24658
839.781	24593
839.918	24426
840.055	24490
840.193	24414
840.33	24403
840.467	24532
840.604	24445
840.742	24741
840.879	24254
841.016	24410
841.153	24327
841.29	24597
841.427	24445
841.564	24441
841.701	24361
841.838	24273
841.975	24258
842.112	24372
842.249	24372
842.385	24258
842.522	24338
842.659	24350
842.796	24247
842.933	24258
843.069	24144
843.206	24030
843.343	24308
843.479	24129
843.616	24235
843.752	24087
843.889	23859
844.025	24144
844.162	23931
844.298	24110
844.435	23885
844.571	23950
844.708	23954
844.844	24049
844.98	24083
845.117	24022
845.253	23950
845.389	23889
845.525	23840
845.661	23935
845.798	23764
845.934	23729
846.07	23710
846.206	23726
846.342	23817
846.478	23566
846.614	23505
846.75	23303
846.886	23379
847.022	23520
847.158	23353
847.294	23436
847.429	23562
847.565	23299
847.701	23649
847.837	23216
847.972	23041
848.108	23208
848.244	23155
848.379	23155
848.515	22999
848.65	23018
848.786	22942
848.921	22892
849.057	23235
849.192	23075
849.328	22854
849.463	22942
849.598	22908
849.734	22908
849.869	22915
850.004	22733
850.14	22717
850.275	22771
850.41	22736
850.545	22717
850.68	22637
850.815	22740
850.95	22736
851.085	22946
851.22	22869
851.355	22816
851.49	22786
851.625	22771
851.76	22672
851.895	22740
852.03	22580
852.165	22744
852.299	22774
852.434	22968
852.569	22668
852.703	22839
852.838	22744
852.973	22839
853.107	22778
853.242	22698
853.376	22470
853.511	22402
853.645	22596
853.78	22675
853.914	22634
854.048	22485
854.183	22485
854.317	22615
854.451	22740
854.585	22557
854.72	22584
854.854	22729
854.988	22542
855.122	22557
855.256	22508
855.39	22421
855.524	22618
855.658	22546
855.792	22634
855.926	22637
856.06	22698
856.194	22637
856.327	22535
856.461	22497
856.595	22485
856.729	22516
856.862	22687
856.996	22451
857.13	22653
857.263	22554
857.397	22744
857.53	22645
857.664	22607
857.797	22748
857.931	22618
858.064	22538
858.197	22683
858.331	22459
858.464	22466
858.597	22440
858.731	22519
858.864	22470
858.997	22588
859.13	22538
859.263	22554
859.396	22679
859.529	22550
859.662	22485
859.795	22466
859.928	22653
860.061	22698
860.194	22786
860.327	22656
860.46	22592
860.592	22664
860.725	22809
860.858	22759
860.99	22523
861.123	22531
861.256	22512
861.388	22546
861.521	23360
861.653	22428
861.786	22337
861.918	22322
862.05	22561
862.183	22588
862.315	22557
862.447	22554
862.58	22352
862.712	22314
862.844	22177
862.976	22409
863.108	22226
863.24	22908
863.372	22196
863.504	22280
863.636	22265
863.768	22257
863.9	22284
864.032	22215
864.164	22272
864.296	22192
864.428	22447
864.559	22318
864.691	22284
864.823	22295
864.954	22230
865.086	22215
865.217	22124
865.349	22093
865.48	22158
865.612	22173
865.743	22318
865.875	22078
866.006	22177
866.137	22090
866.269	22188
866.4	22082
866.531	22048
866.662	22013
866.793	22002
866.924	22185
867.055	22010
867.186	22101
867.317	22135
867.448	22032
867.579	22021
867.71	21930
867.841	22067
867.972	22032
868.103	21979
868.233	22078
868.364	22101
868.495	22139
868.625	22234
868.756	22341
868.886	22166
869.017	22246
869.147	22455
869.278	22382
869.408	22295
869.539	22337
869.669	22455
869.799	22470
869.929	22489
870.06	22466
870.19	22706
870.32	22679
870.45	22702
870.58	22656
870.71	22847
870.84	22873
870.97	22713
871.1	22831
871.23	22767
871.36	22892
871.489	22786
871.619	22881
871.749	22900
871.879	22968
872.008	23079
872.138	22923
872.267	23090
872.397	22740
872.526	22736
872.656	22733
872.785	22649
872.915	22995
873.044	22972
873.173	22858
873.303	22984
873.432	22930
873.561	22927
873.69	22843
873.819	22793
873.948	22995
874.077	22889
874.206	22908
874.335	22786
874.464	22984
874.593	23056
874.722	23151
874.851	23151
874.979	23109
875.108	23368
875.237	23105
875.365	23044
875.494	23098
875.623	23341
875.751	23037
875.88	23197
876.008	23185
876.136	23216
876.265	23425
876.393	23657
876.521	23573
876.65	23581
876.778	23581
876.906	23429
877.034	23459
877.162	23543
877.29	23505
877.418	23452
877.546	23543
877.674	23524
877.802	23497
877.93	23452
878.058	23421
878.185	23284
878.313	23417
878.441	23455
878.568	23315
878.696	23433
878.824	23570
878.951	23528
879.079	23611
879.206	23775
879.333	23630
879.461	23577
879.588	23482
879.715	23691
879.842	23623
879.97	23509
880.097	23288
880.224	23376
880.351	23360
880.478	23311
880.605	23197
880.732	23376
880.859	23581
880.986	23277
881.112	23231
881.239	23318
881.366	23075
881.493	23025
881.619	22953
881.746	22869
881.872	22847
881.999	22835
882.125	22915
882.252	22828
882.378	22725
882.505	22961
882.631	22717
882.757	22599
882.883	22573
883.01	22649
883.136	22500
883.262	22474
883.388	22428
883.514	22531
883.64	22550
883.766	22451
883.892	22333
884.018	22272
884.143	22550
884.269	22557
884.395	22230
884.52	22158
884.646	22097
884.772	22109
884.897	22101
885.023	22196
885.148	22219
885.274	22280
885.399	22356
885.524	22124
885.65	22188
885.775	22211
885.9	22070
886.025	22371
886.15	22215
886.275	22131
886.4	22051
886.525	22086
886.65	22006
886.775	22082
886.9	22261
887.025	22299
887.149	22109
887.274	21979
887.399	21956
887.523	21937
887.648	21941
887.773	21865
887.897	22006
888.021	21907
888.146	21888
888.27	21998
888.395	22074
888.519	21972
888.643	21774
888.767	21983
888.891	21975
889.015	21660
889.139	21797
889.263	21663
889.387	21846
889.511	21876
889.635	21819
889.759	21663
889.883	21671
890.006	21622
890.13	21751
890.254	21587
890.377	21652
890.501	21439
890.624	21408
890.748	21496
890.871	21367
890.995	21268
891.118	21135
891.241	21412
891.364	21195
891.488	21389
891.611	21237
891.734	21237
891.857	21340
891.98	21272
892.103	21249
892.226	21313
892.349	21085
892.471	21074
892.594	21199
892.717	21135
892.839	21058
892.962	21184
893.085	21317
893.207	21203
893.33	20956
893.452	20982
893.575	21192
893.697	21096
893.819	21264
893.941	21329
894.064	21245
894.186	20986
894.308	21055
894.43	21138
894.552	21287
894.674	21268
894.796	21058
894.918	21138
895.04	21077
895.161	21241
895.283	21100
895.405	21131
895.526	21138
895.648	21184
895.769	21127
895.891	21256
896.012	21233
896.134	21237
896.255	21093
896.376	21093
896.498	21100
896.619	21074
896.74	21089
896.861	21230
896.982	21420
897.103	21709
897.224	21450
897.345	21264
897.466	21218
897.587	21348
897.708	21454
897.828	21393
897.949	21313
898.07	21104
898.19	21222
898.311	21336
898.431	21207
898.552	21306
898.672	21317
898.792	21355
898.913	21329
899.033	21199
899.153	21116
899.273	21081
899.393	21039
899.513	21062
899.633	21123
899.753	20982
899.873	20986
899.993	21036
900.113	20891
900.232	20941
900.352	20804
900.472	20849
900.591	20830
900.711	20807
900.83	20758
900.95	20815
901.069	20838
901.189	20693
901.308	20507
901.427	20377
901.546	20419
901.665	20385
901.784	20499
901.904	20267
902.023	20092
902.141	19993
902.26	19917
902.379	19978
902.498	19799
902.617	19871
902.735	19795
902.854	19906
902.973	19734
903.091	19605
903.21	19563
903.328	19586
903.446	19510
903.565	19392
903.683	19346
903.801	19202
903.919	19289
904.038	19396
904.156	19137
904.274	19221
904.392	19259
904.51	19236
904.627	19088
904.745	19122
904.863	19091
904.981	18905
905.098	18867
905.216	18875
905.334	18791
905.451	18768
905.569	18741
905.686	18764
905.803	18787
905.921	18555
906.038	18661
906.155	18673
906.272	18494
906.389	18521
906.506	18277
906.623	18323
906.74	18281
906.857	18311
906.974	18216
907.091	18346
907.208	18490
907.324	18281
907.441	18270
907.557	17946
907.674	18114
907.79	17950
907.907	18011
908.023	18102
908.139	18106
908.256	17935
908.372	17999
908.488	17874
908.604	17847
908.72	17718
908.836	17794
908.952	17771
909.068	17802
909.184	17935
909.3	17847
909.415	17893
909.531	17767
909.647	17535
909.762	17436
909.878	17337
909.993	17459
910.108	17486
910.224	17387
910.339	17406
910.454	17364
910.57	17193
910.685	17109
910.8	17573
910.915	17349
911.03	17284
911.145	16984
911.259	17029
911.374	17159
911.489	16987
911.604	16927
911.718	16759
911.833	16816
911.947	16573
912.062	16668
912.176	16767
912.291	16854
912.405	16752
912.519	16991
912.633	16942
912.748	16839
912.862	16759
912.976	16679
913.09	16462
913.204	16493
913.318	16622
913.431	16687
913.545	16596
913.659	16691
913.772	16516
913.886	16379
914	16303
914.113	16394
914.226	16462
914.34	16386
914.453	16310
914.566	16413
914.68	16196
914.793	16249
914.906	16078
915.019	16036
915.132	15884
915.245	16032
915.358	16010
915.47	15968
915.583	15888
915.696	15899
915.809	15987
915.921	16010
916.034	15861
916.146	15789
916.259	15770
916.371	15888
916.483	15827
916.595	15800
916.708	15720
916.82	15686
916.932	15759
917.044	15755
917.156	15595
917.268	15584
917.38	15644
917.491	15557
917.603	15580
917.715	15648
917.826	15679
917.938	15515
918.049	15401
918.161	15496
918.272	15644
918.384	15637
918.495	15447
918.606	15389
918.717	15283
918.828	15401
918.939	15268
919.05	15252
919.161	15340
919.272	15074
919.383	15112
919.494	15310
919.604	15447
919.715	15291
919.826	15268
919.936	15249
920.047	15344
920.157	15264
920.267	15370
920.378	15184
920.488	15291
920.598	15443
920.708	15469
920.818	15287
920.928	15370
921.038	15534
921.148	15397
921.258	15237
921.368	15013
921.477	15055
921.587	14948
921.697	14883
921.806	14857
921.916	14815
922.025	14625
922.134	14568
922.244	14579
922.353	14682
922.462	14522
922.571	14450
922.68	14263
922.789	14294
922.898	14278
923.007	14176
923.116	14278
923.224	14145
923.333	14149
923.442	14107
923.55	14050
923.659	14024
923.767	14126
923.876	14016
923.984	14142
924.092	13932
924.201	13928
924.309	13970
924.417	13974
924.525	13928
924.633	13845
924.741	14636
924.849	13704
924.956	13753
925.064	13677
925.172	13529
925.279	13594
925.387	13647
925.494	13628
925.602	13814
925.709	13734
925.816	13518
925.924	13578
926.031	13643
926.138	13556
926.245	13639
926.352	13434
926.459	13658
926.566	13552
926.673	13563
926.779	13350
926.886	13384
926.993	13251
927.099	13156
927.206	12920
927.312	13118
927.419	13152
927.525	13156
927.631	13240
927.737	13088
927.843	12947
927.95	12981
928.056	12985
928.162	12897
928.267	13012
928.373	13647
928.479	13065
928.585	12730
928.69	12958
928.796	12981
928.901	12814
929.007	12677
929.112	12825
929.218	12837
929.323	12738
929.428	12673
929.533	12772
929.638	12642
929.743	12608
929.848	12779
929.953	12604
930.058	12547
930.163	12361
930.267	12304
930.372	12479
930.477	12258
930.581	12532
930.685	12414
930.79	12220
930.894	12247
930.998	12125
931.103	12350
931.207	11984
931.311	11901
931.415	11767
931.519	11592
931.623	11535
