Data from test_V78500241_3540.txt Node
Date: Fri Mar 25 16:06:19 CST 2022
User: usil
Spectrometer: V785-0024
Trigger mode: 0
Integration Time (sec): 4.000000E-1
Scans to average: 1
Nonlinearity correction enabled: false
Boxcar width: 0
Storing dark spectrum: false
XAxis mode: Wavelengths
Number of Pixels in Spectrum: 1024
>>>>>Begin Spectral Data<<<<<
801.071	28930
801.214	28892
801.356	28729
801.499	28504
801.641	28398
801.783	28546
801.926	28504
802.068	28485
802.211	28466
802.353	28413
802.496	28150
802.638	28169
802.78	28314
802.923	28082
803.065	28002
803.208	28211
803.35	28147
803.492	28360
803.635	28462
803.777	28284
803.919	28531
804.061	28637
804.204	28478
804.346	28325
804.488	28432
804.63	28455
804.773	28268
804.915	28599
805.057	28599
805.199	28421
805.341	28550
805.483	28649
805.626	28588
805.768	28634
805.91	28634
806.052	28713
806.194	28535
806.336	28687
806.478	28668
806.62	28664
806.762	28797
806.904	28877
807.046	29212
807.188	29109
807.33	29102
807.472	29174
807.614	28984
807.756	29060
807.898	28866
808.04	28930
808.182	28858
808.324	28927
808.465	29006
808.607	29212
808.749	29406
808.891	29440
809.033	29619
809.174	29398
809.316	29242
809.458	29334
809.6	29242
809.741	29486
809.883	29455
810.025	29646
810.166	29589
810.308	29581
810.45	29649
810.591	29535
810.733	29326
810.875	29345
811.016	29242
811.158	29273
811.299	29417
811.441	29474
811.582	29448
811.724	29387
811.865	29379
812.007	29311
812.148	29356
812.29	29467
812.431	29493
812.573	29638
812.714	29783
812.855	29874
812.997	29874
813.138	30121
813.279	29889
813.421	29897
813.562	29859
813.703	29585
813.845	29596
813.986	29410
814.127	29075
814.268	29010
814.41	29197
814.551	28976
814.692	29025
814.833	28972
814.974	29220
815.115	29200
815.256	28934
815.397	28896
815.539	28915
815.68	28858
815.821	28866
815.962	28790
816.103	28934
816.244	28809
816.385	28679
816.526	28565
816.666	28523
816.807	28325
816.948	28390
817.089	28554
817.23	28542
817.371	28542
817.512	28504
817.653	28348
817.793	28401
817.934	28352
818.075	28436
818.216	28367
818.356	28329
818.497	28322
818.638	28185
818.778	28147
818.919	28329
819.06	28257
819.2	28413
819.341	28379
819.481	28379
819.622	28569
819.762	28831
819.903	28729
820.043	28356
820.184	28592
820.324	28512
820.465	28618
820.605	28748
820.746	28592
820.886	28394
821.026	28337
821.167	28519
821.307	28630
821.447	28386
821.588	28295
821.728	28211
821.868	28173
822.008	27873
822.149	27934
822.289	27975
822.429	27698
822.569	27675
822.709	27671
822.849	27416
822.99	27462
823.13	27348
823.27	27336
823.41	27180
823.55	27058
823.69	27089
823.83	27207
823.97	27283
824.11	27013
824.25	26952
824.389	27081
824.529	27154
824.669	27192
824.809	27211
824.949	27142
825.089	27135
825.228	27180
825.368	26918
825.508	26940
825.648	27036
825.787	27005
825.927	27070
826.067	26853
826.206	26899
826.346	27051
826.485	27024
826.625	26971
826.765	27013
826.904	27020
827.044	26670
827.183	26727
827.323	26655
827.462	26815
827.601	26807
827.741	26556
827.88	26807
828.02	26537
828.159	26727
828.298	26750
828.437	26720
828.577	26625
828.716	26815
828.855	26571
828.994	26305
829.134	26450
829.273	26556
829.412	26362
829.551	26446
829.69	26324
829.829	26415
829.968	26503
830.107	26450
830.246	26309
830.385	26328
830.524	26237
830.663	26206
830.802	26088
830.941	26001
831.08	25868
831.219	26138
831.357	26027
831.496	26206
831.635	25997
831.774	25818
831.913	25860
832.051	25856
832.19	25860
832.329	25734
832.467	25727
832.606	25655
832.744	25658
832.883	25597
833.022	25563
833.16	25559
833.299	25681
833.437	25693
833.576	25700
833.714	25811
833.852	25788
833.991	25689
834.129	25799
834.267	25890
834.406	25803
834.544	25746
834.682	25715
834.821	25708
834.959	25936
835.097	25742
835.235	25757
835.373	25704
835.511	25807
835.65	25647
835.788	25643
835.926	25525
836.064	25381
836.202	25518
836.34	25563
836.478	25681
836.615	25533
836.753	25540
836.891	25582
837.029	25552
837.167	25358
837.305	25392
837.443	25377
837.58	25346
837.718	25358
837.856	25495
837.993	25316
838.131	25285
838.269	25194
838.406	25251
838.544	25091
838.681	24939
838.819	25099
838.956	24844
839.094	24738
839.231	24894
839.369	25034
839.506	25118
839.643	24977
839.781	24783
839.918	24757
840.055	24924
840.193	24654
840.33	24867
840.467	24749
840.604	24753
840.742	25061
840.879	24540
841.016	24555
841.153	24563
841.29	24757
841.427	24745
841.564	24661
841.701	24703
841.838	24563
841.975	24570
842.112	24585
842.249	24563
842.385	24483
842.522	24536
842.659	24426
842.796	24407
842.933	24525
843.069	24334
843.206	24460
843.343	24456
843.479	24475
843.616	24426
843.752	24239
843.889	24220
844.025	24418
844.162	24353
844.298	24308
844.435	24194
844.571	24201
844.708	24273
844.844	24410
844.98	24452
845.117	24384
845.253	24159
845.389	24133
845.525	24121
845.661	24186
845.798	23973
845.934	24068
846.07	23927
846.206	24076
846.342	24125
846.478	23885
846.614	23790
846.75	23752
846.886	23741
847.022	23775
847.158	23786
847.294	23695
847.429	23707
847.565	23619
847.701	23942
847.837	23493
847.972	23395
848.108	23448
848.244	23474
848.379	23269
848.515	23299
848.65	23216
848.786	23376
848.921	23376
849.057	23414
849.192	23395
849.328	23330
849.463	23288
849.598	23296
849.734	23132
849.869	23094
850.004	23151
850.14	22961
850.275	23010
850.41	23006
850.545	22953
850.68	23075
850.815	23048
850.95	23067
851.085	23227
851.22	23212
851.355	23010
851.49	22930
851.625	22934
851.76	23044
851.895	23079
852.03	22972
852.165	23079
852.299	23037
852.434	23124
852.569	23189
852.703	22953
852.838	23098
852.973	23254
853.107	23181
853.242	22980
853.376	22889
853.511	22771
853.645	22942
853.78	23010
853.914	22843
854.048	22763
854.183	22885
854.317	22854
854.451	23079
854.585	22839
854.72	22866
854.854	23022
854.988	22725
855.122	22862
855.256	22668
855.39	22927
855.524	22999
855.658	22885
855.792	22824
855.926	22949
856.06	22957
856.194	22999
856.327	22892
856.461	22778
856.595	22809
856.729	22911
856.862	22995
856.996	22968
857.13	22915
857.263	22900
857.397	22991
857.53	22900
857.664	22850
857.797	22869
857.931	22976
858.064	22957
858.197	23029
858.331	22805
858.464	22843
858.597	22858
858.731	22850
858.864	22831
858.997	22953
859.13	22869
859.263	22721
859.396	22877
859.529	22900
859.662	22892
859.795	22755
859.928	22934
860.061	22965
860.194	22995
860.327	23067
860.46	22767
860.592	22991
860.725	22991
860.858	23025
860.99	22839
861.123	22710
861.256	22850
861.388	22949
861.521	23611
861.653	22850
861.786	22592
861.918	22645
862.05	22797
862.183	22858
862.315	22725
862.447	22938
862.58	22717
862.712	22634
862.844	22573
862.976	22607
863.108	22634
863.24	23071
863.372	22493
863.504	22656
863.636	22531
863.768	22649
863.9	22637
864.032	22538
864.164	22588
864.296	22755
864.428	22668
864.559	22645
864.691	22729
864.823	22721
864.954	22565
865.086	22538
865.217	22500
865.349	22421
865.48	22322
865.612	22504
865.743	22603
865.875	22421
866.006	22462
866.137	22424
866.269	22493
866.4	22356
866.531	22386
866.662	22367
866.793	22295
866.924	22344
867.055	22402
867.186	22352
867.317	22413
867.448	22352
867.579	22306
867.71	22322
867.841	22310
867.972	22234
868.103	22268
868.233	22421
868.364	22280
868.495	22504
868.625	22554
868.756	22771
868.886	22497
869.017	22649
869.147	22778
869.278	22763
869.408	22694
869.539	22565
869.669	22493
869.799	22630
869.929	22691
870.06	22793
870.19	22942
870.32	22816
870.45	22957
870.58	22965
870.71	22987
870.84	23147
870.97	23010
871.1	23064
871.23	23216
871.36	23288
871.489	23220
871.619	23235
871.749	23303
871.879	23296
872.008	23307
872.138	23265
872.267	23239
872.397	23117
872.526	23079
872.656	23113
872.785	23064
872.915	23178
873.044	23433
873.173	23166
873.303	23330
873.432	23296
873.561	23395
873.69	23181
873.819	23170
873.948	23383
874.077	23318
874.206	23079
874.335	23220
874.464	23337
874.593	23353
874.722	23421
874.851	23398
874.979	23383
875.108	23440
875.237	23315
875.365	23231
875.494	23356
875.623	23528
875.751	23490
875.88	23417
876.008	23615
876.136	23505
876.265	23813
876.393	23901
876.521	23946
876.65	23885
876.778	23821
876.906	23802
877.034	23760
877.162	23764
877.29	23745
877.418	23752
877.546	23798
877.674	23760
877.802	23733
877.93	23703
878.058	23699
878.185	23707
878.313	23726
878.441	23676
878.568	23551
878.696	23649
878.824	23809
878.951	23828
879.079	24129
879.206	24110
879.333	23901
879.461	23798
879.588	23939
879.715	23931
879.842	24026
879.97	23798
880.097	23676
880.224	23783
880.351	23531
880.478	23653
880.605	23623
880.732	23543
880.859	23771
880.986	23497
881.112	23600
881.239	23410
881.366	23322
881.493	23189
881.619	23258
881.746	23174
881.872	23044
881.999	23105
882.125	22991
882.252	23239
882.378	23155
882.505	23250
882.631	22968
882.757	22831
882.883	22938
883.01	22881
883.136	22828
883.262	22713
883.388	22626
883.514	22873
883.64	22790
883.766	22839
883.892	22550
884.018	22580
884.143	22725
884.269	22793
884.395	22554
884.52	22485
884.646	22519
884.772	22398
884.897	22318
885.023	22424
885.148	22615
885.274	22679
885.399	22561
885.524	22470
885.65	22474
885.775	22421
885.9	22314
886.025	22459
886.15	22478
886.275	22538
886.4	22447
886.525	22382
886.65	22405
886.775	22440
886.9	22599
887.025	22478
887.149	22546
887.274	22325
887.399	22204
887.523	22154
887.648	22139
887.773	22048
887.897	22234
888.021	22249
888.146	22147
888.27	22234
888.395	22158
888.519	22238
888.643	22253
888.767	22314
888.891	22078
889.015	21979
889.139	22029
889.263	21979
889.387	22128
889.511	22230
889.635	22116
889.759	21979
889.883	22006
890.006	22051
890.13	21994
890.254	21850
890.377	21934
890.501	21694
890.624	21663
890.748	21762
890.871	21667
890.995	21622
891.118	21397
891.241	21526
891.364	21469
891.488	21561
891.611	21477
891.734	21595
891.857	21564
891.98	21488
892.103	21591
892.226	21583
892.349	21439
892.471	21325
892.594	21370
892.717	21367
892.839	21424
892.962	21374
893.085	21420
893.207	21473
893.33	21294
893.452	21344
893.575	21538
893.697	21386
893.819	21572
893.941	21595
894.064	21526
894.186	21325
894.308	21294
894.43	21424
894.552	21568
894.674	21428
894.796	21287
894.918	21336
895.04	21325
895.161	21473
895.283	21424
895.405	21428
895.526	21374
895.648	21325
895.769	21382
895.891	21405
896.012	21492
896.134	21473
896.255	21466
896.376	21313
896.498	21355
896.619	21462
896.74	21321
896.861	21382
896.982	21599
897.103	21857
897.224	21564
897.345	21583
897.466	21496
897.587	21667
897.708	21728
897.828	21652
897.949	21492
898.07	21313
898.19	21557
898.311	21675
898.431	21511
898.552	21583
898.672	21561
898.792	21580
898.913	21553
899.033	21526
899.153	21363
899.273	21272
899.393	21363
899.513	21272
899.633	21321
899.753	21447
899.873	21237
899.993	21378
900.113	21230
900.232	21336
900.352	21104
900.472	21058
900.591	21135
900.711	20986
900.83	21028
900.95	21096
901.069	21150
901.189	20914
901.308	20697
901.427	20560
901.546	20621
901.665	20602
901.784	20648
901.904	20374
902.023	20438
902.141	20206
902.26	20134
902.379	20248
902.498	20084
902.617	20069
902.735	20157
902.854	20092
902.973	20039
903.091	19852
903.21	19875
903.328	19723
903.446	19712
903.565	19540
903.683	19559
903.801	19411
903.919	19499
904.038	19460
904.156	19445
904.274	19358
904.392	19244
904.51	19274
904.627	19285
904.745	19384
904.863	19327
904.981	19107
905.098	18947
905.216	19012
905.334	19084
905.451	19034
905.569	18897
905.686	19091
905.803	18951
905.921	18753
906.038	18795
906.155	18916
906.272	18696
906.389	18738
906.506	18525
906.623	18422
906.74	18528
906.857	18475
906.974	18448
907.091	18597
907.208	18589
907.324	18612
907.441	18445
907.557	18190
907.674	18243
907.79	18254
907.907	18254
908.023	18201
908.139	18216
908.256	18155
908.372	18155
908.488	18102
908.604	17939
908.72	17988
908.836	17908
908.952	17958
909.068	18007
909.184	18076
909.3	17866
909.415	17958
909.531	17931
909.647	17684
909.762	17623
909.878	17596
909.993	17649
910.108	17627
910.224	17665
910.339	17554
910.454	17444
910.57	17482
910.685	17330
910.8	17554
910.915	17611
911.03	17353
911.145	17296
911.259	17170
911.374	17113
911.489	17124
911.604	17056
911.718	17022
911.833	16957
911.947	16900
912.062	16767
912.176	16927
912.291	16896
912.405	16850
912.519	17121
912.633	17079
912.748	16976
912.862	16911
912.976	16805
913.09	16664
913.204	16634
913.318	16694
913.431	16812
913.545	16873
913.659	16801
913.772	16706
913.886	16683
914	16489
914.113	16599
914.226	16721
914.34	16546
914.453	16424
914.566	16599
914.68	16413
914.793	16413
914.906	16200
915.019	16196
915.132	16112
915.245	16025
915.358	16200
915.47	16025
915.583	16120
915.696	16101
915.809	16348
915.921	16268
916.034	16124
916.146	15964
916.259	15975
916.371	16154
916.483	16048
916.595	15945
916.708	15998
916.82	16036
916.932	15835
917.044	15934
917.156	15846
917.268	15732
917.38	15835
917.491	15675
917.603	15728
917.715	15789
917.826	15781
917.938	15705
918.049	15584
918.161	15679
918.272	15785
918.384	15717
918.495	15641
918.606	15519
918.717	15416
918.828	15496
918.939	15431
919.05	15332
919.161	15405
919.272	15306
919.383	15367
919.494	15477
919.604	15652
919.715	15405
919.826	15340
919.936	15344
920.047	15538
920.157	15428
920.267	15587
920.378	15504
920.488	15412
920.598	15622
920.708	15641
920.818	15564
920.928	15477
921.038	15652
921.148	15660
921.258	15279
921.368	15233
921.477	15116
921.587	15097
921.697	15093
921.806	15131
921.916	15039
922.025	14910
922.134	14823
922.244	14659
922.353	14701
922.462	14655
922.571	14632
922.68	14393
922.789	14423
922.898	14385
923.007	14332
923.116	14442
923.224	14298
923.333	14339
923.442	14286
923.55	14145
923.659	14210
923.767	14218
923.876	14161
923.984	14157
924.092	14081
924.201	14206
924.309	14050
924.417	14088
924.525	13986
924.633	13989
924.741	14982
924.849	13864
924.956	14043
925.064	13811
925.172	13715
925.279	13788
925.387	13791
925.494	13776
925.602	13890
925.709	13753
925.816	13677
925.924	13655
926.031	13811
926.138	13639
926.245	13731
926.352	13632
926.459	13746
926.566	13738
926.673	13662
926.779	13457
926.886	13613
926.993	13320
927.099	13304
927.206	13206
927.312	13327
927.419	13419
927.525	13343
927.631	13388
927.737	13183
927.843	13072
927.95	13053
928.056	13114
928.162	13118
928.267	13225
928.373	13677
928.479	13240
928.585	12886
928.69	13076
928.796	13076
928.901	12981
929.007	12817
929.112	12935
929.218	12966
929.323	12829
929.428	12863
929.533	12958
929.638	12787
929.743	12692
929.848	12848
929.953	12795
930.058	12559
930.163	12486
930.267	12513
930.372	12578
930.477	12506
930.581	12703
930.685	12544
930.79	12372
930.894	12361
930.998	12178
931.103	12437
931.207	12114
931.311	11996
931.415	11874
931.519	11741
931.623	11695
