Data from test_V78500241_2751.txt Node
Date: Fri Mar 25 16:00:51 CST 2022
User: usil
Spectrometer: V785-0024
Trigger mode: 0
Integration Time (sec): 4.000000E-1
Scans to average: 1
Nonlinearity correction enabled: false
Boxcar width: 0
Storing dark spectrum: false
XAxis mode: Wavelengths
Number of Pixels in Spectrum: 1024
>>>>>Begin Spectral Data<<<<<
801.071	28512
801.214	28580
801.356	28234
801.499	28265
801.641	28131
801.783	28211
801.926	28249
802.068	28162
802.211	28044
802.353	28013
802.496	27911
802.638	27861
802.78	27785
802.923	27812
803.065	27720
803.208	27720
803.35	27972
803.492	27873
803.635	28070
803.777	28078
803.919	28101
804.061	28322
804.204	27975
804.346	28017
804.488	28032
804.63	28105
804.773	27968
804.915	28101
805.057	28147
805.199	28086
805.341	28253
805.483	28268
805.626	28215
805.768	28173
805.91	28299
806.052	28348
806.194	28162
806.336	28348
806.478	28169
806.62	28352
806.762	28363
806.904	28550
807.046	28797
807.188	28713
807.33	28691
807.472	28934
807.614	28691
807.756	28679
807.898	28546
808.04	28421
808.182	28443
808.324	28508
808.465	28668
808.607	28831
808.749	28942
808.891	29006
809.033	29090
809.174	28999
809.316	28885
809.458	29010
809.6	28809
809.741	29048
809.883	29067
810.025	29151
810.166	29185
810.308	29216
810.45	29178
810.591	29208
810.733	29083
810.875	28999
811.016	28869
811.158	28839
811.299	29048
811.441	29143
811.582	29216
811.724	28927
811.865	28972
812.007	28949
812.148	28999
812.29	29018
812.431	29079
812.573	29368
812.714	29322
812.855	29356
812.997	29577
813.138	29695
813.279	29722
813.421	29482
813.562	29493
813.703	29269
813.845	29060
813.986	28801
814.127	28908
814.268	28687
814.41	28733
814.551	28687
814.692	28698
814.833	28550
814.974	28748
815.115	28470
815.256	28447
815.397	28409
815.539	28493
815.68	28436
815.821	28287
815.962	28474
816.103	28417
816.244	28306
816.385	28219
816.526	28276
816.666	28093
816.807	27960
816.948	28021
817.089	28036
817.23	28017
817.371	28010
817.512	27869
817.653	27873
817.793	27911
817.934	27956
818.075	27903
818.216	27987
818.356	27934
818.497	27724
818.638	27705
818.778	27732
818.919	27717
819.06	27892
819.2	27835
819.341	27956
819.481	28063
819.622	28055
819.762	28409
819.903	28295
820.043	28097
820.184	28158
820.324	28074
820.465	28139
820.605	28097
820.746	27994
820.886	27926
821.026	28093
821.167	28109
821.307	28135
821.447	28017
821.588	27888
821.728	27766
821.868	27564
822.008	27534
822.149	27603
822.289	27447
822.429	27275
822.569	27142
822.709	27176
822.849	27009
822.99	26990
823.13	27062
823.27	26883
823.41	26796
823.55	26708
823.69	26788
823.83	26883
823.97	26762
824.11	26579
824.25	26484
824.389	26613
824.529	26621
824.669	26659
824.809	26796
824.949	26705
825.089	26781
825.228	26727
825.368	26499
825.508	26419
825.648	26396
825.787	26469
825.927	26606
826.067	26355
826.206	26366
826.346	26541
826.485	26453
826.625	26564
826.765	26514
826.904	26480
827.044	26210
827.183	26286
827.323	26077
827.462	26309
827.601	26336
827.741	26263
827.88	26259
828.02	26024
828.159	26187
828.298	26073
828.437	26286
828.577	26252
828.716	26453
828.855	26145
828.994	25887
829.134	25746
829.273	26065
829.412	25830
829.551	25658
829.69	25818
829.829	25898
829.968	25989
830.107	25970
830.246	25997
830.385	25814
830.524	25799
830.663	25689
830.802	25582
830.941	25597
831.08	25529
831.219	25613
831.357	25578
831.496	25689
831.635	25426
831.774	25407
831.913	25392
832.051	25327
832.19	25346
832.329	25278
832.467	25183
832.606	25145
832.744	25187
832.883	25080
833.022	25164
833.16	25152
833.299	25133
833.437	25217
833.576	25225
833.714	25156
833.852	25369
833.991	25209
834.129	25247
834.267	25381
834.406	25312
834.544	25232
834.682	25358
834.821	25255
834.959	25403
835.097	25266
835.235	25259
835.373	25148
835.511	25285
835.65	25080
835.788	24985
835.926	24996
836.064	24966
836.202	24875
836.34	25065
836.478	25050
836.615	25015
836.753	25053
836.891	25171
837.029	25004
837.167	25000
837.305	24996
837.443	24958
837.58	24844
837.718	24943
837.856	24833
837.993	24894
838.131	24905
838.269	24726
838.406	24787
838.544	24734
838.681	24475
838.819	24452
838.956	24414
839.094	24304
839.231	24445
839.369	24570
839.506	24627
839.643	24574
839.781	24403
839.918	24224
840.055	24350
840.193	24262
840.33	24258
840.467	24289
840.604	24194
840.742	24555
840.879	24091
841.016	24258
841.153	24117
841.29	24254
841.427	24197
841.564	24429
841.701	24319
841.838	24144
841.975	24232
842.112	24171
842.249	24125
842.385	24106
842.522	24159
842.659	24163
842.796	24003
842.933	23950
843.069	24041
843.206	24003
843.343	23980
843.479	23942
843.616	24018
843.752	23885
843.889	23775
844.025	24057
844.162	23714
844.298	23878
844.435	23798
844.571	23653
844.708	23855
844.844	23954
844.98	23939
845.117	23916
845.253	23680
845.389	23589
845.525	23726
845.661	23619
845.798	23547
845.934	23589
846.07	23551
846.206	23623
846.342	23619
846.478	23512
846.614	23242
846.75	23197
846.886	23151
847.022	23292
847.158	23269
847.294	23261
847.429	23299
847.565	23094
847.701	23395
847.837	23105
847.972	22923
848.108	23113
848.244	23121
848.379	22869
848.515	22824
848.65	22736
848.786	22721
848.921	22816
849.057	22866
849.192	22911
849.328	22896
849.463	22843
849.598	22847
849.734	22599
849.869	22706
850.004	22554
850.14	22580
850.275	22729
850.41	22538
850.545	22557
850.68	22557
850.815	22489
850.95	22531
851.085	22801
851.22	22675
851.355	22645
851.49	22611
851.625	22584
851.76	22466
851.895	22535
852.03	22447
852.165	22611
852.299	22523
852.434	22649
852.569	22592
852.703	22679
852.838	22694
852.973	22721
853.107	22729
853.242	22557
853.376	22516
853.511	22299
853.645	22344
853.78	22508
853.914	22447
854.048	22478
854.183	22337
854.317	22497
854.451	22637
854.585	22390
854.72	22443
854.854	22440
854.988	22299
855.122	22451
855.256	22257
855.39	22413
855.524	22599
855.658	22379
855.792	22405
855.926	22508
856.06	22421
856.194	22474
856.327	22424
856.461	22322
856.595	22405
856.729	22459
856.862	22561
856.996	22424
857.13	22573
857.263	22531
857.397	22348
857.53	22459
857.664	22447
857.797	22508
857.931	22615
858.064	22432
858.197	22538
858.331	22405
858.464	22356
858.597	22421
858.731	22322
858.864	22379
858.997	22375
859.13	22341
859.263	22421
859.396	22538
859.529	22329
859.662	22284
859.795	22325
859.928	22394
860.061	22485
860.194	22694
860.327	22413
860.46	22478
860.592	22523
860.725	22500
860.858	22603
860.99	22417
861.123	22371
861.256	22299
861.388	22386
861.521	23025
861.653	22280
861.786	22120
861.918	22105
862.05	22238
862.183	22299
862.315	22363
862.447	22261
862.58	22363
862.712	22280
862.844	22029
862.976	22234
863.108	22196
863.24	22569
863.372	22032
863.504	22143
863.636	22093
863.768	22196
863.9	22192
864.032	21987
864.164	21934
864.296	22109
864.428	22268
864.559	22169
864.691	22185
864.823	22078
864.954	22147
865.086	22147
865.217	21987
865.349	21876
865.48	22051
865.612	21892
865.743	22059
865.875	22120
866.006	21983
866.137	21979
866.269	21964
866.4	22013
866.531	21888
866.662	21979
866.793	21907
866.924	21987
867.055	21907
867.186	21895
867.317	21823
867.448	21842
867.579	21949
867.71	21888
867.841	21899
867.972	21945
868.103	21922
868.233	21854
868.364	21983
868.495	21915
868.625	22158
868.756	22352
868.886	22086
869.017	22078
869.147	22360
869.278	22215
869.408	22105
869.539	22112
869.669	22253
869.799	22059
869.929	22215
870.06	22192
870.19	22459
870.32	22474
870.45	22565
870.58	22447
870.71	22653
870.84	22683
870.97	22481
871.1	22573
871.23	22759
871.36	22831
871.489	22717
871.619	22706
871.749	22679
871.879	22729
872.008	22824
872.138	22873
872.267	22706
872.397	22592
872.526	22611
872.656	22675
872.785	22546
872.915	22744
873.044	22927
873.173	22839
873.303	22812
873.432	22873
873.561	22877
873.69	22923
873.819	22763
873.948	22934
874.077	22831
874.206	22710
874.335	22694
874.464	22919
874.593	22946
874.722	23044
874.851	23086
874.979	23037
875.108	23033
875.237	22801
875.365	22949
875.494	23010
875.623	23086
875.751	22976
875.88	23052
876.008	23086
876.136	23060
876.265	23406
876.393	23509
876.521	23444
876.65	23535
876.778	23406
876.906	23265
877.034	23330
877.162	23326
877.29	23254
877.418	23330
877.546	23326
877.674	23303
877.802	23155
877.93	23345
878.058	23299
878.185	23136
878.313	23296
878.441	23292
878.568	23280
878.696	23330
878.824	23364
878.951	23376
879.079	23547
879.206	23676
879.333	23490
879.461	23387
879.588	23383
879.715	23493
879.842	23562
879.97	23516
880.097	23197
880.224	23075
880.351	23250
880.478	23140
880.605	23166
880.732	23193
880.859	23391
880.986	23166
881.112	23200
881.239	23022
881.366	22801
881.493	22866
881.619	22694
881.746	22759
881.872	22740
881.999	22664
882.125	22626
882.252	22717
882.378	22793
882.505	22866
882.631	22557
882.757	22390
882.883	22611
883.01	22417
883.136	22371
883.262	22329
883.388	22238
883.514	22386
883.64	22451
883.766	22200
883.892	22223
884.018	22154
884.143	22265
884.269	22451
884.395	22097
884.52	21987
884.646	22086
884.772	21899
884.897	22029
885.023	22128
885.148	22196
885.274	22040
885.399	22112
885.524	22185
885.65	22040
885.775	22021
885.9	22010
886.025	22013
886.15	21979
886.275	21960
886.4	21953
886.525	21953
886.65	21918
886.775	21956
886.9	22090
887.025	22158
887.149	21937
887.274	21930
887.399	21835
887.523	21846
887.648	21686
887.773	21736
887.897	21854
888.021	21804
888.146	21637
888.27	21865
888.395	21922
888.519	21759
888.643	21876
888.767	21766
888.891	21743
889.015	21564
889.139	21694
889.263	21507
889.387	21603
889.511	21660
889.635	21625
889.759	21629
889.883	21481
890.006	21675
890.13	21701
890.254	21511
890.377	21466
890.501	21408
890.624	21203
890.748	21408
890.871	21256
890.995	21070
891.118	21146
891.241	21135
891.364	21241
891.488	21298
891.611	21039
891.734	21173
891.857	21207
891.98	21199
892.103	21184
892.226	21028
892.349	21116
892.471	20929
892.594	21096
892.717	21142
892.839	20975
892.962	21047
893.085	21081
893.207	20925
893.33	20982
893.452	21001
893.575	20963
893.697	20941
893.819	21211
893.941	21245
894.064	21169
894.186	20925
894.308	20914
894.43	21138
894.552	21089
894.674	21096
894.796	20906
894.918	21108
895.04	20872
895.161	21039
895.283	20994
895.405	20971
895.526	21001
895.648	20914
895.769	21024
895.891	21077
896.012	21024
896.134	21047
896.255	21039
896.376	20811
896.498	21058
896.619	21005
896.74	21009
896.861	20952
896.982	21287
897.103	21401
897.224	21306
897.345	21233
897.466	21100
897.587	21252
897.708	21306
897.828	21241
897.949	21127
898.07	21058
898.19	21146
898.311	21245
898.431	21104
898.552	21199
898.672	21310
898.792	21138
898.913	21184
899.033	21180
899.153	21070
899.273	20800
899.393	20967
899.513	20929
899.633	20842
899.753	20944
899.873	20815
899.993	20864
900.113	20937
900.232	20849
900.352	20811
900.472	20800
900.591	20655
900.711	20655
900.83	20659
900.95	20735
901.069	20765
901.189	20499
901.308	20263
901.427	20237
901.546	20259
901.665	20332
901.784	20377
901.904	20172
902.023	20016
902.141	19784
902.26	19738
902.379	19906
902.498	19727
902.617	19807
902.735	19761
902.854	19803
902.973	19674
903.091	19514
903.21	19388
903.328	19392
903.446	19373
903.565	19221
903.683	19232
903.801	19137
903.919	19156
904.038	19141
904.156	19046
904.274	19050
904.392	19019
904.51	18901
904.627	18901
904.745	19023
904.863	19027
904.981	18825
905.098	18684
905.216	18642
905.334	18639
905.451	18730
905.569	18730
905.686	18681
905.803	18669
905.921	18319
906.038	18525
906.155	18616
906.272	18391
906.389	18311
906.506	18144
906.623	18102
906.74	18247
906.857	18079
906.974	18140
907.091	18163
907.208	18243
907.324	18235
907.441	18095
907.557	17878
907.674	17946
907.79	17874
907.907	17832
908.023	17882
908.139	17847
908.256	17840
908.372	17726
908.488	17729
908.604	17573
908.72	17577
908.836	17619
908.952	17497
909.068	17611
909.184	17600
909.3	17505
909.415	17627
909.531	17642
909.647	17258
909.762	17356
909.878	17261
909.993	17334
910.108	17265
910.224	17280
910.339	17322
910.454	17235
910.57	17147
910.685	17079
910.8	17368
910.915	17200
911.03	17067
911.145	16873
911.259	16835
911.374	16839
911.489	16854
911.604	16691
911.718	16618
911.833	16653
911.947	16550
912.062	16451
912.176	16592
912.291	16713
912.405	16668
912.519	16835
912.633	16755
912.748	16687
912.862	16596
912.976	16413
913.09	16280
913.204	16379
913.318	16440
913.431	16538
913.545	16607
913.659	16512
913.772	16303
913.886	16413
914	16192
914.113	16371
914.226	16341
914.34	16261
914.453	16135
914.566	16253
914.68	16093
914.793	16074
914.906	15918
915.019	15755
915.132	15663
915.245	15713
915.358	15827
915.47	15793
915.583	15720
915.696	15827
915.809	15945
915.921	15903
916.034	15778
916.146	15667
916.259	15675
916.371	15736
916.483	15835
916.595	15682
916.708	15614
916.82	15534
916.932	15511
917.044	15545
917.156	15519
917.268	15469
917.38	15450
917.491	15370
917.603	15492
917.715	15545
917.826	15488
917.938	15370
918.049	15291
918.161	15329
918.272	15515
918.384	15454
918.495	15340
918.606	15249
918.717	15119
918.828	15306
918.939	15268
919.05	15020
919.161	15077
919.272	14948
919.383	14982
919.494	15173
919.604	15294
919.715	15184
919.826	15047
919.936	15039
920.047	15237
920.157	15150
920.267	15310
920.378	15097
920.488	15116
920.598	15306
920.708	15412
920.818	15325
920.928	15157
921.038	15401
921.148	15348
921.258	15013
921.368	14963
921.477	14823
921.587	14826
921.697	14777
921.806	14830
921.916	14579
922.025	14575
922.134	14412
922.244	14457
922.353	14438
922.462	14396
922.571	14309
922.68	14092
922.789	14107
922.898	14138
923.007	14012
923.116	14077
923.224	14077
923.333	14168
923.442	13997
923.55	13947
923.659	13978
923.767	13967
923.876	13959
923.984	13951
924.092	13685
924.201	13852
924.309	13864
924.417	13814
924.525	13769
924.633	13784
924.741	14705
924.849	13559
924.956	13647
925.064	13544
925.172	13434
925.279	13495
925.387	13521
925.494	13506
925.602	13651
925.709	13518
925.816	13411
925.924	13468
926.031	13556
926.138	13472
926.245	13460
926.352	13362
926.459	13403
926.566	13537
926.673	13407
926.779	13312
926.886	13198
926.993	13137
927.099	13080
927.206	13072
927.312	12981
927.419	13175
927.525	12985
927.631	13084
927.737	12939
927.843	12920
927.95	12760
928.056	12844
928.162	12943
928.267	12951
928.373	13388
928.479	12863
928.585	12688
928.69	12844
928.796	12802
928.901	12677
929.007	12585
929.112	12757
929.218	12749
929.323	12658
929.428	12604
929.533	12681
929.638	12513
929.743	12540
929.848	12574
929.953	12437
930.058	12521
930.163	12338
930.267	12300
930.372	12342
930.477	12232
930.581	12456
930.685	12304
930.79	12098
930.894	12144
930.998	12060
931.103	12186
931.207	11950
931.311	11817
931.415	11726
931.519	11570
931.623	11467
