Data from test_V78500241_1468.txt Node
Date: Fri Mar 25 15:51:58 CST 2022
User: usil
Spectrometer: V785-0024
Trigger mode: 0
Integration Time (sec): 4.000000E-1
Scans to average: 1
Nonlinearity correction enabled: false
Boxcar width: 0
Storing dark spectrum: false
XAxis mode: Wavelengths
Number of Pixels in Spectrum: 1024
>>>>>Begin Spectral Data<<<<<
801.071	27861
801.214	27671
801.356	27416
801.499	27374
801.641	27237
801.783	27268
801.926	27348
802.068	27192
802.211	27043
802.353	27173
802.496	27024
802.638	27005
802.78	26902
802.923	26796
803.065	26887
803.208	26914
803.35	26910
803.492	27070
803.635	27089
803.777	27093
803.919	27161
804.061	27500
804.204	27112
804.346	26998
804.488	27070
804.63	27230
804.773	27058
804.915	27150
805.057	27146
805.199	27089
805.341	27272
805.483	27287
805.626	27344
805.768	27039
805.91	27252
806.052	27226
806.194	27157
806.336	27519
806.478	27176
806.62	27249
806.762	27329
806.904	27526
807.046	27739
807.188	27728
807.33	27633
807.472	27652
807.614	27477
807.756	27660
807.898	27515
808.04	27591
808.182	27443
808.324	27576
808.465	27568
808.607	27876
808.749	27930
808.891	28101
809.033	27972
809.174	27892
809.316	27937
809.458	27804
809.6	27907
809.741	27937
809.883	28021
810.025	28257
810.166	28188
810.308	28105
810.45	28112
810.591	28101
810.733	27880
810.875	27911
811.016	27732
811.158	27641
811.299	27972
811.441	27953
811.582	28097
811.724	27953
811.865	27770
812.007	27720
812.148	27880
812.29	27907
812.431	28063
812.573	28234
812.714	28299
812.855	28360
812.997	28542
813.138	28641
813.279	28504
813.421	28329
813.562	28192
813.703	28196
813.845	28200
813.986	27930
814.127	27660
814.268	27576
814.41	27637
814.551	27542
814.692	27679
814.833	27507
814.974	27610
815.115	27633
815.256	27431
815.397	27492
815.539	27412
815.68	27397
815.821	27203
815.962	27466
816.103	27310
816.244	27184
816.385	27112
816.526	27062
816.666	27028
816.807	26773
816.948	26952
817.089	27066
817.23	26849
817.371	26796
817.512	26792
817.653	26735
817.793	26792
817.934	26868
818.075	26849
818.216	26781
818.356	26781
818.497	26724
818.638	26617
818.778	26503
818.919	26629
819.06	26613
819.2	26739
819.341	26876
819.481	26712
819.622	26994
819.762	27142
819.903	27077
820.043	26948
820.184	26998
820.324	26872
820.465	26933
820.605	26971
820.746	26944
820.886	26781
821.026	26998
821.167	26811
821.307	26925
821.447	26834
821.588	26670
821.728	26682
821.868	26495
822.008	26317
822.149	26404
822.289	26347
822.429	26062
822.569	25951
822.709	25955
822.849	25715
822.99	25833
823.13	25704
823.27	25727
823.41	25616
823.55	25575
823.69	25723
823.83	25597
823.97	25628
824.11	25479
824.25	25552
824.389	25388
824.529	25586
824.669	25556
824.809	25624
824.949	25460
825.089	25616
825.228	25445
825.368	25225
825.508	25343
825.648	25297
825.787	25384
825.927	25358
826.067	25377
826.206	25381
826.346	25339
826.485	25438
826.625	25369
826.765	25339
826.904	25422
827.044	25080
827.183	25084
827.323	24966
827.462	25042
827.601	25103
827.741	24992
827.88	25198
828.02	24913
828.159	25042
828.298	24989
828.437	24947
828.577	25065
828.716	25042
828.855	25061
828.994	24764
829.134	24757
829.273	24772
829.412	24722
829.551	24635
829.69	24738
829.829	24764
829.968	24829
830.107	24798
830.246	24700
830.385	24608
830.524	24601
830.663	24551
830.802	24315
830.941	24315
831.08	24277
831.219	24422
831.357	24258
831.496	24540
831.635	24445
831.774	24213
831.913	24216
832.051	24030
832.19	24186
832.329	24140
832.467	23969
832.606	23946
832.744	23984
832.883	23980
833.022	23935
833.16	23965
833.299	23980
833.437	23961
833.576	24072
833.714	24011
833.852	24167
833.991	24018
834.129	24190
834.267	24068
834.406	23977
834.544	24068
834.682	24072
834.821	24060
834.959	24095
835.097	23992
835.235	24041
835.373	23958
835.511	24205
835.65	23999
835.788	23973
835.926	23756
836.064	23775
836.202	23687
836.34	23843
836.478	24083
836.615	23946
836.753	23859
836.891	23996
837.029	23851
837.167	23710
837.305	23813
837.443	23775
837.58	23752
837.718	23866
837.856	23836
837.993	23745
838.131	23707
838.269	23653
838.406	23638
838.544	23505
838.681	23318
838.819	23356
838.956	23159
839.094	23174
839.231	23315
839.369	23326
839.506	23611
839.643	23429
839.781	23170
839.918	23109
840.055	23269
840.193	23178
840.33	23128
840.467	23174
840.604	23151
840.742	23398
840.879	22965
841.016	23044
841.153	22896
841.29	23193
841.427	22987
841.564	23166
841.701	23064
841.838	23037
841.975	22953
842.112	23014
842.249	22881
842.385	22793
842.522	23056
842.659	22869
842.796	22816
842.933	22786
843.069	22759
843.206	22812
843.343	22927
843.479	22911
843.616	22885
843.752	22611
843.889	22596
844.025	22660
844.162	22679
844.298	22645
844.435	22626
844.571	22713
844.708	22710
844.844	22801
844.98	22786
845.117	22687
845.253	22626
845.389	22546
845.525	22504
845.661	22402
845.798	22329
845.934	22375
846.07	22295
846.206	22337
846.342	22516
846.478	22322
846.614	22166
846.75	22093
846.886	22101
847.022	22177
847.158	22112
847.294	22093
847.429	22158
847.565	22154
847.701	22363
847.837	21865
847.972	21895
848.108	21876
848.244	21937
848.379	21838
848.515	21606
848.65	21671
848.786	21709
848.921	21778
849.057	21759
849.192	21857
849.328	21717
849.463	21660
849.598	21622
849.734	21679
849.869	21622
850.004	21454
850.14	21648
850.275	21454
850.41	21500
850.545	21412
850.68	21367
850.815	21466
850.95	21447
851.085	21545
851.22	21515
851.355	21439
851.49	21458
851.625	21431
851.76	21477
851.895	21340
852.03	21264
852.165	21576
852.299	21420
852.434	21583
852.569	21397
852.703	21511
852.838	21583
852.973	21610
853.107	21648
853.242	21408
853.376	21317
853.511	21256
853.645	21378
853.78	21325
853.914	21336
854.048	21150
854.183	21252
854.317	21264
854.451	21549
854.585	21329
854.72	21214
854.854	21408
854.988	21237
855.122	21389
855.256	21161
855.39	21233
855.524	21302
855.658	21363
855.792	21131
855.926	21435
856.06	21363
856.194	21405
856.327	21211
856.461	21233
856.595	21150
856.729	21211
856.862	21294
856.996	21363
857.13	21359
857.263	21530
857.397	21389
857.53	21325
857.664	21287
857.797	21302
857.931	21435
858.064	21272
858.197	21469
858.331	21382
858.464	21169
858.597	21256
858.731	21226
858.864	21275
858.997	21325
859.13	21275
859.263	21268
859.396	21382
859.529	21321
859.662	21310
859.795	21260
859.928	21108
860.061	21351
860.194	21481
860.327	21237
860.46	21252
860.592	21336
860.725	21351
860.858	21447
860.99	21272
861.123	21283
861.256	21169
861.388	21359
861.521	22063
861.653	21180
861.786	21070
861.918	21032
862.05	21268
862.183	21249
862.315	21321
862.447	21302
862.58	21180
862.712	21024
862.844	20921
862.976	21066
863.108	20960
863.24	21492
863.372	20891
863.504	20952
863.636	21024
863.768	21138
863.9	21039
864.032	20944
864.164	20887
864.296	21024
864.428	21013
864.559	21051
864.691	21085
864.823	21062
864.954	20963
865.086	21017
865.217	20967
865.349	20758
865.48	20895
865.612	20914
865.743	21066
865.875	20933
866.006	20857
866.137	20971
866.269	20834
866.4	20895
866.531	20899
866.662	20838
866.793	20800
866.924	20830
867.055	20765
867.186	20838
867.317	20849
867.448	20792
867.579	20769
867.71	20720
867.841	20754
867.972	20796
868.103	20762
868.233	20777
868.364	20834
868.495	20845
868.625	21096
868.756	21214
868.886	21066
869.017	21116
869.147	21192
869.278	21161
869.408	21157
869.539	21028
869.669	21226
869.799	21211
869.929	21207
870.06	21188
870.19	21469
870.32	21272
870.45	21321
870.58	21477
870.71	21545
870.84	21458
870.97	21405
871.1	21545
871.23	21633
871.36	21622
871.489	21519
871.619	21564
871.749	21671
871.879	21694
872.008	21766
872.138	21713
872.267	21762
872.397	21557
872.526	21542
872.656	21519
872.785	21469
872.915	21778
873.044	21812
873.173	21694
873.303	21743
873.432	21800
873.561	21762
873.69	21789
873.819	21709
873.948	21797
874.077	21755
874.206	21679
874.335	21667
874.464	21941
874.593	21937
874.722	21842
874.851	21895
874.979	21857
875.108	21972
875.237	21926
875.365	21850
875.494	21907
875.623	22017
875.751	21915
875.88	21930
876.008	22097
876.136	22097
876.265	22291
876.393	22428
876.521	22344
876.65	22318
876.778	22295
876.906	22363
877.034	22261
877.162	22466
877.29	22276
877.418	22238
877.546	22246
877.674	22284
877.802	22223
877.93	22322
878.058	22276
878.185	22173
878.313	22348
878.441	22181
878.568	22109
878.696	22169
878.824	22268
878.951	22306
879.079	22405
879.206	22546
879.333	22485
879.461	22249
879.588	22443
879.715	22405
879.842	22645
879.97	22291
880.097	22101
880.224	22105
880.351	22101
880.478	22154
880.605	22185
880.732	22112
880.859	22363
880.986	22268
881.112	22158
881.239	21941
881.366	21854
881.493	21743
881.619	21747
881.746	21701
881.872	21713
881.999	21633
882.125	21545
882.252	21720
882.378	21709
882.505	21641
882.631	21557
882.757	21408
882.883	21564
883.01	21393
883.136	21268
883.262	21192
883.388	21108
883.514	21405
883.64	21534
883.766	21211
883.892	21165
884.018	21173
884.143	21287
884.269	21359
884.395	21077
884.52	21024
884.646	21074
884.772	20979
884.897	20765
885.023	21017
885.148	21077
885.274	21070
885.399	21039
885.524	21032
885.65	20994
885.775	21077
885.9	20944
886.025	21195
886.15	21005
886.275	21036
886.4	20891
886.525	20948
886.65	21009
886.775	21062
886.9	21180
887.025	21245
887.149	21013
887.274	20845
887.399	20758
887.523	20804
887.648	20754
887.773	20743
887.897	20823
888.021	20804
888.146	20705
888.27	20746
888.395	20967
888.519	20758
888.643	20876
888.767	20842
888.891	20659
889.015	20632
889.139	20659
889.263	20514
889.387	20667
889.511	20891
889.635	20705
889.759	20514
889.883	20495
890.006	20549
890.13	20648
890.254	20511
890.377	20381
890.501	20431
890.624	20240
890.748	20465
890.871	20278
890.995	20065
891.118	20012
891.241	20271
891.364	20225
891.488	20145
891.611	20164
891.734	20122
891.857	20142
891.98	20084
892.103	20214
892.226	20149
892.349	20031
892.471	19936
892.594	20103
892.717	20161
892.839	20077
892.962	20058
893.085	20164
893.207	19967
893.33	19978
893.452	20065
893.575	20027
893.697	20111
893.819	20161
893.941	20221
894.064	20191
894.186	19993
894.308	20031
894.43	20157
894.552	20225
894.674	20122
894.796	20008
894.918	20012
895.04	20008
895.161	20084
895.283	20058
895.405	20069
895.526	19993
895.648	20020
895.769	20157
895.891	20016
896.012	20233
896.134	20278
896.255	20035
896.376	20058
896.498	20111
896.619	20130
896.74	20180
896.861	20081
896.982	20400
897.103	20590
897.224	20374
897.345	20301
897.466	20176
897.587	20252
897.708	20434
897.828	20256
897.949	20259
898.07	20115
898.19	20298
898.311	20313
898.431	20332
898.552	20259
898.672	20351
898.792	20404
898.913	20275
899.033	20225
899.153	20111
899.273	19963
899.393	19887
899.513	20142
899.633	20142
899.753	20088
899.873	19944
899.993	20065
900.113	20012
900.232	20005
900.352	19947
900.472	19898
900.591	19784
900.711	19849
900.83	19799
900.95	20043
901.069	19856
901.189	19719
901.308	19544
901.427	19487
901.546	19339
901.665	19350
901.784	19464
901.904	19346
902.023	19129
902.141	19107
902.26	19042
902.379	18943
902.498	18905
902.617	18859
902.735	18878
902.854	18890
902.973	18985
903.091	18681
903.21	18639
903.328	18608
903.446	18601
903.565	18391
903.683	18422
903.801	18300
903.919	18414
904.038	18327
904.156	18163
904.274	18235
904.392	18136
904.51	18281
904.627	18117
904.745	18273
904.863	18224
904.981	17969
905.098	17737
905.216	17851
905.334	17992
905.451	17855
905.569	17729
905.686	17836
905.803	17760
905.921	17577
906.038	17714
906.155	17585
906.272	17471
906.389	17490
906.506	17425
906.623	17474
906.74	17436
906.857	17280
906.974	17220
907.091	17326
907.208	17455
907.324	17398
907.441	17227
907.557	17132
907.674	17029
907.79	16976
907.907	17067
908.023	17083
908.139	16980
908.256	16976
908.372	17025
908.488	16919
908.604	16858
908.72	16752
908.836	16713
908.952	16710
909.068	16729
909.184	16805
909.3	16858
909.415	16797
909.531	16733
909.647	16569
909.762	16474
909.878	16474
909.993	16504
910.108	16421
910.224	16459
910.339	16443
910.454	16295
910.57	16306
910.685	16166
910.8	16462
910.915	16508
911.03	16371
911.145	16097
911.259	16150
911.374	16120
911.489	16040
911.604	15797
911.718	15937
911.833	15759
911.947	15720
912.062	15732
912.176	15884
912.291	15846
912.405	15869
912.519	15994
912.633	16093
912.748	15903
912.862	15842
912.976	15808
913.09	15561
913.204	15682
913.318	15622
913.431	15762
913.545	15755
913.659	15671
913.772	15622
913.886	15591
914	15431
914.113	15595
914.226	15595
914.34	15496
914.453	15389
914.566	15492
914.68	15249
914.793	15306
914.906	15131
915.019	15043
915.132	14998
915.245	15036
915.358	15157
915.47	15093
915.583	15142
915.696	15036
915.809	15184
915.921	15218
916.034	15047
916.146	15017
916.259	14952
916.371	15017
916.483	15028
916.595	14948
916.708	14902
916.82	14963
916.932	14845
917.044	14872
917.156	14899
917.268	14762
917.38	14788
917.491	14625
917.603	14758
917.715	14785
917.826	14796
917.938	14705
918.049	14571
918.161	14686
918.272	14769
918.384	14739
918.495	14678
918.606	14606
918.717	14499
918.828	14450
918.939	14590
919.05	14358
919.161	14438
919.272	14343
919.383	14351
919.494	14488
919.604	14670
919.715	14431
919.826	14358
919.936	14442
920.047	14533
920.157	14465
920.267	14606
920.378	14507
920.488	14465
920.598	14689
920.708	14716
920.818	14537
920.928	14552
921.038	14735
921.148	14701
921.258	14431
921.368	14286
921.477	14180
921.587	14134
921.697	14069
921.806	14195
921.916	14024
922.025	13932
922.134	13890
922.244	13753
922.353	13734
922.462	13750
922.571	13693
922.68	13521
922.789	13529
922.898	13548
923.007	13438
923.116	13502
923.224	13464
923.333	13400
923.442	13369
923.55	13343
923.659	13308
923.767	13434
923.876	13255
923.984	13324
924.092	13202
924.201	13236
924.309	13228
924.417	13202
924.525	13126
924.633	13145
924.741	14096
924.849	12935
924.956	13091
925.064	12932
925.172	12901
925.279	12844
925.387	12867
925.494	12932
925.602	12993
925.709	12966
925.816	12738
925.924	12856
926.031	12958
926.138	12798
926.245	12878
926.352	12738
926.459	12772
926.566	13038
926.673	12764
926.779	12658
926.886	12681
926.993	12429
927.099	12456
927.206	12448
927.312	12357
927.419	12464
927.525	12422
927.631	12506
927.737	12395
927.843	12338
927.95	12220
928.056	12273
928.162	12365
928.267	12342
928.373	12989
928.479	12357
928.585	12152
928.69	12235
928.796	12254
928.901	12152
929.007	11954
929.112	12201
929.218	11961
929.323	12060
929.428	12045
929.533	12171
929.638	12034
929.743	11984
929.848	12091
929.953	12011
930.058	11901
930.163	11722
930.267	11745
930.372	11817
930.477	11646
930.581	11882
930.685	11764
930.79	11638
930.894	11726
930.998	11543
931.103	11828
931.207	11356
931.311	11337
931.415	11124
931.519	10999
931.623	10961
