Data from test_V78500241_529.txt Node
Date: Fri Mar 25 15:45:27 CST 2022
User: usil
Spectrometer: V785-0024
Trigger mode: 0
Integration Time (sec): 4.000000E-1
Scans to average: 1
Nonlinearity correction enabled: false
Boxcar width: 0
Storing dark spectrum: false
XAxis mode: Wavelengths
Number of Pixels in Spectrum: 1024
>>>>>Begin Spectral Data<<<<<
801.071	27998
801.214	28002
801.356	27804
801.499	27610
801.641	27564
801.783	27583
801.926	27603
802.068	27549
802.211	27443
802.353	27542
802.496	27321
802.638	27306
802.78	27310
802.923	27249
803.065	27165
803.208	27249
803.35	27287
803.492	27302
803.635	27306
803.777	27298
803.919	27412
804.061	27831
804.204	27431
804.346	27458
804.488	27272
804.63	27397
804.773	27310
804.915	27393
805.057	27469
805.199	27412
805.341	27591
805.483	27599
805.626	27618
805.768	27504
805.91	27633
806.052	27507
806.194	27469
806.336	27751
806.478	27633
806.62	27614
806.762	27686
806.904	27850
807.046	28215
807.188	28166
807.33	28112
807.472	28040
807.614	27918
807.756	27937
807.898	27800
808.04	27880
808.182	27739
808.324	27838
808.465	27876
808.607	28200
808.749	28090
808.891	28333
809.033	28333
809.174	28204
809.316	28257
809.458	28154
809.6	28143
809.741	28421
809.883	28443
810.025	28569
810.166	28386
810.308	28462
810.45	28447
810.591	28401
810.733	28223
810.875	28226
811.016	28109
811.158	27998
811.299	28375
811.441	28401
811.582	28299
811.724	28143
811.865	28188
812.007	28280
812.148	28017
812.29	28223
812.431	28352
812.573	28607
812.714	28763
812.855	28869
812.997	28885
813.138	28908
813.279	28866
813.421	28797
813.562	28713
813.703	28630
813.845	28504
813.986	28204
814.127	28040
814.268	27949
814.41	27922
814.551	27770
814.692	27968
814.833	27930
814.974	27903
815.115	27895
815.256	27797
815.397	27713
815.539	27873
815.68	27785
815.821	27671
815.962	27831
816.103	27747
816.244	27583
816.385	27511
816.526	27431
816.666	27264
816.807	27142
816.948	27405
817.089	27310
817.23	27264
817.371	27245
817.512	27184
817.653	27252
817.793	27169
817.934	27230
818.075	27070
818.216	27195
818.356	27116
818.497	27024
818.638	27085
818.778	27032
818.919	26986
819.06	27077
819.2	27199
819.341	27226
819.481	27218
819.622	27359
819.762	27443
819.903	27367
820.043	27321
820.184	27272
820.324	27351
820.465	27481
820.605	27378
820.746	27317
820.886	27138
821.026	27252
821.167	27256
821.307	27287
821.447	27241
821.588	27096
821.728	27081
821.868	26937
822.008	26663
822.149	26750
822.289	26629
822.429	26263
822.569	26309
822.709	26362
822.849	26229
822.99	26180
823.13	26210
823.27	26024
823.41	26065
823.55	26012
823.69	26058
823.83	26077
823.97	25959
824.11	25719
824.25	25753
824.389	25666
824.529	25902
824.669	25925
824.809	25986
824.949	25864
825.089	25947
825.228	25788
825.368	25605
825.508	25780
825.648	25795
825.787	25651
825.927	25772
826.067	25647
826.206	25666
826.346	25761
826.485	25791
826.625	25658
826.765	25795
826.904	25791
827.044	25518
827.183	25422
827.323	25453
827.462	25358
827.601	25304
827.741	25331
827.88	25331
828.02	25430
828.159	25251
828.298	25415
828.437	25483
828.577	25316
828.716	25556
828.855	25263
828.994	25053
829.134	25050
829.273	25095
829.412	25050
829.551	25057
829.69	25019
829.829	25088
829.968	25091
830.107	25069
830.246	25137
830.385	25057
830.524	24954
830.663	24837
830.802	24852
830.941	24700
831.08	24658
831.219	24810
831.357	24745
831.496	24962
831.635	24677
831.774	24658
831.913	24593
832.051	24509
832.19	24544
832.329	24498
832.467	24292
832.606	24372
832.744	24350
832.883	24353
833.022	24350
833.16	24323
833.299	24445
833.437	24346
833.576	24498
833.714	24445
833.852	24502
833.991	24563
834.129	24475
834.267	24471
834.406	24365
834.544	24380
834.682	24414
834.821	24437
834.959	24601
835.097	24433
835.235	24433
835.373	24429
835.511	24346
835.65	24433
835.788	24391
835.926	24209
836.064	24114
836.202	24163
836.34	24243
836.478	24369
836.615	24140
836.753	24361
836.891	24296
837.029	24281
837.167	24197
837.305	24148
837.443	24197
837.58	24079
837.718	24186
837.856	24057
837.993	24022
838.131	24144
838.269	23965
838.406	23935
838.544	23874
838.681	23760
838.819	23729
838.956	23543
839.094	23391
839.231	23566
839.369	23764
839.506	23901
839.643	23878
839.781	23566
839.918	23623
840.055	23505
840.193	23657
840.33	23463
840.467	23581
840.604	23566
840.742	23710
840.879	23387
841.016	23421
841.153	23376
841.29	23524
841.427	23604
841.564	23619
841.701	23520
841.838	23417
841.975	23273
842.112	23436
842.249	23425
842.385	23105
842.522	23459
842.659	23303
842.796	23132
842.933	23360
843.069	23216
843.206	23132
843.343	23212
843.479	23231
843.616	23143
843.752	23006
843.889	23060
844.025	23056
844.162	23029
844.298	23102
844.435	22877
844.571	22820
844.708	23003
844.844	23258
844.98	23140
845.117	23037
845.253	23090
845.389	22858
845.525	22968
845.661	22805
845.798	22698
845.934	22755
846.07	22782
846.206	22660
846.342	22759
846.478	22744
846.614	22565
846.75	22409
846.886	22470
847.022	22523
847.158	22341
847.294	22485
847.429	22474
847.565	22443
847.701	22588
847.837	22139
847.972	22249
848.108	22230
848.244	22299
848.379	21998
848.515	21972
848.65	22067
848.786	22082
848.921	22078
849.057	22223
849.192	22090
849.328	22074
849.463	22021
849.598	22017
849.734	21876
849.869	21907
850.004	21895
850.14	21778
850.275	21892
850.41	21762
850.545	21648
850.68	21732
850.815	21873
850.95	21873
851.085	21861
851.22	21739
851.355	21861
851.49	21823
851.625	21732
851.76	21876
851.895	21812
852.03	21694
852.165	21804
852.299	21857
852.434	21854
852.569	21960
852.703	21911
852.838	21960
852.973	21964
853.107	21937
853.242	21823
853.376	21713
853.511	21542
853.645	21488
853.78	21698
853.914	21701
854.048	21614
854.183	21591
854.317	21618
854.451	21819
854.585	21595
854.72	21690
854.854	21675
854.988	21618
855.122	21660
855.256	21481
855.39	21625
855.524	21713
855.658	21595
855.792	21603
855.926	21759
856.06	21675
856.194	21705
856.327	21629
856.461	21675
856.595	21534
856.729	21690
856.862	21766
856.996	21606
857.13	21732
857.263	21869
857.397	21778
857.53	21793
857.664	21690
857.797	21728
857.931	21686
858.064	21652
858.197	21701
858.331	21709
858.464	21542
858.597	21431
858.731	21686
858.864	21549
858.997	21485
859.13	21606
859.263	21557
859.396	21736
859.529	21538
859.662	21675
859.795	21595
859.928	21694
860.061	21762
860.194	21667
860.327	21542
860.46	21641
860.592	21732
860.725	21808
860.858	21808
860.99	21644
861.123	21469
861.256	21606
861.388	21686
861.521	22238
861.653	21481
861.786	21561
861.918	21477
862.05	21549
862.183	21614
862.315	21568
862.447	21629
862.58	21542
862.712	21321
862.844	21256
862.976	21370
863.108	21450
863.24	21778
863.372	21351
863.504	21386
863.636	21275
863.768	21310
863.9	21230
864.032	21241
864.164	21363
864.296	21363
864.428	21412
864.559	21382
864.691	21363
864.823	21386
864.954	21393
865.086	21203
865.217	21180
865.349	21154
865.48	21203
865.612	21302
865.743	21447
865.875	21188
866.006	21165
866.137	21176
866.269	21241
866.4	21249
866.531	21165
866.662	21055
866.793	21089
866.924	21077
867.055	21218
867.186	21321
867.317	21233
867.448	21127
867.579	21074
867.71	21176
867.841	21081
867.972	21233
868.103	21233
868.233	21188
868.364	21222
868.495	21351
868.625	21405
868.756	21599
868.886	21329
869.017	21272
869.147	21382
869.278	21534
869.408	21393
869.539	21485
869.669	21443
869.799	21481
869.929	21583
870.06	21618
870.19	21572
870.32	21690
870.45	21656
870.58	21709
870.71	21915
870.84	21918
870.97	21762
871.1	21835
871.23	21972
871.36	22070
871.489	21838
871.619	22002
871.749	22067
871.879	21922
872.008	22078
872.138	21998
872.267	22013
872.397	21918
872.526	21895
872.656	21869
872.785	21865
872.915	22158
873.044	22074
873.173	21869
873.303	22177
873.432	22006
873.561	22032
873.69	21998
873.819	22025
873.948	21892
874.077	22070
874.206	21972
874.335	22002
874.464	22147
874.593	22207
874.722	22257
874.851	22398
874.979	22306
875.108	22303
875.237	22204
875.365	22230
875.494	22192
875.623	22333
875.751	22215
875.88	22390
876.008	22398
876.136	22371
876.265	22645
876.393	22828
876.521	22664
876.65	22713
876.778	22538
876.906	22698
877.034	22481
877.162	22500
877.29	22546
877.418	22550
877.546	22596
877.674	22820
877.802	22550
877.93	22592
878.058	22485
878.185	22344
878.313	22531
878.441	22599
878.568	22318
878.696	22462
878.824	22634
878.951	22637
879.079	22820
879.206	22904
879.333	22752
879.461	22668
879.588	22641
879.715	22850
879.842	22873
879.97	22630
880.097	22470
880.224	22398
880.351	22375
880.478	22504
880.605	22341
880.732	22348
880.859	22683
880.986	22455
881.112	22379
881.239	22234
881.366	22219
881.493	22143
881.619	22032
881.746	22082
881.872	21922
881.999	21960
882.125	21975
882.252	21937
882.378	21983
882.505	22059
882.631	21709
882.757	21614
882.883	21629
883.01	21705
883.136	21637
883.262	21564
883.388	21481
883.514	21747
883.64	21644
883.766	21698
883.892	21386
884.018	21462
884.143	21667
884.269	21629
884.395	21408
884.52	21192
884.646	21321
884.772	21416
884.897	21294
885.023	21378
885.148	21450
885.274	21408
885.399	21424
885.524	21340
885.65	21275
885.775	21264
885.9	21260
886.025	21382
886.15	21485
886.275	21313
886.4	21340
886.525	21195
886.65	21310
886.775	21108
886.9	21279
887.025	21469
887.149	21237
887.274	21062
887.399	21093
887.523	21116
887.648	21081
887.773	21024
887.897	21146
888.021	21070
888.146	20986
888.27	21058
888.395	21173
888.519	21077
888.643	21096
888.767	21096
888.891	21013
889.015	20823
889.139	20872
889.263	20921
889.387	20956
889.511	21142
889.635	21001
889.759	20842
889.883	20781
890.006	20918
890.13	20937
890.254	20815
890.377	20758
890.501	20689
890.624	20594
890.748	20670
890.871	20404
890.995	20469
891.118	20503
891.241	20370
891.364	20488
891.488	20621
891.611	20507
891.734	20419
891.857	20370
891.98	20473
892.103	20499
892.226	20476
892.349	20358
892.471	20199
892.594	20233
892.717	20396
892.839	20370
892.962	20259
893.085	20282
893.207	20419
893.33	20225
893.452	20290
893.575	20328
893.697	20366
893.819	20511
893.941	20579
894.064	20385
894.186	20309
894.308	20248
894.43	20355
894.552	20450
894.674	20351
894.796	20210
894.918	20248
895.04	20263
895.161	20461
895.283	20339
895.405	20286
895.526	20278
895.648	20393
895.769	20469
895.891	20370
896.012	20374
896.134	20343
896.255	20358
896.376	20328
896.498	20355
896.619	20332
896.74	20408
896.861	20366
896.982	20648
897.103	20689
897.224	20682
897.345	20488
897.466	20488
897.587	20434
897.708	20724
897.828	20659
897.949	20366
898.07	20286
898.19	20457
898.311	20568
898.431	20518
898.552	20545
898.672	20503
898.792	20632
898.913	20545
899.033	20351
899.153	20336
899.273	20267
899.393	20286
899.513	20431
899.633	20286
899.753	20290
899.873	20259
899.993	20366
900.113	20176
900.232	20305
900.352	20164
900.472	20065
900.591	20035
900.711	20107
900.83	19989
900.95	20214
901.069	20206
901.189	20027
901.308	19799
901.427	19700
901.546	19696
901.665	19632
901.784	19700
901.904	19563
902.023	19384
902.141	19304
902.26	19202
902.379	19354
902.498	19152
902.617	19053
902.735	19365
902.854	19129
902.973	19099
903.091	18787
903.21	18825
903.328	18825
903.446	18681
903.565	18661
903.683	18544
903.801	18593
903.919	18547
904.038	18570
904.156	18445
904.274	18486
904.392	18376
904.51	18395
904.627	18292
904.745	18452
904.863	18399
904.981	18197
905.098	18117
905.216	18026
905.334	18117
905.451	18060
905.569	18011
905.686	18019
905.803	18102
905.921	17783
906.038	18045
906.155	17851
906.272	17748
906.389	17813
906.506	17611
906.623	17691
906.74	17592
906.857	17486
906.974	17395
907.091	17577
907.208	17623
907.324	17657
907.441	17566
907.557	17376
907.674	17235
907.79	17235
907.907	17212
908.023	17303
908.139	17337
908.256	17166
908.372	17208
908.488	17250
908.604	16911
908.72	17064
908.836	17014
908.952	16942
909.068	17079
909.184	17121
909.3	16976
909.415	17113
909.531	17010
909.647	16733
909.762	16828
909.878	16713
909.993	16786
910.108	16630
910.224	16717
910.339	16569
910.454	16561
910.57	16554
910.685	16478
910.8	16801
910.915	16656
911.03	16481
911.145	16474
911.259	16257
911.374	16356
911.489	16219
911.604	16215
911.718	16044
911.833	16067
911.947	15975
912.062	15979
912.176	16139
912.291	16188
912.405	16120
912.519	16181
912.633	16322
912.748	16166
912.862	16010
912.976	15949
913.09	15781
913.204	15736
913.318	15743
913.431	15911
913.545	15949
913.659	15922
913.772	15880
913.886	15743
914	15694
914.113	15656
914.226	15793
914.34	15759
914.453	15599
914.566	15675
914.68	15614
914.793	15511
914.906	15393
915.019	15313
915.132	15184
915.245	15237
915.358	15230
915.47	15283
915.583	15264
915.696	15351
915.809	15378
915.921	15473
916.034	15230
916.146	15173
916.259	15294
916.371	15207
916.483	15218
916.595	15112
916.708	15131
916.82	15142
916.932	15047
917.044	15039
917.156	14986
917.268	14925
917.38	15047
917.491	14971
917.603	14902
917.715	14921
917.826	14967
917.938	14895
918.049	14788
918.161	14800
918.272	14975
918.384	14906
918.495	14838
918.606	14758
918.717	14526
918.828	14708
918.939	14739
919.05	14594
919.161	14663
919.272	14518
919.383	14446
919.494	14762
919.604	14876
919.715	14640
919.826	14625
919.936	14549
920.047	14610
920.157	14632
920.267	14804
920.378	14621
920.488	14693
920.598	14781
920.708	14963
920.818	14819
920.928	14815
921.038	14887
921.148	14899
921.258	14579
921.368	14526
921.477	14419
921.587	14415
921.697	14202
921.806	14389
921.916	14294
922.025	14096
922.134	14027
922.244	14050
922.353	14027
922.462	13936
922.571	13795
922.68	13696
922.789	13666
922.898	13613
923.007	13578
923.116	13632
923.224	13624
923.333	13712
923.442	13480
923.55	13407
923.659	13464
923.767	13594
923.876	13445
923.984	13502
924.092	13331
924.201	13411
924.309	13392
924.417	13457
924.525	13358
924.633	13228
924.741	14062
924.849	13129
924.956	13304
925.064	13149
925.172	13034
925.279	13034
925.387	13053
925.494	13088
925.602	13164
925.709	13129
925.816	12989
925.924	13095
926.031	13084
926.138	13114
926.245	13114
926.352	12897
926.459	13057
926.566	13107
926.673	13031
926.779	12844
926.886	12863
926.993	12749
927.099	12726
927.206	12555
927.312	12635
927.419	12654
927.525	12662
927.631	12673
927.737	12460
927.843	12509
927.95	12456
928.056	12445
928.162	12483
928.267	12532
928.373	13069
928.479	12642
928.585	12292
928.69	12429
928.796	12426
928.901	12330
929.007	12175
929.112	12365
929.218	12273
929.323	12289
929.428	12095
929.533	12296
929.638	12007
929.743	12091
929.848	12235
929.953	12125
930.058	12049
930.163	11885
930.267	11809
930.372	11999
930.477	11794
930.581	12106
930.685	11855
930.79	11783
930.894	11726
930.998	11733
931.103	11897
931.207	11459
931.311	11448
931.415	11322
931.519	11121
931.623	11124
