Data from test_V78500241_55.txt Node
Date: Fri Mar 25 15:42:10 CST 2022
User: usil
Spectrometer: V785-0024
Trigger mode: 0
Integration Time (sec): 4.000000E-1
Scans to average: 1
Nonlinearity correction enabled: false
Boxcar width: 0
Storing dark spectrum: false
XAxis mode: Wavelengths
Number of Pixels in Spectrum: 1024
>>>>>Begin Spectral Data<<<<<
801.071	29703
801.214	29589
801.356	29315
801.499	29258
801.641	29223
801.783	29197
801.926	29239
802.068	29231
802.211	29094
802.353	28896
802.496	28915
802.638	28653
802.78	28793
802.923	28649
803.065	28546
803.208	28767
803.35	28702
803.492	28896
803.635	28919
803.777	28888
803.919	28953
804.061	29292
804.204	29037
804.346	28854
804.488	28759
804.63	28763
804.773	28774
804.915	28961
805.057	29041
805.199	28763
805.341	28957
805.483	29052
805.626	28938
805.768	28847
805.91	28942
806.052	28995
806.194	28900
806.336	29178
806.478	28946
806.62	28946
806.762	28991
806.904	29208
807.046	29337
807.188	29334
807.33	29220
807.472	29486
807.614	29261
807.756	29277
807.898	29140
808.04	29185
808.182	29102
808.324	29200
808.465	29193
808.607	29322
808.749	29452
808.891	29672
809.033	29467
809.174	29570
809.316	29440
809.458	29398
809.6	29474
809.741	29627
809.883	29611
810.025	29623
810.166	29821
810.308	29851
810.45	29699
810.591	29665
810.733	29608
810.875	29341
811.016	29280
811.158	29402
811.299	29493
811.441	29589
811.582	29577
811.724	29349
811.865	29391
812.007	29452
812.148	29444
812.29	29353
812.431	29539
812.573	29813
812.714	29836
812.855	29923
812.997	29973
813.138	30087
813.279	30076
813.421	29931
813.562	29786
813.703	29676
813.845	29634
813.986	29299
814.127	29155
814.268	29041
814.41	29090
814.551	28991
814.692	29124
814.833	28953
814.974	28862
815.115	28972
815.256	28869
815.397	28843
815.539	28820
815.68	28736
815.821	28630
815.962	28691
816.103	28736
816.244	28653
816.385	28371
816.526	28436
816.666	28169
816.807	28181
816.948	28215
817.089	28238
817.23	28093
817.371	28090
817.512	28150
817.653	28143
817.793	28074
817.934	28139
818.075	28105
818.216	28025
818.356	28097
818.497	28017
818.638	27918
818.778	27713
818.919	27770
819.06	27823
819.2	27895
819.341	27945
819.481	28051
819.622	28067
819.762	28280
819.903	28219
820.043	28097
820.184	28120
820.324	28097
820.465	28044
820.605	28090
820.746	28059
820.886	27861
821.026	28032
821.167	27983
821.307	28139
821.447	28002
821.588	27793
821.728	27911
821.868	27633
822.008	27458
822.149	27397
822.289	27469
822.429	27116
822.569	27043
822.709	27043
822.849	26800
822.99	26880
823.13	26868
823.27	26921
823.41	26667
823.55	26678
823.69	26644
823.83	26598
823.97	26545
824.11	26507
824.25	26389
824.389	26438
824.529	26518
824.669	26396
824.809	26469
824.949	26564
825.089	26644
825.228	26518
825.368	26252
825.508	26351
825.648	26202
825.787	26240
825.927	26084
826.067	26278
826.206	26183
826.346	26263
826.485	26229
826.625	26328
826.765	26218
826.904	26157
827.044	26058
827.183	25974
827.323	25856
827.462	26062
827.601	25849
827.741	25959
827.88	25807
828.02	25837
828.159	25852
828.298	25795
828.437	25799
828.577	25845
828.716	25932
828.855	25799
828.994	25499
829.134	25563
829.273	25575
829.412	25540
829.551	25343
829.69	25495
829.829	25487
829.968	25499
830.107	25632
830.246	25563
830.385	25327
830.524	25438
830.663	25183
830.802	25152
830.941	25050
831.08	25088
831.219	25114
831.357	25076
831.496	25156
831.635	25008
831.774	25027
831.913	25008
832.051	24973
832.19	24840
832.329	24791
832.467	24715
832.606	24726
832.744	24639
832.883	24673
833.022	24715
833.16	24582
833.299	24696
833.437	24604
833.576	24749
833.714	24707
833.852	24722
833.991	24707
834.129	24772
834.267	24806
834.406	24563
834.544	24749
834.682	24642
834.821	24650
834.959	24760
835.097	24528
835.235	24696
835.373	24654
835.511	24566
835.65	24433
835.788	24525
835.926	24384
836.064	24251
836.202	24182
836.34	24509
836.478	24616
836.615	24441
836.753	24498
836.891	24502
837.029	24464
837.167	24410
837.305	24369
837.443	24369
837.58	24232
837.718	24445
837.856	24384
837.993	24224
838.131	24300
838.269	24171
838.406	24030
838.544	24083
838.681	23901
838.819	23885
838.956	23676
839.094	23752
839.231	23596
839.369	23874
839.506	24136
839.643	23893
839.781	23741
839.918	23672
840.055	23627
840.193	23608
840.33	23512
840.467	23551
840.604	23600
840.742	23954
840.879	23452
841.016	23459
841.153	23402
841.29	23653
841.427	23634
841.564	23448
841.701	23509
841.838	23558
841.975	23474
842.112	23486
842.249	23261
842.385	23318
842.522	23417
842.659	23436
842.796	23147
842.933	23345
843.069	23189
843.206	23265
843.343	23189
843.479	23239
843.616	23246
843.752	22877
843.889	23048
844.025	22968
844.162	22904
844.298	22896
844.435	22938
844.571	22949
844.708	22957
844.844	23113
844.98	22984
845.117	23151
845.253	22953
845.389	22767
845.525	22949
845.661	22801
845.798	22744
845.934	22744
846.07	22653
846.206	22744
846.342	22771
846.478	22550
846.614	22428
846.75	22417
846.886	22249
847.022	22428
847.158	22276
847.294	22360
847.429	22390
847.565	22196
847.701	22523
847.837	21998
847.972	21972
848.108	22139
848.244	22147
848.379	21949
848.515	21793
848.65	21808
848.786	21964
848.921	21968
849.057	22070
849.192	21983
849.328	21953
849.463	21892
849.598	21876
849.734	21892
849.869	21857
850.004	21713
850.14	21519
850.275	21720
850.41	21526
850.545	21671
850.68	21629
850.815	21675
850.95	21641
851.085	21922
851.22	21755
851.355	21785
851.49	21610
851.625	21663
851.76	21755
851.895	21420
852.03	21557
852.165	21637
852.299	21641
852.434	21709
852.569	21671
852.703	21614
852.838	21629
852.973	21698
853.107	21728
853.242	21595
853.376	21488
853.511	21363
853.645	21287
853.78	21637
853.914	21420
854.048	21408
854.183	21420
854.317	21408
854.451	21564
854.585	21348
854.72	21363
854.854	21466
854.988	21351
855.122	21389
855.256	21241
855.39	21488
855.524	21580
855.658	21481
855.792	21401
855.926	21523
856.06	21515
856.194	21526
856.327	21393
856.461	21367
856.595	21325
856.729	21405
856.862	21420
856.996	21507
857.13	21420
857.263	21485
857.397	21530
857.53	21408
857.664	21473
857.797	21481
857.931	21583
858.064	21424
858.197	21515
858.331	21340
858.464	21359
858.597	21214
858.731	21340
858.864	21348
858.997	21222
859.13	21355
859.263	21389
859.396	21428
859.529	21348
859.662	21252
859.795	21230
859.928	21279
860.061	21435
860.194	21439
860.327	21264
860.46	21294
860.592	21359
860.725	21393
860.858	21397
860.99	21359
861.123	21283
861.256	21363
861.388	21283
861.521	22021
861.653	21313
861.786	21165
861.918	21348
862.05	21302
862.183	21321
862.315	21462
862.447	21473
862.58	21348
862.712	21180
862.844	21169
862.976	21184
863.108	21100
863.24	21450
863.372	20975
863.504	21104
863.636	20887
863.768	21081
863.9	21032
864.032	20891
864.164	21005
864.296	20975
864.428	21096
864.559	21089
864.691	21142
864.823	21032
864.954	20982
865.086	20990
865.217	20944
865.349	20921
865.48	20937
865.612	20998
865.743	20986
865.875	20982
866.006	20834
866.137	20902
866.269	20887
866.4	20887
866.531	20868
866.662	20811
866.793	20701
866.924	20941
867.055	20918
867.186	20811
867.317	20754
867.448	20663
867.579	20678
867.71	20693
867.841	20724
867.972	20826
868.103	20815
868.233	20921
868.364	20708
868.495	20823
868.625	20925
868.756	21119
868.886	20929
869.017	21020
869.147	21123
869.278	21161
869.408	21146
869.539	21116
869.669	21180
869.799	21230
869.929	21169
870.06	21150
870.19	21359
870.32	21294
870.45	21534
870.58	21420
870.71	21603
870.84	21500
870.97	21435
871.1	21393
871.23	21759
871.36	21766
871.489	21530
871.619	21641
871.749	21625
871.879	21675
872.008	21682
872.138	21720
872.267	21648
872.397	21583
872.526	21424
872.656	21450
872.785	21519
872.915	21682
873.044	21778
873.173	21671
873.303	21747
873.432	21762
873.561	21812
873.69	21671
873.819	21751
873.948	21819
874.077	21789
874.206	21637
874.335	21720
874.464	21755
874.593	21892
874.722	21842
874.851	21911
874.979	21899
875.108	22021
875.237	21873
875.365	21781
875.494	21911
875.623	21930
875.751	21873
875.88	21926
876.008	21994
876.136	22131
876.265	22284
876.393	22375
876.521	22417
876.65	22360
876.778	22318
876.906	22109
877.034	22173
877.162	22253
877.29	22242
877.418	22344
877.546	22367
877.674	22348
877.802	22367
877.93	22246
878.058	22166
878.185	22230
878.313	22204
878.441	22242
878.568	22097
878.696	22265
878.824	22284
878.951	22382
879.079	22390
879.206	22508
879.333	22310
879.461	22306
879.588	22363
879.715	22474
879.842	22584
879.97	22284
880.097	22116
880.224	22025
880.351	22055
880.478	22067
880.605	22150
880.732	22051
880.859	22363
880.986	22173
881.112	22063
881.239	22036
881.366	21842
881.493	21964
881.619	21797
881.746	21656
881.872	21701
881.999	21739
882.125	21743
882.252	21629
882.378	21663
882.505	21808
882.631	21488
882.757	21256
882.883	21507
883.01	21469
883.136	21496
883.262	21359
883.388	21230
883.514	21374
883.64	21473
883.766	21473
883.892	21146
884.018	21195
884.143	21374
884.269	21332
884.395	21081
884.52	20986
884.646	21169
884.772	21062
884.897	20849
885.023	21047
885.148	21081
885.274	21039
885.399	21039
885.524	20979
885.65	21127
885.775	21077
885.9	21020
886.025	21116
886.15	21047
886.275	20998
886.4	20910
886.525	20963
886.65	20929
886.775	20910
886.9	21173
887.025	21192
887.149	20990
887.274	20788
887.399	20849
887.523	20769
887.648	20705
887.773	20686
887.897	20849
888.021	20735
888.146	20686
888.27	20834
888.395	20785
888.519	20781
888.643	20758
888.767	20731
888.891	20629
889.015	20499
889.139	20636
889.263	20492
889.387	20663
889.511	20796
889.635	20632
889.759	20461
889.883	20495
890.006	20549
890.13	20606
890.254	20408
890.377	20362
890.501	20298
890.624	20248
890.748	20362
890.871	20111
890.995	20039
891.118	20054
891.241	20134
891.364	20069
891.488	20267
891.611	20210
891.734	20027
891.857	20195
891.98	20130
892.103	20180
892.226	20077
892.349	20024
892.471	19947
892.594	20050
892.717	19993
892.839	20050
892.962	20149
893.085	20054
893.207	19925
893.33	19890
893.452	20046
893.575	20092
893.697	19970
893.819	20164
893.941	20259
894.064	20073
894.186	19986
894.308	20016
894.43	20195
894.552	20210
894.674	20142
894.796	19913
894.918	20024
895.04	19989
895.161	20058
895.283	20035
895.405	19860
895.526	19928
895.648	19955
895.769	19989
895.891	20122
896.012	20088
896.134	19993
896.255	20031
896.376	20069
896.498	19997
896.619	20065
896.74	20111
896.861	20100
896.982	20415
897.103	20598
897.224	20294
897.345	20263
897.466	20271
897.587	20298
897.708	20400
897.828	20252
897.949	20202
898.07	20039
898.19	20119
898.311	20309
898.431	20343
898.552	20126
898.672	20199
898.792	20263
898.913	20263
899.033	20134
899.153	19978
899.273	19818
899.393	19845
899.513	19936
899.633	19864
899.753	19898
899.873	19799
899.993	19909
900.113	19879
900.232	19852
900.352	19822
900.472	19765
900.591	19628
900.711	19757
900.83	19734
900.95	19791
901.069	19849
901.189	19677
901.308	19438
901.427	19339
901.546	19350
901.665	19354
901.784	19255
901.904	19270
902.023	19072
902.141	18890
902.26	18856
902.379	18760
902.498	18707
902.617	18722
902.735	18852
902.854	18791
902.973	18726
903.091	18517
903.21	18410
903.328	18464
903.446	18353
903.565	18182
903.683	18254
903.801	18110
903.919	18346
904.038	18239
904.156	18186
904.274	18095
904.392	18007
904.51	17973
904.627	17999
904.745	18076
904.863	18060
904.981	17748
905.098	17756
905.216	17764
905.334	17802
905.451	17718
905.569	17623
905.686	17699
905.803	17600
905.921	17478
906.038	17661
906.155	17387
906.272	17368
906.389	17322
906.506	17242
906.623	17261
906.74	17208
906.857	17010
906.974	17060
907.091	17277
907.208	17414
907.324	17288
907.441	17132
907.557	16911
907.674	16896
907.79	16782
907.907	16946
908.023	16889
908.139	16805
908.256	16854
908.372	16793
908.488	16702
908.604	16588
908.72	16558
908.836	16478
908.952	16596
909.068	16630
909.184	16698
909.3	16626
909.415	16641
909.531	16443
909.647	16268
909.762	16268
909.878	16185
909.993	16325
910.108	16272
910.224	16166
910.339	16226
910.454	16128
910.57	16128
910.685	16048
910.8	16173
910.915	16185
911.03	16040
911.145	15876
911.259	15899
911.374	15842
911.489	15842
911.604	15698
911.718	15709
911.833	15526
911.947	15469
912.062	15485
912.176	15614
912.291	15705
912.405	15580
912.519	15694
912.633	15876
912.748	15568
912.862	15549
912.976	15469
913.09	15298
913.204	15249
913.318	15462
913.431	15549
913.545	15462
913.659	15523
913.772	15378
913.886	15321
914	15192
914.113	15241
914.226	15370
914.34	15188
914.453	15097
914.566	15275
914.68	15066
914.793	15020
914.906	14815
915.019	14956
915.132	14785
915.245	14804
915.358	14941
915.47	14876
915.583	14868
915.696	14921
915.809	14944
915.921	14842
916.034	14804
916.146	14731
916.259	14655
916.371	14876
916.483	14762
916.595	14724
916.708	14762
916.82	14613
916.932	14682
917.044	14560
917.156	14419
917.268	14503
917.38	14579
917.491	14454
917.603	14377
917.715	14568
917.826	14442
917.938	14370
918.049	14271
918.161	14412
918.272	14499
918.384	14473
918.495	14408
918.606	14320
918.717	14180
918.828	14225
918.939	14286
919.05	14187
919.161	14305
919.272	13932
919.383	14088
919.494	14214
919.604	14408
919.715	14221
919.826	14100
919.936	14180
920.047	14164
920.157	14218
920.267	14377
920.378	14123
920.488	14096
920.598	14278
920.708	14476
920.818	14343
920.928	14267
921.038	14393
921.148	14366
921.258	14157
921.368	13955
921.477	13902
921.587	13814
921.697	13791
921.806	13849
921.916	13723
922.025	13628
922.134	13540
922.244	13529
922.353	13590
922.462	13346
922.571	13293
922.68	13160
922.789	13255
922.898	13149
923.007	13202
923.116	13206
923.224	13171
923.333	13099
923.442	13019
923.55	13019
923.659	13084
923.767	13122
923.876	12977
923.984	13031
924.092	12905
924.201	12928
924.309	12897
924.417	12943
924.525	12833
924.633	12928
924.741	13723
924.849	12692
924.956	12856
925.064	12658
925.172	12650
925.279	12544
925.387	12525
925.494	12536
925.602	12734
925.709	12631
925.816	12555
925.924	12563
926.031	12631
926.138	12559
926.245	12513
926.352	12445
926.459	12570
926.566	12585
926.673	12418
926.779	12403
926.886	12403
926.993	12205
927.099	12224
927.206	12091
927.312	12159
927.419	12194
927.525	12175
927.631	12182
927.737	12133
927.843	11969
927.95	11878
928.056	11996
928.162	12152
928.267	12106
928.373	12635
928.479	12026
928.585	11824
928.69	11999
928.796	12007
928.901	11870
929.007	11714
929.112	11946
929.218	11874
929.323	11771
929.428	11680
929.533	11794
929.638	11653
929.743	11653
929.848	11684
929.953	11657
930.058	11535
930.163	11402
930.267	11478
930.372	11532
930.477	11414
930.581	11592
930.685	11433
930.79	11341
930.894	11269
930.998	11273
931.103	11452
931.207	10923
931.311	11033
931.415	10843
931.519	10660
931.623	10653
