Data from test_V78500241_750.txt Node
Date: Fri Mar 25 15:46:59 CST 2022
User: usil
Spectrometer: V785-0024
Trigger mode: 0
Integration Time (sec): 4.000000E-1
Scans to average: 1
Nonlinearity correction enabled: false
Boxcar width: 0
Storing dark spectrum: false
XAxis mode: Wavelengths
Number of Pixels in Spectrum: 1024
>>>>>Begin Spectral Data<<<<<
801.071	28257
801.214	28063
801.356	27762
801.499	27774
801.641	27701
801.783	27770
801.926	27797
802.068	27831
802.211	27587
802.353	27572
802.496	27481
802.638	27439
802.78	27370
802.923	27306
803.065	27374
803.208	27427
803.35	27450
803.492	27454
803.635	27481
803.777	27374
803.919	27675
804.061	27880
804.204	27732
804.346	27515
804.488	27564
804.63	27466
804.773	27519
804.915	27671
805.057	27690
805.199	27545
805.341	27637
805.483	27606
805.626	27762
805.768	27671
805.91	27762
806.052	27671
806.194	27667
806.336	27880
806.478	27694
806.62	27759
806.762	27869
806.904	27949
807.046	28287
807.188	28116
807.33	28036
807.472	28226
807.614	28166
807.756	28158
807.898	28067
808.04	27918
808.182	27914
808.324	28051
808.465	28101
808.607	28280
808.749	28379
808.891	28569
809.033	28733
809.174	28386
809.316	28440
809.458	28375
809.6	28341
809.741	28565
809.883	28702
810.025	28729
810.166	28717
810.308	28603
810.45	28592
810.591	28596
810.733	28481
810.875	28329
811.016	28169
811.158	28310
811.299	28569
811.441	28516
811.582	28542
811.724	28398
811.865	28409
812.007	28409
812.148	28417
812.29	28405
812.431	28478
812.573	28752
812.714	28786
812.855	28976
812.997	29022
813.138	29174
813.279	29117
813.421	29029
813.562	28801
813.703	28873
813.845	28523
813.986	28451
814.127	28204
814.268	28116
814.41	28204
814.551	28010
814.692	28177
814.833	27972
814.974	28093
815.115	28207
815.256	28055
815.397	27987
815.539	27903
815.68	27914
815.821	27869
815.962	27956
816.103	27857
816.244	27739
816.385	27736
816.526	27614
816.666	27500
816.807	27393
816.948	27538
817.089	27462
817.23	27363
817.371	27340
817.512	27439
817.653	27340
817.793	27393
817.934	27553
818.075	27367
818.216	27424
818.356	27370
818.497	27336
818.638	27127
818.778	27192
818.919	27218
819.06	27252
819.2	27336
819.341	27336
819.481	27447
819.622	27591
819.762	27690
819.903	27641
820.043	27553
820.184	27485
820.324	27606
820.465	27557
820.605	27557
820.746	27481
820.886	27351
821.026	27488
821.167	27587
821.307	27542
821.447	27462
821.588	27176
821.728	27154
821.868	27108
822.008	26937
822.149	26998
822.289	26777
822.429	26701
822.569	26590
822.709	26640
822.849	26461
822.99	26400
823.13	26317
823.27	26244
823.41	26164
823.55	26024
823.69	26199
823.83	26149
823.97	26259
824.11	26050
824.25	26069
824.389	26088
824.529	26031
824.669	25989
824.809	26161
824.949	26065
825.089	26138
825.228	26096
825.368	25845
825.508	25799
825.648	25856
825.787	25906
825.927	25951
826.067	25826
826.206	25887
826.346	25966
826.485	25978
826.625	25761
826.765	26153
826.904	25986
827.044	25681
827.183	25719
827.323	25453
827.462	25651
827.601	25548
827.741	25578
827.88	25689
828.02	25430
828.159	25616
828.298	25605
828.437	25601
828.577	25643
828.716	25761
828.855	25518
828.994	25449
829.134	25377
829.273	25304
829.412	25377
829.551	25369
829.69	25312
829.829	25274
829.968	25400
830.107	25422
830.246	25324
830.385	25285
830.524	25289
830.663	24954
830.802	25000
830.941	24947
831.08	24810
831.219	24901
831.357	24992
831.496	25160
831.635	24928
831.774	24795
831.913	24859
832.051	24768
832.19	24817
832.329	24688
832.467	24753
832.606	24623
832.744	24574
832.883	24620
833.022	24494
833.16	24658
833.299	24661
833.437	24631
833.576	24665
833.714	24700
833.852	24753
833.991	24806
834.129	24776
834.267	24719
834.406	24730
834.544	24692
834.682	24627
834.821	24719
834.959	24795
835.097	24635
835.235	24669
835.373	24768
835.511	24658
835.65	24669
835.788	24460
835.926	24452
836.064	24384
836.202	24330
836.34	24616
836.478	24544
836.615	24369
836.753	24540
836.891	24574
837.029	24650
837.167	24448
837.305	24426
837.443	24304
837.58	24441
837.718	24452
837.856	24311
837.993	24346
838.131	24201
838.269	24129
838.406	24171
838.544	24155
838.681	23958
838.819	23980
838.956	23828
839.094	23714
839.231	23783
839.369	23889
839.506	24106
839.643	24136
839.781	23745
839.918	23707
840.055	23779
840.193	23817
840.33	23775
840.467	23904
840.604	23771
840.742	23958
840.879	23543
841.016	23634
841.153	23638
841.29	23786
841.427	23600
841.564	23790
841.701	23790
841.838	23642
841.975	23634
842.112	23627
842.249	23558
842.385	23463
842.522	23722
842.659	23589
842.796	23383
842.933	23570
843.069	23497
843.206	23353
843.343	23497
843.479	23467
843.616	23395
843.752	23208
843.889	23193
844.025	23387
844.162	23258
844.298	23288
844.435	23292
844.571	23220
844.708	23326
844.844	23330
844.98	23318
845.117	23402
845.253	23071
845.389	23090
845.525	23067
845.661	23037
845.798	22908
845.934	23014
846.07	22877
846.206	22889
846.342	22972
846.478	22946
846.614	22736
846.75	22557
846.886	22622
847.022	22725
847.158	22725
847.294	22687
847.429	22740
847.565	22611
847.701	22934
847.837	22352
847.972	22443
848.108	22516
848.244	22478
848.379	22291
848.515	22280
848.65	22139
848.786	22177
848.921	22306
849.057	22242
849.192	22306
849.328	22314
849.463	22337
849.598	22344
849.734	22204
849.869	22078
850.004	22101
850.14	22128
850.275	22006
850.41	21899
850.545	21968
850.68	21926
850.815	22105
850.95	22048
851.085	22333
851.22	22040
851.355	22036
851.49	21945
851.625	22006
851.76	21991
851.895	21934
852.03	21937
852.165	22025
852.299	22109
852.434	22097
852.569	22048
852.703	22025
852.838	22078
852.973	22196
853.107	22196
853.242	21953
853.376	21842
853.511	21728
853.645	21869
853.78	22063
853.914	21895
854.048	21819
854.183	21641
854.317	21907
854.451	22013
854.585	21838
854.72	21838
854.854	21857
854.988	21804
855.122	21873
855.256	21770
855.39	21861
855.524	21937
855.658	21827
855.792	21812
855.926	21800
856.06	21918
856.194	21960
856.327	21838
856.461	21797
856.595	21915
856.729	21827
856.862	22010
856.996	21994
857.13	21915
857.263	21964
857.397	21934
857.53	21842
857.664	21854
857.797	21937
857.931	21953
858.064	21895
858.197	21945
858.331	21846
858.464	21831
858.597	21671
858.731	21880
858.864	21888
858.997	21972
859.13	21945
859.263	21797
859.396	21869
859.529	21770
859.662	21918
859.795	21770
859.928	21778
860.061	22063
860.194	22109
860.327	21964
860.46	21865
860.592	22017
860.725	22097
860.858	21918
860.99	21827
861.123	21873
861.256	21812
861.388	21823
861.521	22573
861.653	21724
861.786	21523
861.918	21682
862.05	21797
862.183	21823
862.315	21865
862.447	21930
862.58	21827
862.712	21614
862.844	21511
862.976	21675
863.108	21701
863.24	22059
863.372	21485
863.504	21576
863.636	21507
863.768	21564
863.9	21644
864.032	21466
864.164	21583
864.296	21557
864.428	21747
864.559	21656
864.691	21641
864.823	21606
864.954	21652
865.086	21538
865.217	21439
865.349	21306
865.48	21526
865.612	21450
865.743	21637
865.875	21500
866.006	21450
866.137	21488
866.269	21416
866.4	21431
866.531	21439
866.662	21363
866.793	21443
866.924	21412
867.055	21545
867.186	21526
867.317	21332
867.448	21325
867.579	21351
867.71	21260
867.841	21241
867.972	21329
868.103	21302
868.233	21435
868.364	21416
868.495	21454
868.625	21576
868.756	21641
868.886	21534
869.017	21720
869.147	21789
869.278	21682
869.408	21606
869.539	21530
869.669	21614
869.799	21652
869.929	21709
870.06	21751
870.19	21831
870.32	21789
870.45	21926
870.58	21983
870.71	22135
870.84	22143
870.97	21983
871.1	22036
871.23	22166
871.36	22287
871.489	22215
871.619	22196
871.749	22249
871.879	22253
872.008	22360
872.138	22249
872.267	22299
872.397	22116
872.526	22093
872.656	22013
872.785	22097
872.915	22188
873.044	22318
873.173	22276
873.303	22257
873.432	22329
873.561	22306
873.69	22162
873.819	22276
873.948	22276
874.077	22303
874.206	22192
874.335	22234
874.464	22390
874.593	22508
874.722	22421
874.851	22356
874.979	22470
875.108	22421
875.237	22405
875.365	22344
875.494	22508
875.623	22447
875.751	22424
875.88	22451
876.008	22573
876.136	22607
876.265	22831
876.393	22930
876.521	22839
876.65	22892
876.778	22824
876.906	22759
877.034	22774
877.162	22759
877.29	22729
877.418	22809
877.546	22702
877.674	22748
877.802	22797
877.93	22824
878.058	22607
878.185	22759
878.313	22717
878.441	22653
878.568	22622
878.696	22778
878.824	22805
878.951	22774
879.079	22961
879.206	23041
879.333	22976
879.461	22774
879.588	22767
879.715	22934
879.842	23044
879.97	22820
880.097	22577
880.224	22675
880.351	22634
880.478	22584
880.605	22550
880.732	22542
880.859	22744
880.986	22592
881.112	22607
881.239	22542
881.366	22306
881.493	22238
881.619	22238
881.746	22188
881.872	22169
881.999	22226
882.125	22219
882.252	22196
882.378	22226
882.505	22390
882.631	21953
882.757	21816
882.883	21979
883.01	21884
883.136	21766
883.262	21785
883.388	21789
883.514	21945
883.64	21884
883.766	21762
883.892	21660
884.018	21656
884.143	21857
884.269	21846
884.395	21492
884.52	21420
884.646	21530
884.772	21416
884.897	21397
885.023	21610
885.148	21618
885.274	21671
885.399	21652
885.524	21595
885.65	21507
885.775	21443
885.9	21595
886.025	21492
886.15	21580
886.275	21534
886.4	21374
886.525	21431
886.65	21405
886.775	21393
886.9	21656
887.025	21724
887.149	21439
887.274	21348
887.399	21344
887.523	21184
887.648	21245
887.773	21157
887.897	21382
888.021	21374
888.146	21256
888.27	21401
888.395	21268
888.519	21424
888.643	21264
888.767	21367
888.891	21211
889.015	21093
889.139	21302
889.263	21112
889.387	21116
889.511	21374
889.635	21268
889.759	20994
889.883	21116
890.006	21165
890.13	21096
890.254	20998
890.377	20986
890.501	20899
890.624	20887
890.748	20823
890.871	20724
890.995	20587
891.118	20575
891.241	20590
891.364	20621
891.488	20765
891.611	20579
891.734	20750
891.857	20625
891.98	20465
892.103	20678
892.226	20693
892.349	20613
892.471	20305
892.594	20606
892.717	20518
892.839	20533
892.962	20560
893.085	20552
893.207	20594
893.33	20393
893.452	20457
893.575	20606
893.697	20575
893.819	20682
893.941	20720
894.064	20587
894.186	20431
894.308	20442
894.43	20651
894.552	20598
894.674	20697
894.796	20450
894.918	20503
895.04	20568
895.161	20571
895.283	20465
895.405	20385
895.526	20560
895.648	20427
895.769	20571
895.891	20537
896.012	20613
896.134	20602
896.255	20526
896.376	20530
896.498	20522
896.619	20629
896.74	20511
896.861	20488
896.982	20834
897.103	20967
897.224	20727
897.345	20815
897.466	20602
897.587	20701
897.708	20887
897.828	20743
897.949	20724
898.07	20606
898.19	20632
898.311	20883
898.431	20739
898.552	20727
898.672	20701
898.792	20815
898.913	20731
899.033	20644
899.153	20514
899.273	20571
899.393	20571
899.513	20560
899.633	20530
899.753	20590
899.873	20412
899.993	20465
900.113	20438
900.232	20556
900.352	20381
900.472	20343
900.591	20225
900.711	20237
900.83	20134
900.95	20339
901.069	20374
901.189	20164
901.308	19928
901.427	19833
901.546	19738
901.665	19811
901.784	19849
901.904	19632
902.023	19578
902.141	19392
902.26	19339
902.379	19407
902.498	19339
902.617	19350
902.735	19350
902.854	19274
902.973	19198
903.091	18954
903.21	19061
903.328	18886
903.446	18875
903.565	18837
903.683	18798
903.801	18578
903.919	18707
904.038	18722
904.156	18593
904.274	18642
904.392	18555
904.51	18483
904.627	18582
904.745	18509
904.863	18700
904.981	18391
905.098	18186
905.216	18178
905.334	18300
905.451	18190
905.569	18178
905.686	18247
905.803	18258
905.921	18034
906.038	18197
906.155	18091
906.272	17916
906.389	18030
906.506	17805
906.623	17790
906.74	17676
906.857	17638
906.974	17714
907.091	17859
907.208	17855
907.324	17813
907.441	17805
907.557	17573
907.674	17448
907.79	17345
907.907	17482
908.023	17505
908.139	17482
908.256	17425
908.372	17417
908.488	17395
908.604	17250
908.72	17143
908.836	17162
908.952	17284
909.068	17147
909.184	17315
909.3	17269
909.415	17204
909.531	17143
909.647	16968
909.762	16858
909.878	16900
909.993	16881
910.108	16866
910.224	16816
910.339	16987
910.454	16774
910.57	16767
910.685	16531
910.8	16946
910.915	16790
911.03	16641
911.145	16550
911.259	16489
911.374	16428
911.489	16390
911.604	16333
911.718	16207
911.833	16257
911.947	16181
912.062	16093
912.176	16238
912.291	16382
912.405	16204
912.519	16478
912.633	16386
912.748	16261
912.862	16223
912.976	16086
913.09	15926
913.204	16002
913.318	16044
913.431	16135
913.545	16162
913.659	16116
913.772	16021
913.886	15861
914	15816
914.113	15915
914.226	15895
914.34	15975
914.453	15709
914.566	15930
914.68	15766
914.793	15690
914.906	15488
915.019	15420
915.132	15317
915.245	15405
915.358	15466
915.47	15439
915.583	15454
915.696	15431
915.809	15561
915.921	15599
916.034	15351
916.146	15275
916.259	15443
916.371	15378
916.483	15291
916.595	15264
916.708	15302
916.82	15260
916.932	15294
917.044	15241
917.156	15127
917.268	15127
917.38	15135
917.491	15161
917.603	15157
917.715	15161
917.826	15097
917.938	14963
918.049	14994
918.161	15081
918.272	15184
918.384	15154
918.495	15074
918.606	14788
918.717	14872
918.828	14857
918.939	14842
919.05	14842
919.161	14788
919.272	14705
919.383	14682
919.494	14918
919.604	15074
919.715	14849
919.826	14716
919.936	14857
920.047	14887
920.157	14857
920.267	14986
920.378	14785
920.488	14785
920.598	15036
920.708	15157
920.818	14998
920.928	14899
921.038	15085
921.148	15066
921.258	14754
921.368	14746
921.477	14621
921.587	14469
921.697	14427
921.806	14560
921.916	14396
922.025	14244
922.134	14278
922.244	14157
922.353	14252
922.462	14024
922.571	14039
922.68	13887
922.789	13875
922.898	13917
923.007	13814
923.116	13765
923.224	13761
923.333	13727
923.442	13723
923.55	13689
923.659	13696
923.767	13753
923.876	13677
923.984	13704
924.092	13624
924.201	13632
924.309	13609
924.417	13586
924.525	13506
924.633	13434
924.741	14473
924.849	13274
924.956	13457
925.064	13354
925.172	13232
925.279	13278
925.387	13247
925.494	13240
925.602	13358
925.709	13278
925.816	13145
925.924	13221
926.031	13247
926.138	13225
926.245	13289
926.352	13088
926.459	13171
926.566	13190
926.673	13027
926.779	13034
926.886	13046
926.993	12859
927.099	12886
927.206	12753
927.312	12726
927.419	12863
927.525	12753
927.631	12825
927.737	12658
927.843	12665
927.95	12589
928.056	12665
928.162	12677
928.267	12658
928.373	13110
928.479	12585
928.585	12494
928.69	12540
928.796	12559
928.901	12494
929.007	12251
929.112	12414
929.218	12384
929.323	12380
929.428	12296
929.533	12509
929.638	12338
929.743	12292
929.848	12365
929.953	12228
930.058	12175
930.163	12003
930.267	11961
930.372	12148
930.477	11908
930.581	12247
930.685	12011
930.79	11885
930.894	11954
930.998	11920
931.103	11939
931.207	11566
931.311	11653
931.415	11558
931.519	11368
931.623	11193
