Data from test_V78500241_3152.txt Node
Date: Fri Mar 25 16:03:38 CST 2022
User: usil
Spectrometer: V785-0024
Trigger mode: 0
Integration Time (sec): 4.000000E-1
Scans to average: 1
Nonlinearity correction enabled: false
Boxcar width: 0
Storing dark spectrum: false
XAxis mode: Wavelengths
Number of Pixels in Spectrum: 1024
>>>>>Begin Spectral Data<<<<<
801.071	28219
801.214	28287
801.356	28090
801.499	28063
801.641	27934
801.783	27960
801.926	27888
802.068	27895
802.211	27865
802.353	27869
802.496	27709
802.638	27580
802.78	27622
802.923	27553
803.065	27580
803.208	27526
803.35	27667
803.492	27774
803.635	27914
803.777	27686
803.919	27720
804.061	28192
804.204	27876
804.346	27652
804.488	27778
804.63	27857
804.773	27953
804.915	27770
805.057	28093
805.199	27854
805.341	27846
805.483	27960
805.626	27975
805.768	27861
805.91	28078
806.052	27972
806.194	27827
806.336	28207
806.478	28036
806.62	27956
806.762	28185
806.904	28147
807.046	28508
807.188	28447
807.33	28497
807.472	28451
807.614	28360
807.756	28504
807.898	28265
808.04	28287
808.182	28200
808.324	28344
808.465	28242
808.607	28470
808.749	28626
808.891	28721
809.033	28790
809.174	28733
809.316	28592
809.458	28748
809.6	28630
809.741	28588
809.883	28672
810.025	29025
810.166	29052
810.308	28984
810.45	28919
810.591	28892
810.733	28752
810.875	28687
811.016	28630
811.158	28538
811.299	28809
811.441	28869
811.582	28801
811.724	28645
811.865	28694
812.007	28584
812.148	28618
812.29	28797
812.431	28847
812.573	28957
812.714	29048
812.855	29162
812.997	29258
813.138	29452
813.279	29326
813.421	29189
813.562	29307
813.703	29105
813.845	28946
813.986	28660
814.127	28508
814.268	28504
814.41	28474
814.551	28405
814.692	28462
814.833	28371
814.974	28459
815.115	28386
815.256	28120
815.397	28215
815.539	28211
815.68	28246
815.821	28109
815.962	28147
816.103	28196
816.244	28010
816.385	28059
816.526	28017
816.666	27838
816.807	27595
816.948	27675
817.089	27759
817.23	27641
817.371	27759
817.512	27481
817.653	27675
817.793	27603
817.934	27686
818.075	27599
818.216	27663
818.356	27469
818.497	27500
818.638	27412
818.778	27473
818.919	27443
819.06	27526
819.2	27610
819.341	27622
819.481	27534
819.622	27876
819.762	27991
819.903	27953
820.043	27914
820.184	27827
820.324	27781
820.465	27892
820.605	27831
820.746	27827
820.886	27720
821.026	27899
821.167	27831
821.307	27819
821.447	27633
821.588	27618
821.728	27469
821.868	27272
822.008	27268
822.149	27077
822.289	27176
822.429	26868
822.569	26800
822.709	26876
822.849	26625
822.99	26735
823.13	26670
823.27	26587
823.41	26480
823.55	26427
823.69	26461
823.83	26617
823.97	26434
824.11	26229
824.25	26248
824.389	26324
824.529	26446
824.669	26389
824.809	26362
824.949	26473
825.089	26358
825.228	26473
825.368	26187
825.508	26183
825.648	26328
825.787	26252
825.927	26301
826.067	26149
826.206	26214
826.346	26332
826.485	26275
826.625	26187
826.765	26320
826.904	26298
827.044	26020
827.183	26008
827.323	25982
827.462	25936
827.601	25955
827.741	25822
827.88	25944
828.02	25727
828.159	25830
828.298	25902
828.437	25898
828.577	25795
828.716	25909
828.855	25753
828.994	25670
829.134	25445
829.273	25677
829.412	25586
829.551	25567
829.69	25468
829.829	25590
829.968	25715
830.107	25658
830.246	25677
830.385	25620
830.524	25445
830.663	25373
830.802	25240
830.941	25107
831.08	25259
831.219	25175
831.357	25331
831.496	25479
831.635	25133
831.774	25042
831.913	25228
832.051	25015
832.19	24943
832.329	25065
832.467	24966
832.606	24821
832.744	24920
832.883	24905
833.022	24886
833.16	24905
833.299	24935
833.437	24886
833.576	25031
833.714	24913
833.852	24981
833.991	25042
834.129	25069
834.267	25065
834.406	24973
834.544	24981
834.682	24863
834.821	24871
834.959	25107
835.097	24913
835.235	24924
835.373	24772
835.511	24894
835.65	24734
835.788	24882
835.926	24601
836.064	24498
836.202	24597
836.34	24776
836.478	24871
836.615	24654
836.753	24768
836.891	24734
837.029	24692
837.167	24772
837.305	24623
837.443	24631
837.58	24551
837.718	24601
837.856	24566
837.993	24631
838.131	24566
838.269	24456
838.406	24574
838.544	24407
838.681	24213
838.819	24315
838.956	24068
839.094	24045
839.231	24064
839.369	24262
839.506	24475
839.643	24296
839.781	24155
839.918	24057
840.055	24072
840.193	23980
840.33	23923
840.467	24163
840.604	24026
840.742	24323
840.879	23802
841.016	23931
841.153	23996
841.29	23912
841.427	23878
841.564	23958
841.701	23992
841.838	24034
841.975	23973
842.112	23855
842.249	23828
842.385	23615
842.522	23901
842.659	23764
842.796	23668
842.933	23672
843.069	23649
843.206	23676
843.343	23745
843.479	23691
843.616	23752
843.752	23543
843.889	23558
844.025	23646
844.162	23589
844.298	23493
844.435	23581
844.571	23334
844.708	23490
844.844	23676
844.98	23684
845.117	23687
845.253	23528
845.389	23307
845.525	23459
845.661	23292
845.798	23227
845.934	23261
846.07	23185
846.206	23296
846.342	23280
846.478	23269
846.614	23067
846.75	22995
846.886	22980
847.022	23006
847.158	22987
847.294	22938
847.429	22908
847.565	22896
847.701	23147
847.837	22660
847.972	22683
848.108	22748
848.244	22748
848.379	22774
848.515	22599
848.65	22466
848.786	22519
848.921	22580
849.057	22626
849.192	22615
849.328	22493
849.463	22508
849.598	22451
849.734	22500
849.869	22424
850.004	22363
850.14	22470
850.275	22242
850.41	22303
850.545	22173
850.68	22185
850.815	22386
850.95	22299
851.085	22516
851.22	22356
851.355	22341
851.49	22398
851.625	22276
851.76	22249
851.895	22105
852.03	22268
852.165	22303
852.299	22402
852.434	22371
852.569	22394
852.703	22352
852.838	22478
852.973	22440
853.107	22409
853.242	22257
853.376	22162
853.511	22036
853.645	22074
853.78	22280
853.914	22154
854.048	22128
854.183	22082
854.317	22192
854.451	22356
854.585	22029
854.72	22029
854.854	22234
854.988	22116
855.122	22147
855.256	21968
855.39	22166
855.524	22230
855.658	22185
855.792	22215
855.926	22181
856.06	22280
856.194	22181
856.327	22158
856.461	22093
856.595	22067
856.729	22013
856.862	22272
856.996	22105
857.13	22158
857.263	22204
857.397	22272
857.53	22101
857.664	22276
857.797	22147
857.931	22223
858.064	22223
858.197	22329
858.331	22147
858.464	22070
858.597	22006
858.731	22070
858.864	22177
858.997	22021
859.13	22150
859.263	22158
859.396	22215
859.529	22124
859.662	22128
859.795	22013
859.928	22150
860.061	22329
860.194	22348
860.327	22299
860.46	22192
860.592	22234
860.725	22181
860.858	22257
860.99	22135
861.123	22116
861.256	22124
861.388	22166
861.521	22694
861.653	22082
861.786	21873
861.918	22074
862.05	21987
862.183	21994
862.315	22128
862.447	22166
862.58	22063
862.712	21903
862.844	21816
862.976	21949
863.108	21903
863.24	22173
863.372	21717
863.504	21888
863.636	21861
863.768	21854
863.9	21838
864.032	21846
864.164	21812
864.296	21884
864.428	21972
864.559	21907
864.691	21861
864.823	21808
864.954	21842
865.086	21728
865.217	21816
865.349	21671
865.48	21751
865.612	21800
865.743	21953
865.875	21778
866.006	21656
866.137	21663
866.269	21606
866.4	21637
866.531	21701
866.662	21675
866.793	21625
866.924	21648
867.055	21637
867.186	21770
867.317	21751
867.448	21523
867.579	21701
867.71	21644
867.841	21469
867.972	21679
868.103	21641
868.233	21739
868.364	21542
868.495	21797
868.625	21991
868.756	22002
868.886	21895
869.017	21903
869.147	22048
869.278	21937
869.408	21907
869.539	21892
869.669	21899
869.799	21987
869.929	21972
870.06	22135
870.19	22185
870.32	22090
870.45	22291
870.58	22101
870.71	22421
870.84	22440
870.97	22474
871.1	22314
871.23	22428
871.36	22447
871.489	22402
871.619	22421
871.749	22474
871.879	22603
872.008	22675
872.138	22588
872.267	22470
872.397	22382
872.526	22360
872.656	22402
872.785	22287
872.915	22481
873.044	22592
873.173	22485
873.303	22523
873.432	22596
873.561	22717
873.69	22440
873.819	22592
873.948	22557
874.077	22592
874.206	22402
874.335	22592
874.464	22626
874.593	22710
874.722	22615
874.851	22759
874.979	22683
875.108	22721
875.237	22748
875.365	22774
875.494	22675
875.623	22694
875.751	22740
875.88	22797
876.008	22831
876.136	22930
876.265	23105
876.393	23227
876.521	23239
876.65	23060
876.778	23048
876.906	23060
877.034	23033
877.162	23083
877.29	23067
877.418	23159
877.546	23067
877.674	23113
877.802	23105
877.93	23064
878.058	23170
878.185	22904
878.313	22961
878.441	23174
878.568	22915
878.696	22923
878.824	23113
878.951	23166
879.079	23315
879.206	23277
879.333	23208
879.461	23094
879.588	23220
879.715	23318
879.842	23318
879.97	23140
880.097	22968
880.224	22866
880.351	23018
880.478	22892
880.605	22877
880.732	22873
880.859	23235
880.986	22877
881.112	22919
881.239	22771
881.366	22577
881.493	22451
881.619	22470
881.746	22577
881.872	22527
881.999	22459
882.125	22443
882.252	22516
882.378	22432
882.505	22550
882.631	22348
882.757	22223
882.883	22223
883.01	22204
883.136	22158
883.262	22036
883.388	22044
883.514	22173
883.64	22120
883.766	22051
883.892	21972
884.018	21850
884.143	22147
884.269	22143
884.395	21838
884.52	21819
884.646	21857
884.772	21785
884.897	21705
885.023	21797
885.148	21915
885.274	21911
885.399	21892
885.524	21854
885.65	21755
885.775	21766
885.9	21652
886.025	21797
886.15	21850
886.275	21720
886.4	21637
886.525	21656
886.65	21797
886.775	21717
886.9	21827
887.025	22029
887.149	21751
887.274	21606
887.399	21507
887.523	21542
887.648	21492
887.773	21389
887.897	21641
888.021	21553
888.146	21572
888.27	21701
888.395	21660
888.519	21614
888.643	21603
888.767	21530
888.891	21420
889.015	21340
889.139	21386
889.263	21302
889.387	21412
889.511	21656
889.635	21526
889.759	21374
889.883	21344
890.006	21473
890.13	21424
890.254	21310
890.377	21294
890.501	20986
890.624	21150
890.748	21161
890.871	21032
890.995	20971
891.118	20750
891.241	20872
891.364	20883
891.488	20967
891.611	21024
891.734	20826
891.857	20986
891.98	20891
892.103	21028
892.226	20849
892.349	20937
892.471	20701
892.594	20769
892.717	20834
892.839	20735
892.962	20765
893.085	20921
893.207	20743
893.33	20674
893.452	20720
893.575	20906
893.697	20727
893.819	20941
893.941	21039
894.064	20967
894.186	20648
894.308	20648
894.43	20819
894.552	20925
894.674	20800
894.796	20617
894.918	20674
895.04	20804
895.161	20872
895.283	20773
895.405	20651
895.526	20735
895.648	20743
895.769	20823
895.891	20815
896.012	20906
896.134	20842
896.255	20876
896.376	20765
896.498	20602
896.619	20834
896.74	20651
896.861	20800
896.982	21127
897.103	21173
897.224	21020
897.345	21055
897.466	20933
897.587	20986
897.708	21108
897.828	21013
897.949	20914
898.07	20792
898.19	20941
898.311	21093
898.431	20979
898.552	20994
898.672	21104
898.792	21169
898.913	20975
899.033	20971
899.153	20804
899.273	20750
899.393	20682
899.513	20804
899.633	20762
899.753	20811
899.873	20636
899.993	20720
900.113	20602
900.232	20716
900.352	20606
900.472	20473
900.591	20396
900.711	20514
900.83	20522
900.95	20594
901.069	20667
901.189	20393
901.308	20142
901.427	19974
901.546	20050
901.665	20084
901.784	20073
901.904	19890
902.023	19807
902.141	19639
902.26	19559
902.379	19765
902.498	19674
902.617	19480
902.735	19696
902.854	19616
902.973	19358
903.091	19225
903.21	19301
903.328	19236
903.446	19114
903.565	19050
903.683	19015
903.801	18810
903.919	18989
904.038	18966
904.156	18833
904.274	18776
904.392	18764
904.51	18711
904.627	18810
904.745	18837
904.863	19000
904.981	18589
905.098	18536
905.216	18445
905.334	18532
905.451	18407
905.569	18422
905.686	18544
905.803	18361
905.921	18235
906.038	18410
906.155	18258
906.272	18232
906.389	18076
906.506	18049
906.623	18041
906.74	18041
906.857	17901
906.974	17973
907.091	17916
907.208	18072
907.324	18057
907.441	17882
907.557	17817
907.674	17718
907.79	17687
907.907	17619
908.023	17718
908.139	17760
908.256	17589
908.372	17547
908.488	17611
908.604	17471
908.72	17455
908.836	17452
908.952	17341
909.068	17455
909.184	17535
909.3	17493
909.415	17436
909.531	17372
909.647	17185
909.762	17056
909.878	17086
909.993	17086
910.108	17071
910.224	17094
910.339	17048
910.454	16923
910.57	16866
910.685	16839
910.8	17197
910.915	17052
911.03	16934
911.145	16698
911.259	16698
911.374	16740
911.489	16664
911.604	16573
911.718	16409
911.833	16421
911.947	16196
912.062	16295
912.176	16451
912.291	16451
912.405	16470
912.519	16596
912.633	16577
912.748	16481
912.862	16356
912.976	16196
913.09	16135
913.204	16261
913.318	16257
913.431	16325
913.545	16325
913.659	16394
913.772	16223
913.886	16139
914	16021
914.113	16086
914.226	16097
914.34	16082
914.453	15987
914.566	16097
914.68	16044
914.793	15774
914.906	15774
915.019	15622
915.132	15572
915.245	15648
915.358	15637
915.47	15618
915.583	15595
915.696	15629
915.809	15743
915.921	15713
916.034	15637
916.146	15526
916.259	15580
916.371	15648
916.483	15557
916.595	15469
916.708	15458
916.82	15420
916.932	15408
917.044	15389
917.156	15435
917.268	15306
917.38	15382
917.491	15302
917.603	15291
917.715	15226
917.826	15313
917.938	15218
918.049	15039
918.161	15165
918.272	15287
918.384	15321
918.495	15222
918.606	15017
918.717	14967
918.828	15028
918.939	15081
919.05	14902
919.161	14952
919.272	14785
919.383	14906
919.494	15001
919.604	15203
919.715	15032
919.826	14990
919.936	14853
920.047	15077
920.157	14906
920.267	15237
920.378	14998
920.488	14998
920.598	15135
920.708	15233
920.818	15062
920.928	15154
921.038	15340
921.148	15211
921.258	14990
921.368	14902
921.477	14727
921.587	14587
921.697	14606
921.806	14716
921.916	14541
922.025	14465
922.134	14324
922.244	14305
922.353	14385
922.462	14221
922.571	14229
922.68	13982
922.789	13993
922.898	14065
923.007	13955
923.116	13982
923.224	13974
923.333	13860
923.442	13837
923.55	13769
923.659	13928
923.767	13875
923.876	13731
923.984	13830
924.092	13753
924.201	13772
924.309	13685
924.417	13651
924.525	13506
924.633	13681
924.741	14332
924.849	13419
924.956	13578
925.064	13365
925.172	13285
925.279	13407
925.387	13441
925.494	13419
925.602	13445
925.709	13400
925.816	13244
925.924	13320
926.031	13419
926.138	13293
926.245	13365
926.352	13209
926.459	13384
926.566	13392
926.673	13240
926.779	13149
926.886	13031
926.993	12932
927.099	12928
927.206	12909
927.312	12943
927.419	13008
927.525	12802
927.631	12951
927.737	12760
927.843	12779
927.95	12722
928.056	12711
928.162	12753
928.267	12798
928.373	13354
928.479	12768
928.585	12521
928.69	12768
928.796	12711
928.901	12589
929.007	12448
929.112	12627
929.218	12597
929.323	12452
929.428	12395
929.533	12555
929.638	12426
929.743	12399
929.848	12490
929.953	12319
930.058	12388
930.163	12224
930.267	12140
930.372	12220
930.477	12110
930.581	12357
930.685	12155
930.79	12003
930.894	12076
930.998	11988
931.103	12220
931.207	11786
931.311	11764
931.415	11566
931.519	11360
931.623	11372
