Data from test_V78500241_1112.txt Node
Date: Fri Mar 25 15:49:30 CST 2022
User: usil
Spectrometer: V785-0024
Trigger mode: 0
Integration Time (sec): 4.000000E-1
Scans to average: 1
Nonlinearity correction enabled: false
Boxcar width: 0
Storing dark spectrum: false
XAxis mode: Wavelengths
Number of Pixels in Spectrum: 1024
>>>>>Begin Spectral Data<<<<<
801.071	28436
801.214	28386
801.356	28169
801.499	28078
801.641	27850
801.783	27945
801.926	27865
802.068	27823
802.211	27755
802.353	27991
802.496	27682
802.638	27515
802.78	27466
802.923	27443
803.065	27568
803.208	27526
803.35	27618
803.492	27713
803.635	27766
803.777	27663
803.919	27720
804.061	28131
804.204	27918
804.346	27895
804.488	27732
804.63	27884
804.773	27755
804.915	27861
805.057	27926
805.199	27873
805.341	27857
805.483	28070
805.626	28002
805.768	27781
805.91	27895
806.052	28116
806.194	27880
806.336	28223
806.478	28147
806.62	27960
806.762	28185
806.904	28344
807.046	28618
807.188	28447
807.33	28542
807.472	28493
807.614	28386
807.756	28375
807.898	28306
808.04	28276
808.182	28325
808.324	28303
808.465	28367
808.607	28546
808.749	28717
808.891	28691
809.033	28862
809.174	28736
809.316	28538
809.458	28755
809.6	28660
809.741	28843
809.883	28972
810.025	28854
810.166	29056
810.308	28987
810.45	28961
810.591	29006
810.733	28809
810.875	28778
811.016	28527
811.158	28577
811.299	28748
811.441	28774
811.582	28934
811.724	28790
811.865	28687
812.007	28706
812.148	28729
812.29	28793
812.431	28854
812.573	29010
812.714	29136
812.855	29181
812.997	29277
813.138	29326
813.279	29383
813.421	29174
813.562	29265
813.703	29162
813.845	28972
813.986	28687
814.127	28500
814.268	28379
814.41	28485
814.551	28386
814.692	28436
814.833	28253
814.974	28466
815.115	28535
815.256	28382
815.397	28249
815.539	28299
815.68	28291
815.821	28143
815.962	28150
816.103	28287
816.244	28059
816.385	27774
816.526	27865
816.666	27842
816.807	27644
816.948	27774
817.089	27804
817.23	27766
817.371	27781
817.512	27709
817.653	27797
817.793	27599
817.934	27778
818.075	27804
818.216	27682
818.356	27618
818.497	27587
818.638	27439
818.778	27408
818.919	27603
819.06	27496
819.2	27614
819.341	27766
819.481	27717
819.622	27827
819.762	28051
819.903	27934
820.043	27918
820.184	27918
820.324	27876
820.465	27797
820.605	27751
820.746	27827
820.886	27732
821.026	27842
821.167	27720
821.307	27888
821.447	27880
821.588	27671
821.728	27549
821.868	27329
822.008	27184
822.149	27313
822.289	27279
822.429	27020
822.569	26940
822.709	26849
822.849	26746
822.99	26777
823.13	26670
823.27	26659
823.41	26514
823.55	26400
823.69	26758
823.83	26564
823.97	26621
824.11	26370
824.25	26195
824.389	26374
824.529	26355
824.669	26431
824.809	26549
824.949	26606
825.089	26556
825.228	26434
825.368	26206
825.508	26259
825.648	26343
825.787	26301
825.927	26358
826.067	26244
826.206	26172
826.346	26336
826.485	26183
826.625	26126
826.765	26377
826.904	26309
827.044	26088
827.183	26096
827.323	25898
827.462	25852
827.601	26043
827.741	26065
827.88	26054
828.02	25864
828.159	25921
828.298	25883
828.437	25974
828.577	25913
828.716	26046
828.855	25906
828.994	25731
829.134	25624
829.273	25651
829.412	25693
829.551	25556
829.69	25681
829.829	25674
829.968	25784
830.107	25651
830.246	25658
830.385	25628
830.524	25575
830.663	25365
830.802	25381
830.941	25441
831.08	25164
831.219	25228
831.357	25320
831.496	25441
831.635	25190
831.774	25259
831.913	25187
832.051	25091
832.19	25095
832.329	25095
832.467	25050
832.606	24977
832.744	24981
832.883	24977
833.022	24856
833.16	24867
833.299	24973
833.437	24977
833.576	25053
833.714	24939
833.852	25103
833.991	24977
834.129	25038
834.267	25084
834.406	24992
834.544	25110
834.682	25012
834.821	24977
834.959	25099
835.097	24928
835.235	24996
835.373	24939
835.511	24916
835.65	24806
835.788	24878
835.926	24745
836.064	24639
836.202	24730
836.34	24863
836.478	24863
836.615	24810
836.753	24753
836.891	24840
837.029	24696
837.167	24738
837.305	24707
837.443	24741
837.58	24768
837.718	24730
837.856	24700
837.993	24673
838.131	24589
838.269	24395
838.406	24593
838.544	24513
838.681	24194
838.819	24262
838.956	24228
839.094	23988
839.231	24140
839.369	24228
839.506	24429
839.643	24391
839.781	24076
839.918	24125
840.055	24251
840.193	23988
840.33	24011
840.467	24114
840.604	24060
840.742	24285
840.879	23965
841.016	24045
841.153	23980
841.29	24209
841.427	24110
841.564	24144
841.701	23980
841.838	23931
841.975	23855
842.112	24003
842.249	23843
842.385	23904
842.522	23999
842.659	23939
842.796	23687
842.933	23707
843.069	23646
843.206	23745
843.343	23843
843.479	23828
843.616	23828
843.752	23543
843.889	23703
844.025	23551
844.162	23589
844.298	23520
844.435	23528
844.571	23516
844.708	23707
844.844	23733
844.98	23691
845.117	23642
845.253	23482
845.389	23501
845.525	23448
845.661	23436
845.798	23395
845.934	23334
846.07	23364
846.206	23467
846.342	23417
846.478	23284
846.614	23128
846.75	23075
846.886	23022
847.022	23086
847.158	23071
847.294	22938
847.429	22972
847.565	23071
847.701	23250
847.837	22752
847.972	22729
848.108	22854
848.244	22786
848.379	22626
848.515	22569
848.65	22592
848.786	22649
848.921	22721
849.057	22679
849.192	22683
849.328	22710
849.463	22645
849.598	22523
849.734	22451
849.869	22436
850.004	22363
850.14	22409
850.275	22344
850.41	22314
850.545	22272
850.68	22314
850.815	22417
850.95	22348
851.085	22641
851.22	22500
851.355	22375
851.49	22394
851.625	22428
851.76	22287
851.895	22223
852.03	22299
852.165	22390
852.299	22474
852.434	22394
852.569	22409
852.703	22230
852.838	22386
852.973	22504
853.107	22535
853.242	22253
853.376	22128
853.511	22051
853.645	22185
853.78	22405
853.914	22154
854.048	22086
854.183	22196
854.317	22200
854.451	22310
854.585	22150
854.72	22207
854.854	22200
854.988	22124
855.122	22185
855.256	22070
855.39	22162
855.524	22192
855.658	22211
855.792	22215
855.926	22253
856.06	22234
856.194	22196
856.327	22238
856.461	22223
856.595	22105
856.729	22196
856.862	22310
856.996	22261
857.13	22226
857.263	22272
857.397	22246
857.53	22097
857.664	22265
857.797	22200
857.931	22257
858.064	22284
858.197	22234
858.331	22158
858.464	22105
858.597	22086
858.731	22162
858.864	22109
858.997	21972
859.13	22192
859.263	22154
859.396	22219
859.529	22162
859.662	22093
859.795	22097
859.928	22078
860.061	22382
860.194	22318
860.327	22234
860.46	22109
860.592	22280
860.725	22303
860.858	22337
860.99	22181
861.123	22128
861.256	22135
861.388	22200
861.521	22946
861.653	22063
861.786	21972
861.918	21987
862.05	22109
862.183	22067
862.315	22242
862.447	22116
862.58	21934
862.712	21804
862.844	21854
862.976	21926
863.108	21949
863.24	22493
863.372	21827
863.504	21819
863.636	21895
863.768	21899
863.9	21850
864.032	21876
864.164	21755
864.296	21918
864.428	21926
864.559	21949
864.691	21922
864.823	21926
864.954	21755
865.086	21751
865.217	21838
865.349	21713
865.48	21739
865.612	21797
865.743	21895
865.875	21797
866.006	21705
866.137	21793
866.269	21739
866.4	21789
866.531	21816
866.662	21812
866.793	21633
866.924	21720
867.055	21717
867.186	21713
867.317	21625
867.448	21591
867.579	21686
867.71	21568
867.841	21625
867.972	21644
868.103	21713
868.233	21648
868.364	21766
868.495	21812
868.625	21934
868.756	22082
868.886	21789
869.017	21884
869.147	22078
869.278	22128
869.408	21857
869.539	21983
869.669	21991
869.799	21979
869.929	22166
870.06	22010
870.19	22246
870.32	22234
870.45	22257
870.58	22341
870.71	22523
870.84	22386
870.97	22306
871.1	22398
871.23	22603
871.36	22405
871.489	22504
871.619	22481
871.749	22531
871.879	22653
872.008	22672
872.138	22493
872.267	22535
872.397	22360
872.526	22299
872.656	22276
872.785	22382
872.915	22527
873.044	22542
873.173	22508
873.303	22645
873.432	22698
873.561	22611
873.69	22580
873.819	22504
873.948	22584
874.077	22497
874.206	22436
874.335	22630
874.464	22611
874.593	22782
874.722	22683
874.851	22896
874.979	22744
875.108	22805
875.237	22694
875.365	22687
875.494	22797
875.623	22656
875.751	22755
875.88	22839
876.008	22755
876.136	23067
876.265	23022
876.393	23159
876.521	23166
876.65	23204
876.778	23181
876.906	23212
877.034	23124
877.162	23056
877.29	23060
877.418	23265
877.546	23044
877.674	23075
877.802	23159
877.93	23128
878.058	23086
878.185	22991
878.313	23006
878.441	23235
878.568	22866
878.696	22927
878.824	23037
878.951	23258
879.079	23197
879.206	23395
879.333	23322
879.461	23094
879.588	23223
879.715	23277
879.842	23227
879.97	23254
880.097	23006
880.224	22839
880.351	22850
880.478	22904
880.605	22839
880.732	23010
880.859	23128
880.986	22900
881.112	22869
881.239	22755
881.366	22634
881.493	22580
881.619	22440
881.746	22645
881.872	22500
881.999	22527
882.125	22455
882.252	22523
882.378	22500
882.505	22493
882.631	22402
882.757	22246
882.883	22147
883.01	22131
883.136	22200
883.262	22093
883.388	22078
883.514	22101
883.64	22299
883.766	22116
883.892	21968
884.018	21861
884.143	22048
884.269	22223
884.395	21968
884.52	21816
884.646	21823
884.772	21755
884.897	21743
885.023	21865
885.148	21869
885.274	22029
885.399	21865
885.524	21880
885.65	21831
885.775	21842
885.9	21804
886.025	21994
886.15	21941
886.275	21778
886.4	21542
886.525	21644
886.65	21781
886.775	21701
886.9	21880
887.025	22063
887.149	21724
887.274	21705
887.399	21564
887.523	21580
887.648	21553
887.773	21412
887.897	21698
888.021	21713
888.146	21553
888.27	21641
888.395	21679
888.519	21606
888.643	21561
888.767	21618
888.891	21428
889.015	21382
889.139	21454
889.263	21386
889.387	21431
889.511	21603
889.635	21435
889.759	21382
889.883	21268
890.006	21302
890.13	21424
890.254	21325
890.377	21298
890.501	21081
890.624	21024
890.748	21161
890.871	20883
890.995	20899
891.118	20834
891.241	20944
891.364	20906
891.488	21009
891.611	20998
891.734	20921
891.857	20910
891.98	20785
892.103	20952
892.226	20982
892.349	20891
892.471	20613
892.594	20826
892.717	20891
892.839	20743
892.962	20834
893.085	20815
893.207	20857
893.33	20655
893.452	20777
893.575	20762
893.697	20727
893.819	20994
893.941	20956
894.064	20842
894.186	20644
894.308	20678
894.43	20895
894.552	20982
894.674	20815
894.796	20781
894.918	20686
895.04	20708
895.161	20842
895.283	20876
895.405	20739
895.526	20769
895.648	20864
895.769	20792
895.891	20663
896.012	20937
896.134	20796
896.255	20727
896.376	20701
896.498	20788
896.619	20743
896.74	20857
896.861	20792
896.982	21093
897.103	21283
897.224	21001
897.345	21024
897.466	20963
897.587	20975
897.708	20979
897.828	21085
897.949	20899
898.07	20781
898.19	20948
898.311	21058
898.431	20880
898.552	21047
898.672	21108
898.792	21127
898.913	21028
899.033	20990
899.153	20765
899.273	20587
899.393	20743
899.513	20746
899.633	20777
899.753	20823
899.873	20674
899.993	20705
900.113	20659
900.232	20613
900.352	20579
900.472	20507
900.591	20305
900.711	20507
900.83	20480
900.95	20560
901.069	20602
901.189	20442
901.308	20115
901.427	19982
901.546	20054
901.665	20168
901.784	19959
901.904	20031
902.023	19883
902.141	19753
902.26	19696
902.379	19708
902.498	19586
902.617	19506
902.735	19586
902.854	19544
902.973	19506
903.091	19320
903.21	19168
903.328	19209
903.446	19004
903.565	19156
903.683	19034
903.801	18844
903.919	18981
904.038	18909
904.156	18840
904.274	18966
904.392	18821
904.51	18776
904.627	18795
904.745	18890
904.863	18745
904.981	18730
905.098	18566
905.216	18517
905.334	18456
905.451	18513
905.569	18395
905.686	18426
905.803	18456
905.921	18247
906.038	18422
906.155	18190
906.272	18171
906.389	18079
906.506	17980
906.623	17996
906.74	17984
906.857	17821
906.974	17935
907.091	18045
907.208	18209
907.324	17969
907.441	17942
907.557	17661
907.674	17756
907.79	17695
907.907	17729
908.023	17752
908.139	17729
908.256	17653
908.372	17592
908.488	17589
908.604	17421
908.72	17364
908.836	17452
908.952	17433
909.068	17520
909.184	17486
909.3	17410
909.415	17429
909.531	17383
909.647	17181
909.762	17212
909.878	17109
909.993	17147
910.108	17124
910.224	17052
910.339	17086
910.454	16968
910.57	16908
910.685	16820
910.8	17109
910.915	17113
911.03	16984
911.145	16809
911.259	16812
911.374	16691
911.489	16656
911.604	16580
911.718	16447
911.833	16481
911.947	16360
912.062	16249
912.176	16432
912.291	16527
912.405	16417
912.519	16710
912.633	16656
912.748	16500
912.862	16432
912.976	16215
913.09	16112
913.204	16207
913.318	16375
913.431	16371
913.545	16436
913.659	16310
913.772	16265
913.886	16120
914	15998
914.113	16128
914.226	16185
914.34	16048
914.453	16048
914.566	16143
914.68	15899
914.793	15941
914.906	15800
915.019	15694
915.132	15633
915.245	15682
915.358	15614
915.47	15618
915.583	15690
915.696	15682
915.809	15762
915.921	15698
916.034	15526
916.146	15405
916.259	15466
916.371	15606
916.483	15545
916.595	15477
916.708	15408
916.82	15466
916.932	15462
917.044	15412
917.156	15363
917.268	15268
917.38	15294
917.491	15173
917.603	15287
917.715	15370
917.826	15325
917.938	15287
918.049	15108
918.161	15226
918.272	15370
918.384	15351
918.495	15272
918.606	15077
918.717	15005
918.828	15173
918.939	15047
919.05	15001
919.161	14956
919.272	14758
919.383	14883
919.494	15009
919.604	15222
919.715	15024
919.826	14914
919.936	14998
920.047	15013
920.157	14948
920.267	15081
920.378	14982
920.488	14880
920.598	15116
920.708	15279
920.818	15051
920.928	15005
921.038	15275
921.148	15230
921.258	14921
921.368	14845
921.477	14777
921.587	14663
921.697	14579
921.806	14705
921.916	14568
922.025	14495
922.134	14377
922.244	14351
922.353	14461
922.462	14324
922.571	14111
922.68	14073
922.789	13970
922.898	14020
923.007	13849
923.116	14031
923.224	13947
923.333	14031
923.442	13894
923.55	13811
923.659	13791
923.767	13864
923.876	13788
923.984	13951
924.092	13700
924.201	13753
924.309	13658
924.417	13727
924.525	13677
924.633	13696
924.741	14404
924.849	13419
924.956	13453
925.064	13445
925.172	13346
925.279	13274
925.387	13343
925.494	13354
925.602	13506
925.709	13453
925.816	13221
925.924	13365
926.031	13411
926.138	13274
926.245	13354
926.352	13240
926.459	13324
926.566	13422
926.673	13156
926.779	13122
926.886	13061
926.993	12970
927.099	12901
927.206	12882
927.312	12848
927.419	12943
927.525	12825
927.631	12954
927.737	12806
927.843	12764
927.95	12673
928.056	12783
928.162	12753
928.267	12715
928.373	13289
928.479	12871
928.585	12616
928.69	12662
928.796	12646
928.901	12582
929.007	12456
929.112	12684
929.218	12555
929.323	12521
929.428	12441
929.533	12597
929.638	12433
929.743	12445
929.848	12502
929.953	12414
930.058	12277
930.163	12102
930.267	12068
930.372	12239
930.477	12110
930.581	12372
930.685	12148
930.79	12011
930.894	11942
930.998	12019
931.103	12053
931.207	11767
931.311	11695
931.415	11608
931.519	11433
931.623	11349
