Data from test_V78500241_142.txt Node
Date: Fri Mar 25 15:42:47 CST 2022
User: usil
Spectrometer: V785-0024
Trigger mode: 0
Integration Time (sec): 4.000000E-1
Scans to average: 1
Nonlinearity correction enabled: false
Boxcar width: 0
Storing dark spectrum: false
XAxis mode: Wavelengths
Number of Pixels in Spectrum: 1024
>>>>>Begin Spectral Data<<<<<
801.071	29771
801.214	29726
801.356	29421
801.499	29410
801.641	29299
801.783	29330
801.926	29341
802.068	29296
802.211	29162
802.353	29037
802.496	28934
802.638	28927
802.78	28873
802.923	28976
803.065	28854
803.208	28828
803.35	29010
803.492	29033
803.635	28991
803.777	28927
803.919	29113
804.061	29254
804.204	28972
804.346	28965
804.488	28930
804.63	28953
804.773	28831
804.915	28995
805.057	29098
805.199	29033
805.341	29010
805.483	29273
805.626	29121
805.768	29052
805.91	29105
806.052	29265
806.194	29006
806.336	29296
806.478	29079
806.62	29105
806.762	29330
806.904	29375
807.046	29615
807.188	29535
807.33	29592
807.472	29672
807.614	29467
807.756	29490
807.898	29387
808.04	29265
808.182	29242
808.324	29315
808.465	29356
808.607	29615
808.749	29543
808.891	29802
809.033	29813
809.174	29832
809.316	29478
809.458	29623
809.6	29592
809.741	29684
809.883	29783
810.025	29901
810.166	29908
810.308	29798
810.45	29912
810.591	29870
810.733	29615
810.875	29668
811.016	29512
811.158	29573
811.299	29729
811.441	29741
811.582	29699
811.724	29611
811.865	29562
812.007	29627
812.148	29531
812.29	29585
812.431	29760
812.573	29821
812.714	30098
812.855	30129
812.997	30117
813.138	30292
813.279	30258
813.421	30095
813.562	29958
813.703	29969
813.845	29794
813.986	29509
814.127	29387
814.268	29296
814.41	29155
814.551	29208
814.692	29410
814.833	29147
814.974	29098
815.115	29098
815.256	28965
815.397	28987
815.539	28995
815.68	28892
815.821	28854
815.962	28957
816.103	28850
816.244	28736
816.385	28744
816.526	28493
816.666	28542
816.807	28348
816.948	28333
817.089	28303
817.23	28318
817.371	28360
817.512	28337
817.653	28303
817.793	28249
817.934	28207
818.075	28474
818.216	28356
818.356	28284
818.497	28181
818.638	28051
818.778	28021
818.919	28120
819.06	28109
819.2	28238
819.341	28226
819.481	28287
819.622	28474
819.762	28618
819.903	28519
820.043	28546
820.184	28230
820.324	28322
820.465	28390
820.605	28481
820.746	28413
820.886	28154
821.026	28417
821.167	28303
821.307	28325
821.447	28325
821.588	28150
821.728	28074
821.868	27717
822.008	27755
822.149	27667
822.289	27507
822.429	27363
822.569	27195
822.709	27397
822.849	27089
822.99	27146
823.13	27112
823.27	26979
823.41	26967
823.55	26785
823.69	26887
823.83	26952
823.97	26868
824.11	26667
824.25	26655
824.389	26693
824.529	26754
824.669	26819
824.809	26781
824.949	26746
825.089	26777
825.228	26682
825.368	26541
825.508	26583
825.648	26453
825.787	26492
825.927	26606
826.067	26488
826.206	26617
826.346	26556
826.485	26549
826.625	26583
826.765	26674
826.904	26568
827.044	26267
827.183	26229
827.323	26195
827.462	26221
827.601	26161
827.741	26282
827.88	26332
828.02	26039
828.159	26027
828.298	26168
828.437	26164
828.577	26077
828.716	26191
828.855	25966
828.994	25932
829.134	25989
829.273	25978
829.412	25822
829.551	25879
829.69	25784
829.829	25868
829.968	25879
830.107	25772
830.246	25890
830.385	25780
830.524	25708
830.663	25594
830.802	25533
830.941	25537
831.08	25327
831.219	25468
831.357	25377
831.496	25525
831.635	25369
831.774	25171
831.913	25168
832.051	25088
832.19	25031
832.329	25156
832.467	24954
832.606	24935
832.744	24992
832.883	25023
833.022	24920
833.16	24973
833.299	24977
833.437	25099
833.576	25031
833.714	24894
833.852	24985
833.991	24996
834.129	25019
834.267	25114
834.406	24989
834.544	25000
834.682	24875
834.821	24844
834.959	25141
835.097	24985
835.235	24962
835.373	24981
835.511	24909
835.65	24749
835.788	24897
835.926	24795
836.064	24669
836.202	24540
836.34	24924
836.478	24821
836.615	24741
836.753	24776
836.891	24859
837.029	24806
837.167	24787
837.305	24753
837.443	24635
837.58	24623
837.718	24681
837.856	24681
837.993	24513
838.131	24536
838.269	24433
838.406	24544
838.544	24414
838.681	24304
838.819	24216
838.956	24148
839.094	24121
839.231	24201
839.369	24216
839.506	24429
839.643	24251
839.781	24034
839.918	23961
840.055	23969
840.193	24018
840.33	23950
840.467	23935
840.604	23950
840.742	24148
840.879	23889
841.016	23923
841.153	23832
841.29	23980
841.427	23920
841.564	23904
841.701	23741
841.838	23939
841.975	23802
842.112	23866
842.249	23714
842.385	23657
842.522	23942
842.659	23627
842.796	23657
842.933	23604
843.069	23566
843.206	23459
843.343	23684
843.479	23623
843.616	23505
843.752	23277
843.889	23284
844.025	23520
844.162	23258
844.298	23497
844.435	23337
844.571	23277
844.708	23467
844.844	23482
844.98	23497
845.117	23360
845.253	23246
845.389	23086
845.525	23193
845.661	23098
845.798	22995
845.934	23018
846.07	22949
846.206	23079
846.342	23056
846.478	23014
846.614	22866
846.75	22786
846.886	22698
847.022	22885
847.158	22721
847.294	22698
847.429	22812
847.565	22538
847.701	23003
847.837	22508
847.972	22363
848.108	22554
848.244	22500
848.379	22219
848.515	22249
848.65	22268
848.786	22204
848.921	22238
849.057	22394
849.192	22344
849.328	22363
849.463	22276
849.598	22204
849.734	22120
849.869	22067
850.004	22128
850.14	22002
850.275	22112
850.41	21892
850.545	21979
850.68	21972
850.815	21972
850.95	21960
851.085	22128
851.22	22158
851.355	22082
851.49	21998
851.625	21895
851.76	21827
851.895	21816
852.03	21892
852.165	22032
852.299	21930
852.434	22059
852.569	21972
852.703	21987
852.838	21979
852.973	22101
853.107	22036
853.242	21953
853.376	21812
853.511	21793
853.645	21671
853.78	21892
853.914	21831
854.048	21732
854.183	21682
854.317	21778
854.451	21899
854.585	21819
854.72	21797
854.854	21785
854.988	21717
855.122	21717
855.256	21583
855.39	21766
855.524	21930
855.658	21797
855.792	21774
855.926	21819
856.06	21846
856.194	21831
856.327	21789
856.461	21682
856.595	21698
856.729	21739
856.862	21899
856.996	21724
857.13	21850
857.263	21888
857.397	21998
857.53	21785
857.664	21838
857.797	21835
857.931	21838
858.064	21778
858.197	21827
858.331	21724
858.464	21587
858.597	21698
858.731	21644
858.864	21701
858.997	21614
859.13	21675
859.263	21728
859.396	21743
859.529	21797
859.662	21614
859.795	21709
859.928	21720
860.061	21857
860.194	21869
860.327	21694
860.46	21606
860.592	21880
860.725	21869
860.858	21812
860.99	21724
861.123	21663
861.256	21637
861.388	21564
861.521	22147
861.653	21568
861.786	21572
861.918	21530
862.05	21644
862.183	21743
862.315	21633
862.447	21701
862.58	21686
862.712	21549
862.844	21378
862.976	21564
863.108	21519
863.24	21698
863.372	21412
863.504	21443
863.636	21275
863.768	21401
863.9	21416
864.032	21264
864.164	21351
864.296	21370
864.428	21416
864.559	21492
864.691	21526
864.823	21389
864.954	21313
865.086	21321
865.217	21317
865.349	21389
865.48	21222
865.612	21291
865.743	21424
865.875	21359
866.006	21283
866.137	21344
866.269	21340
866.4	21252
866.531	21279
866.662	21188
866.793	21161
866.924	21119
867.055	21279
867.186	21256
867.317	21165
867.448	21032
867.579	21150
867.71	21055
867.841	21146
867.972	21199
868.103	21127
868.233	21127
868.364	21127
868.495	21237
868.625	21477
868.756	21523
868.886	21306
869.017	21370
869.147	21473
869.278	21530
869.408	21447
869.539	21355
869.669	21466
869.799	21473
869.929	21481
870.06	21462
870.19	21751
870.32	21759
870.45	21861
870.58	21812
870.71	21831
870.84	21915
870.97	21873
871.1	21720
871.23	21865
871.36	21979
871.489	22013
871.619	22032
871.749	22048
871.879	22032
872.008	22143
872.138	22029
872.267	21941
872.397	21934
872.526	21759
872.656	21804
872.785	21888
872.915	22131
873.044	22116
873.173	22070
873.303	22013
873.432	22055
873.561	22109
873.69	22017
873.819	21975
873.948	22082
874.077	21968
874.206	22067
874.335	21987
874.464	22150
874.593	22207
874.722	22219
874.851	22303
874.979	22348
875.108	22443
875.237	22253
875.365	22196
875.494	22238
875.623	22314
875.751	22253
875.88	22230
876.008	22398
876.136	22531
876.265	22694
876.393	22790
876.521	22763
876.65	22611
876.778	22702
876.906	22557
877.034	22607
877.162	22618
877.29	22561
877.418	22641
877.546	22683
877.674	22557
877.802	22603
877.93	22626
878.058	22535
878.185	22519
878.313	22538
878.441	22565
878.568	22447
878.696	22561
878.824	22733
878.951	22672
879.079	22683
879.206	22919
879.333	22812
879.461	22573
879.588	22649
879.715	22828
879.842	22873
879.97	22596
880.097	22557
880.224	22341
880.351	22504
880.478	22474
880.605	22382
880.732	22500
880.859	22694
880.986	22512
881.112	22474
881.239	22360
881.366	22131
881.493	22120
881.619	22040
881.746	21975
881.872	21975
881.999	22036
882.125	21941
882.252	22139
882.378	22017
882.505	22166
882.631	21964
882.757	21789
882.883	21987
883.01	21732
883.136	21751
883.262	21622
883.388	21450
883.514	21694
883.64	21747
883.766	21652
883.892	21420
884.018	21507
884.143	21667
884.269	21785
884.395	21553
884.52	21332
884.646	21500
884.772	21401
884.897	21241
885.023	21374
885.148	21443
885.274	21580
885.399	21488
885.524	21310
885.65	21408
885.775	21325
885.9	21317
886.025	21439
886.15	21237
886.275	21161
886.4	21169
886.525	21272
886.65	21203
886.775	21268
886.9	21420
887.025	21435
887.149	21401
887.274	21195
887.399	21127
887.523	21135
887.648	21043
887.773	21013
887.897	21127
888.021	21028
888.146	21017
888.27	21176
888.395	21226
888.519	21024
888.643	21085
888.767	21096
888.891	20982
889.015	20834
889.139	20933
889.263	20895
889.387	20967
889.511	21055
889.635	20944
889.759	20792
889.883	20785
890.006	20849
890.13	21039
890.254	20796
890.377	20724
890.501	20545
890.624	20609
890.748	20617
890.871	20549
890.995	20358
891.118	20412
891.241	20488
891.364	20385
891.488	20476
891.611	20324
891.734	20476
891.857	20427
891.98	20393
892.103	20370
892.226	20324
892.349	20275
892.471	20073
892.594	20347
892.717	20438
892.839	20377
892.962	20317
893.085	20423
893.207	20362
893.33	20317
893.452	20286
893.575	20305
893.697	20275
893.819	20522
893.941	20328
894.064	20415
894.186	20259
894.308	20282
894.43	20358
894.552	20370
894.674	20465
894.796	20221
894.918	20240
895.04	20313
895.161	20309
895.283	20389
895.405	20187
895.526	20320
895.648	20336
895.769	20434
895.891	20305
896.012	20374
896.134	20332
896.255	20446
896.376	20305
896.498	20336
896.619	20408
896.74	20431
896.861	20484
896.982	20655
897.103	20769
897.224	20655
897.345	20648
897.466	20537
897.587	20503
897.708	20750
897.828	20655
897.949	20488
898.07	20423
898.19	20431
898.311	20598
898.431	20480
898.552	20450
898.672	20598
898.792	20446
898.913	20465
899.033	20263
899.153	20343
899.273	20210
899.393	20244
899.513	20298
899.633	20225
899.753	20252
899.873	20263
899.993	20275
900.113	20157
900.232	20206
900.352	20172
900.472	20153
900.591	19963
900.711	19944
900.83	19906
900.95	20062
901.069	20142
901.189	19788
901.308	19769
901.427	19480
901.546	19563
901.665	19750
901.784	19552
901.904	19476
902.023	19354
902.141	19103
902.26	19069
902.379	19129
902.498	19057
902.617	19038
902.735	19095
902.854	19023
902.973	19061
903.091	18741
903.21	18871
903.328	18802
903.446	18681
903.565	18570
903.683	18555
903.801	18422
903.919	18532
904.038	18563
904.156	18353
904.274	18410
904.392	18327
904.51	18292
904.627	18277
904.745	18254
904.863	18365
904.981	18186
905.098	17958
905.216	17977
905.334	18095
905.451	17954
905.569	17939
905.686	17954
905.803	17950
905.921	17771
906.038	17889
906.155	17790
906.272	17672
906.389	17642
906.506	17509
906.623	17535
906.74	17459
906.857	17395
906.974	17433
907.091	17467
907.208	17657
907.324	17471
907.441	17360
907.557	17212
907.674	17284
907.79	17060
907.907	17128
908.023	17162
908.139	17231
908.256	17128
908.372	17014
908.488	17022
908.604	16862
908.72	16908
908.836	16885
908.952	16812
909.068	16801
909.184	16919
909.3	16866
909.415	16782
909.531	16809
909.647	16637
909.762	16596
909.878	16470
909.993	16485
910.108	16573
910.224	16500
910.339	16554
910.454	16432
910.57	16280
910.685	16348
910.8	16611
910.915	16462
911.03	16325
911.145	16105
911.259	16105
911.374	16196
911.489	15979
911.604	15994
911.718	15747
911.833	15911
911.947	15873
912.062	15641
912.176	15926
912.291	15793
912.405	15854
912.519	16120
912.633	16032
912.748	15865
912.862	15827
912.976	15724
913.09	15504
913.204	15576
913.318	15633
913.431	15762
913.545	15663
913.659	15774
913.772	15511
913.886	15523
914	15458
914.113	15553
914.226	15549
914.34	15511
914.453	15344
914.566	15507
914.68	15389
914.793	15294
914.906	15123
915.019	15047
915.132	15157
915.245	15108
915.358	15104
915.47	15074
915.583	15161
915.696	15028
915.809	15199
915.921	15214
916.034	15020
916.146	14910
916.259	14887
916.371	14994
916.483	15036
916.595	14902
916.708	14891
916.82	14830
916.932	14800
917.044	14838
917.156	14872
917.268	14682
917.38	14708
917.491	14667
917.603	14689
917.715	14891
917.826	14826
917.938	14610
918.049	14533
918.161	14754
918.272	14834
918.384	14819
918.495	14663
918.606	14518
918.717	14404
918.828	14533
918.939	14469
919.05	14408
919.161	14377
919.272	14267
919.383	14332
919.494	14530
919.604	14587
919.715	14385
919.826	14355
919.936	14324
920.047	14362
920.157	14454
920.267	14526
920.378	14370
920.488	14298
920.598	14556
920.708	14610
920.818	14610
920.928	14564
921.038	14670
921.148	14629
921.258	14396
921.368	14267
921.477	14096
921.587	14096
921.697	13970
921.806	14096
921.916	13906
922.025	13849
922.134	13826
922.244	13780
922.353	13761
922.462	13601
922.571	13605
922.68	13491
922.789	13365
922.898	13392
923.007	13346
923.116	13403
923.224	13362
923.333	13270
923.442	13301
923.55	13247
923.659	13274
923.767	13289
923.876	13145
923.984	13213
924.092	13126
924.201	13034
924.309	13133
924.417	13118
924.525	13000
924.633	12951
924.741	13811
924.849	12852
924.956	13031
925.064	12825
925.172	12772
925.279	12852
925.387	12833
925.494	12795
925.602	12886
925.709	12913
925.816	12745
925.924	12719
926.031	12817
926.138	12791
926.245	12829
926.352	12700
926.459	12814
926.566	12726
926.673	12654
926.779	12639
926.886	12509
926.993	12441
927.099	12414
927.206	12350
927.312	12296
927.419	12437
927.525	12388
927.631	12422
927.737	12121
927.843	12254
927.95	12155
928.056	12182
928.162	12209
928.267	12270
928.373	12886
928.479	12224
928.585	12011
928.69	12125
928.796	12133
928.901	12072
929.007	11969
929.112	12125
929.218	11980
929.323	11893
929.428	11973
929.533	12087
929.638	11813
929.743	11821
929.848	11866
929.953	11855
930.058	11802
930.163	11570
930.267	11661
930.372	11695
930.477	11554
930.581	11771
930.685	11592
930.79	11490
930.894	11486
930.998	11425
931.103	11604
931.207	11227
931.311	11174
931.415	11014
931.519	10896
931.623	10812
