Data from test_V78500241_3130.txt Node
Date: Fri Mar 25 16:03:29 CST 2022
User: usil
Spectrometer: V785-0024
Trigger mode: 0
Integration Time (sec): 4.000000E-1
Scans to average: 1
Nonlinearity correction enabled: false
Boxcar width: 0
Storing dark spectrum: false
XAxis mode: Wavelengths
Number of Pixels in Spectrum: 1024
>>>>>Begin Spectral Data<<<<<
801.071	28873
801.214	28786
801.356	28607
801.499	28771
801.641	28421
801.783	28519
801.926	28424
802.068	28523
802.211	28356
802.353	28386
802.496	28344
802.638	28135
802.78	28215
802.923	28124
803.065	28101
803.208	28105
803.35	28276
803.492	28329
803.635	28360
803.777	28398
803.919	28367
804.061	28660
804.204	28325
804.346	28474
804.488	28329
804.63	28352
804.773	28276
804.915	28497
805.057	28584
805.199	28557
805.341	28561
805.483	28668
805.626	28664
805.768	28523
805.91	28580
806.052	28641
806.194	28565
806.336	28828
806.478	28607
806.62	28729
806.762	28637
806.904	28991
807.046	29193
807.188	29113
807.33	29124
807.472	29162
807.614	28961
807.756	29037
807.898	28873
808.04	28919
808.182	28858
808.324	28831
808.465	28839
808.607	29193
808.749	29311
808.891	29299
809.033	29383
809.174	29337
809.316	29189
809.458	29326
809.6	29166
809.741	29322
809.883	29303
810.025	29608
810.166	29779
810.308	29649
810.45	29581
810.591	29524
810.733	29311
810.875	29326
811.016	29227
811.158	29212
811.299	29296
811.441	29531
811.582	29368
811.724	29406
811.865	29395
812.007	29269
812.148	29318
812.29	29410
812.431	29448
812.573	29707
812.714	29824
812.855	29859
812.997	29965
813.138	30079
813.279	29980
813.421	30030
813.562	29908
813.703	29627
813.845	29501
813.986	29414
814.127	29128
814.268	29014
814.41	29025
814.551	29117
814.692	29174
814.833	28919
814.974	29117
815.115	29025
815.256	28820
815.397	28831
815.539	28915
815.68	28759
815.821	28683
815.962	28927
816.103	28790
816.244	28809
816.385	28710
816.526	28668
816.666	28538
816.807	28257
816.948	28394
817.089	28455
817.23	28379
817.371	28192
817.512	28382
817.653	28257
817.793	28230
817.934	28405
818.075	28459
818.216	28375
818.356	28398
818.497	28242
818.638	27941
818.778	28051
818.919	28169
819.06	28139
819.2	28238
819.341	28512
819.481	28329
819.622	28527
819.762	28752
819.903	28672
820.043	28664
820.184	28497
820.324	28474
820.465	28516
820.605	28519
820.746	28569
820.886	28470
821.026	28405
821.167	28352
821.307	28470
821.447	28329
821.588	28314
821.728	28261
821.868	28055
822.008	27819
822.149	27781
822.289	27793
822.429	27603
822.569	27580
822.709	27530
822.849	27389
822.99	27332
823.13	27473
823.27	27378
823.41	27203
823.55	26998
823.69	27165
823.83	27176
823.97	27203
824.11	26940
824.25	27036
824.389	27013
824.529	27062
824.669	26891
824.809	27058
824.949	27123
825.089	27047
825.228	27081
825.368	26739
825.508	26937
825.648	26925
825.787	27001
825.927	26960
826.067	26963
826.206	26918
826.346	27066
826.485	26948
826.625	26899
826.765	27047
826.904	26914
827.044	26644
827.183	26629
827.323	26731
827.462	26682
827.601	26598
827.741	26556
827.88	26670
828.02	26667
828.159	26625
828.298	26579
828.437	26522
828.577	26564
828.716	26762
828.855	26362
828.994	26301
829.134	26370
829.273	26298
829.412	26259
829.551	26244
829.69	26381
829.829	26317
829.968	26507
830.107	26377
830.246	26301
830.385	26176
830.524	26119
830.663	26043
830.802	25906
830.941	25856
831.08	25959
831.219	25966
831.357	26054
831.496	26187
831.635	25909
831.774	25799
831.913	25849
832.051	25719
832.19	25704
832.329	25666
832.467	25597
832.606	25567
832.744	25544
832.883	25662
833.022	25548
833.16	25533
833.299	25624
833.437	25609
833.576	25525
833.714	25689
833.852	25696
833.991	25799
834.129	25681
834.267	25677
834.406	25765
834.544	25616
834.682	25689
834.821	25666
834.959	25883
835.097	25544
835.235	25624
835.373	25525
835.511	25662
835.65	25499
835.788	25597
835.926	25388
836.064	25327
836.202	25282
836.34	25529
836.478	25426
836.615	25362
836.753	25381
836.891	25510
837.029	25578
837.167	25388
837.305	25407
837.443	25339
837.58	25278
837.718	25460
837.856	25354
837.993	25259
838.131	25365
838.269	25202
838.406	25088
838.544	25084
838.681	25015
838.819	24863
838.956	24837
839.094	24783
839.231	24833
839.369	24867
839.506	25198
839.643	24947
839.781	24745
839.918	24684
840.055	24810
840.193	24635
840.33	24688
840.467	24715
840.604	24665
840.742	24932
840.879	24513
841.016	24578
841.153	24490
841.29	24741
841.427	24620
841.564	24719
841.701	24772
841.838	24578
841.975	24525
842.112	24540
842.249	24494
842.385	24467
842.522	24551
842.659	24498
842.796	24448
842.933	24475
843.069	24308
843.206	24251
843.343	24429
843.479	24441
843.616	24525
843.752	24209
843.889	24167
844.025	24304
844.162	24053
844.298	24369
844.435	24224
844.571	24243
844.708	24174
844.844	24323
844.98	24330
845.117	24365
845.253	24091
845.389	23988
845.525	24041
845.661	24110
845.798	24030
845.934	24053
846.07	23916
846.206	24026
846.342	24060
846.478	24038
846.614	23699
846.75	23646
846.886	23581
847.022	23855
847.158	23699
847.294	23695
847.429	23627
847.565	23657
847.701	23878
847.837	23311
847.972	23497
848.108	23474
848.244	23376
848.379	23433
848.515	23277
848.65	23189
848.786	23181
848.921	23273
849.057	23273
849.192	23288
849.328	23258
849.463	23261
849.598	23170
849.734	23143
849.869	23132
850.004	23003
850.14	22930
850.275	22968
850.41	22942
850.545	22885
850.68	22965
850.815	23083
850.95	22953
851.085	23265
851.22	23121
851.355	23079
851.49	22961
851.625	23037
851.76	22965
851.895	22858
852.03	22938
852.165	22991
852.299	23048
852.434	23083
852.569	23071
852.703	22923
852.838	23025
852.973	23041
853.107	23075
853.242	22957
853.376	22790
853.511	22668
853.645	22713
853.78	22934
853.914	22755
854.048	22748
854.183	22805
854.317	22847
854.451	23124
854.585	23029
854.72	22900
854.854	22938
854.988	22778
855.122	22854
855.256	22698
855.39	22698
855.524	22873
855.658	22820
855.792	22691
855.926	22858
856.06	22885
856.194	22896
856.327	22790
856.461	22824
856.595	22767
856.729	22744
856.862	22930
856.996	22805
857.13	22877
857.263	22900
857.397	22717
857.53	22885
857.664	22847
857.797	22866
857.931	22816
858.064	22965
858.197	22908
858.331	22961
858.464	22653
858.597	22679
858.731	22850
858.864	22733
858.997	22790
859.13	22847
859.263	22904
859.396	22877
859.529	22797
859.662	22805
859.795	22702
859.928	22847
860.061	23041
860.194	23071
860.327	22896
860.46	22946
860.592	22942
860.725	22927
860.858	22957
860.99	22889
861.123	22736
861.256	22725
861.388	22889
861.521	23433
861.653	22740
861.786	22687
861.918	22622
862.05	22694
862.183	22740
862.315	22763
862.447	22862
862.58	22793
862.712	22557
862.844	22424
862.976	22675
863.108	22767
863.24	22896
863.372	22451
863.504	22584
863.636	22504
863.768	22565
863.9	22596
864.032	22493
864.164	22421
864.296	22626
864.428	22744
864.559	22508
864.691	22538
864.823	22436
864.954	22455
865.086	22417
865.217	22382
865.349	22276
865.48	22352
865.612	22405
865.743	22508
865.875	22344
866.006	22451
866.137	22371
866.269	22386
866.4	22314
866.531	22356
866.662	22226
866.793	22306
866.924	22230
867.055	22348
867.186	22356
867.317	22306
867.448	22249
867.579	22333
867.71	22207
867.841	22242
867.972	22394
868.103	22291
868.233	22318
868.364	22443
868.495	22424
868.625	22584
868.756	22672
868.886	22504
869.017	22577
869.147	22649
869.278	22675
869.408	22516
869.539	22554
869.669	22656
869.799	22508
869.929	22713
870.06	22649
870.19	22923
870.32	22831
870.45	23018
870.58	22938
870.71	23006
870.84	22965
870.97	22889
871.1	23052
871.23	23037
871.36	23311
871.489	23189
871.619	23044
871.749	23143
871.879	23246
872.008	23410
872.138	23193
872.267	23208
872.397	23014
872.526	22965
872.656	23037
872.785	23010
872.915	23280
873.044	23185
873.173	23239
873.303	23140
873.432	23223
873.561	23353
873.69	23242
873.819	23200
873.948	23299
874.077	23246
874.206	23181
874.335	23174
874.464	23326
874.593	23471
874.722	23292
874.851	23505
874.979	23414
875.108	23452
875.237	23277
875.365	23277
875.494	23277
875.623	23471
875.751	23292
875.88	23337
876.008	23440
876.136	23634
876.265	23908
876.393	23950
876.521	23920
876.65	23950
876.778	23775
876.906	23756
877.034	23672
877.162	23657
877.29	23642
877.418	23813
877.546	23729
877.674	23790
877.802	23661
877.93	23710
878.058	23821
878.185	23558
878.313	23668
878.441	23718
878.568	23562
878.696	23608
878.824	23847
878.951	23802
879.079	23832
879.206	23969
879.333	23958
879.461	23779
879.588	23802
879.715	24015
879.842	23961
879.97	23821
880.097	23585
880.224	23562
880.351	23619
880.478	23471
880.605	23573
880.732	23687
880.859	23794
880.986	23710
881.112	23562
881.239	23474
881.366	23288
881.493	23067
881.619	23075
881.746	23128
881.872	23204
881.999	23067
882.125	22949
882.252	23136
882.378	23056
882.505	23189
882.631	22873
882.757	22843
882.883	22847
883.01	22869
883.136	22694
883.262	22672
883.388	22592
883.514	22858
883.64	22900
883.766	22668
883.892	22478
884.018	22607
884.143	22824
884.269	22839
884.395	22512
884.52	22375
884.646	22432
884.772	22379
884.897	22291
885.023	22470
885.148	22390
885.274	22455
885.399	22580
885.524	22500
885.65	22462
885.775	22462
885.9	22280
886.025	22531
886.15	22386
886.275	22329
886.4	22280
886.525	22447
886.65	22329
886.775	22325
886.9	22470
887.025	22516
887.149	22295
887.274	22265
887.399	22154
887.523	22166
887.648	22070
887.773	22158
887.897	22192
888.021	22249
888.146	22021
888.27	22139
888.395	22200
888.519	22226
888.643	22238
888.767	22105
888.891	22128
889.015	21892
889.139	21991
889.263	21949
889.387	22207
889.511	22147
889.635	22040
889.759	21934
889.883	21945
890.006	21945
890.13	22029
890.254	21903
890.377	21899
890.501	21747
890.624	21732
890.748	21736
890.871	21591
890.995	21424
891.118	21469
891.241	21488
891.364	21595
891.488	21663
891.611	21435
891.734	21462
891.857	21363
891.98	21576
892.103	21576
892.226	21515
892.349	21504
892.471	21256
892.594	21435
892.717	21351
892.839	21408
892.962	21420
893.085	21496
893.207	21321
893.33	21268
893.452	21272
893.575	21397
893.697	21378
893.819	21534
893.941	21583
894.064	21469
894.186	21313
894.308	21359
894.43	21428
894.552	21511
894.674	21443
894.796	21222
894.918	21275
895.04	21306
895.161	21378
895.283	21317
895.405	21374
895.526	21321
895.648	21397
895.769	21397
895.891	21504
896.012	21397
896.134	21523
896.255	21355
896.376	21268
896.498	21279
896.619	21374
896.74	21374
896.861	21416
896.982	21652
897.103	21762
897.224	21519
897.345	21583
897.466	21557
897.587	21507
897.708	21641
897.828	21557
897.949	21473
898.07	21443
898.19	21500
898.311	21652
898.431	21561
898.552	21561
898.672	21454
898.792	21591
898.913	21591
899.033	21359
899.153	21401
899.273	21241
899.393	21256
899.513	21329
899.633	21340
899.753	21291
899.873	21173
899.993	21287
900.113	21188
900.232	21260
900.352	21211
900.472	21085
900.591	21001
900.711	21039
900.83	20952
900.95	21119
901.069	21077
901.189	21051
901.308	20777
901.427	20632
901.546	20693
901.665	20533
901.784	20670
901.904	20526
902.023	20362
902.141	20309
902.26	20043
902.379	20278
902.498	20134
902.617	20008
902.735	20210
902.854	19978
902.973	19993
903.091	19750
903.21	19822
903.328	19860
903.446	19822
903.565	19525
903.683	19525
903.801	19354
903.919	19476
904.038	19472
904.156	19362
904.274	19339
904.392	19377
904.51	19266
904.627	19289
904.745	19403
904.863	19232
904.981	19061
905.098	18939
905.216	18970
905.334	18989
905.451	19091
905.569	18993
905.686	19069
905.803	18871
905.921	18734
906.038	18844
906.155	18924
906.272	18646
906.389	18696
906.506	18483
906.623	18544
906.74	18399
906.857	18304
906.974	18388
907.091	18570
907.208	18502
907.324	18452
907.441	18395
907.557	18220
907.674	18235
907.79	18117
907.907	18197
908.023	18152
908.139	18273
908.256	18140
908.372	18079
908.488	18087
908.604	17923
908.72	17866
908.836	17954
908.952	17828
909.068	17775
909.184	17927
909.3	17954
909.415	17950
909.531	17874
909.647	17642
909.762	17573
909.878	17528
909.993	17653
910.108	17611
910.224	17566
910.339	17532
910.454	17509
910.57	17509
910.685	17326
910.8	17695
910.915	17509
911.03	17372
911.145	17189
911.259	17216
911.374	17174
911.489	17208
911.604	17010
911.718	16877
911.833	16892
911.947	16820
912.062	16782
912.176	16949
912.291	16957
912.405	16930
912.519	17117
912.633	17102
912.748	16987
912.862	16835
912.976	16656
913.09	16607
913.204	16729
913.318	16668
913.431	16790
913.545	16790
913.659	16820
913.772	16675
913.886	16580
914	16550
914.113	16618
914.226	16637
914.34	16637
914.453	16421
914.566	16535
914.68	16447
914.793	16322
914.906	16226
915.019	16013
915.132	16105
915.245	16135
915.358	16040
915.47	16116
915.583	16036
915.696	16082
915.809	16116
915.921	16219
916.034	16036
916.146	16017
916.259	16067
916.371	16093
916.483	15960
916.595	15888
916.708	15880
916.82	15823
916.932	15808
917.044	15827
917.156	15838
917.268	15667
917.38	15747
917.491	15736
917.603	15637
917.715	15774
917.826	15819
917.938	15682
918.049	15545
918.161	15595
918.272	15781
918.384	15739
918.495	15679
918.606	15454
918.717	15397
918.828	15469
918.939	15462
919.05	15401
919.161	15336
919.272	15222
919.383	15272
919.494	15473
919.604	15618
919.715	15523
919.826	15245
919.936	15279
920.047	15416
920.157	15469
920.267	15591
920.378	15374
920.488	15283
920.598	15595
920.708	15663
920.818	15530
920.928	15523
921.038	15637
921.148	15724
921.258	15382
921.368	15321
921.477	15146
921.587	15093
921.697	14975
921.806	15062
921.916	14918
922.025	14743
922.134	14758
922.244	14644
922.353	14785
922.462	14602
922.571	14632
922.68	14419
922.789	14431
922.898	14377
923.007	14259
923.116	14404
923.224	14393
923.333	14252
923.442	14180
923.55	14202
923.659	14206
923.767	14237
923.876	14115
923.984	14202
924.092	14043
924.201	14084
924.309	14103
924.417	14084
924.525	13944
924.633	14035
924.741	14849
924.849	13757
924.956	13902
925.064	13746
925.172	13753
925.279	13658
925.387	13704
925.494	13750
925.602	13852
925.709	13719
925.816	13609
925.924	13620
926.031	13868
926.138	13693
926.245	13643
926.352	13590
926.459	13731
926.566	13780
926.673	13639
926.779	13449
926.886	13476
926.993	13289
927.099	13278
927.206	13160
927.312	13168
927.419	13266
927.525	13232
927.631	13270
927.737	13084
927.843	13080
927.95	13000
928.056	13141
928.162	13004
928.267	13118
928.373	13753
928.479	13145
928.585	12821
928.69	13152
928.796	13034
928.901	12875
929.007	12779
929.112	12966
929.218	12962
929.323	12829
929.428	12802
929.533	12882
929.638	12688
929.743	12760
929.848	12734
929.953	12711
930.058	12563
930.163	12551
930.267	12429
930.372	12601
930.477	12471
930.581	12612
930.685	12536
930.79	12296
930.894	12403
930.998	12334
931.103	12388
931.207	12144
931.311	12030
931.415	12011
931.519	11756
931.623	11726
