Data from test_V78500241_3444.txt Node
Date: Fri Mar 25 16:05:39 CST 2022
User: usil
Spectrometer: V785-0024
Trigger mode: 0
Integration Time (sec): 4.000000E-1
Scans to average: 1
Nonlinearity correction enabled: false
Boxcar width: 0
Storing dark spectrum: false
XAxis mode: Wavelengths
Number of Pixels in Spectrum: 1024
>>>>>Begin Spectral Data<<<<<
801.071	28850
801.214	28847
801.356	28725
801.499	28550
801.641	28394
801.783	28436
801.926	28436
802.068	28466
802.211	28394
802.353	28367
802.496	28333
802.638	28166
802.78	28207
802.923	28261
803.065	28112
803.208	28303
803.35	28139
803.492	28314
803.635	28512
803.777	28249
803.919	28440
804.061	28733
804.204	28470
804.346	28405
804.488	28394
804.63	28428
804.773	28333
804.915	28504
805.057	28618
805.199	28421
805.341	28554
805.483	28519
805.626	28489
805.768	28516
805.91	28474
806.052	28611
806.194	28493
806.336	28755
806.478	28664
806.62	28637
806.762	28733
806.904	28869
807.046	28972
807.188	28919
807.33	29022
807.472	28961
807.614	28984
807.756	29014
807.898	28972
808.04	28748
808.182	28706
808.324	28908
808.465	28984
808.607	29269
808.749	29185
808.891	29417
809.033	29501
809.174	29440
809.316	29250
809.458	29197
809.6	29303
809.741	29387
809.883	29467
810.025	29676
810.166	29589
810.308	29482
810.45	29440
810.591	29482
810.733	29455
810.875	29391
811.016	29147
811.158	29193
811.299	29406
811.441	29387
811.582	29490
811.724	29296
811.865	29410
812.007	29288
812.148	29391
812.29	29375
812.431	29467
812.573	29589
812.714	29882
812.855	29885
812.997	29897
813.138	30064
813.279	29866
813.421	29935
813.562	29714
813.703	29573
813.845	29509
813.986	29273
814.127	29185
814.268	29022
814.41	29044
814.551	29025
814.692	29113
814.833	28999
814.974	28927
815.115	28999
815.256	28881
815.397	28888
815.539	28706
815.68	28839
815.821	28615
815.962	28828
816.103	28946
816.244	28771
816.385	28493
816.526	28504
816.666	28413
816.807	28280
816.948	28375
817.089	28371
817.23	28428
817.371	28341
817.512	28287
817.653	28318
817.793	28257
817.934	28223
818.075	28333
818.216	28291
818.356	28226
818.497	28090
818.638	28013
818.778	28204
818.919	28112
819.06	28143
819.2	28314
819.341	28314
819.481	28466
819.622	28455
819.762	28729
819.903	28516
820.043	28531
820.184	28462
820.324	28500
820.465	28550
820.605	28493
820.746	28386
820.886	28348
821.026	28443
821.167	28462
821.307	28462
821.447	28508
821.588	28219
821.728	28173
821.868	28017
822.008	27819
822.149	27842
822.289	27751
822.429	27564
822.569	27610
822.709	27572
822.849	27359
822.99	27462
823.13	27256
823.27	27245
823.41	27074
823.55	27058
823.69	27131
823.83	27085
823.97	27096
824.11	27017
824.25	26861
824.389	26963
824.529	27123
824.669	27001
824.809	27013
824.949	27077
825.089	27119
825.228	27062
825.368	26979
825.508	26960
825.648	26804
825.787	26883
825.927	26982
826.067	26872
826.206	26948
826.346	26849
826.485	26979
826.625	26994
826.765	27020
826.904	26960
827.044	26762
827.183	26682
827.323	26526
827.462	26613
827.601	26549
827.741	26533
827.88	26629
828.02	26552
828.159	26583
828.298	26625
828.437	26629
828.577	26522
828.716	26689
828.855	26366
828.994	26370
829.134	26286
829.273	26355
829.412	26294
829.551	26183
829.69	26294
829.829	26290
829.968	26267
830.107	26313
830.246	26301
830.385	26172
830.524	26176
830.663	26088
830.802	25966
830.941	25883
831.08	25769
831.219	26065
831.357	25913
831.496	26157
831.635	25791
831.774	25647
831.913	25811
832.051	25685
832.19	25563
832.329	25590
832.467	25658
832.606	25605
832.744	25521
832.883	25518
833.022	25514
833.16	25616
833.299	25476
833.437	25567
833.576	25693
833.714	25685
833.852	25769
833.991	25719
834.129	25803
834.267	25658
834.406	25616
834.544	25666
834.682	25571
834.821	25518
834.959	25811
835.097	25658
835.235	25533
835.373	25632
835.511	25624
835.65	25449
835.788	25635
835.926	25285
836.064	25225
836.202	25304
836.34	25468
836.478	25422
836.615	25369
836.753	25460
836.891	25533
837.029	25567
837.167	25384
837.305	25247
837.443	25244
837.58	25232
837.718	25240
837.856	25297
837.993	25362
838.131	25198
838.269	25194
838.406	25122
838.544	25095
838.681	24935
838.819	24757
838.956	24627
839.094	24772
839.231	24574
839.369	24916
839.506	25168
839.643	25019
839.781	24627
839.918	24779
840.055	24764
840.193	24601
840.33	24483
840.467	24658
840.604	24665
840.742	24882
840.879	24536
841.016	24517
841.153	24696
841.29	24741
841.427	24563
841.564	24475
841.701	24681
841.838	24608
841.975	24544
842.112	24551
842.249	24456
842.385	24247
842.522	24536
842.659	24372
842.796	24228
842.933	24426
843.069	24308
843.206	24361
843.343	24452
843.479	24315
843.616	24502
843.752	24243
843.889	24117
844.025	24426
844.162	24224
844.298	24273
844.435	24163
844.571	24121
844.708	24254
844.844	24247
844.98	24357
845.117	24167
845.253	24083
845.389	24102
845.525	23969
845.661	23897
845.798	23996
845.934	23999
846.07	23901
846.206	23992
846.342	24034
846.478	23950
846.614	23562
846.75	23547
846.886	23665
847.022	23653
847.158	23642
847.294	23611
847.429	23665
847.565	23524
847.701	23813
847.837	23322
847.972	23315
848.108	23417
848.244	23589
848.379	23254
848.515	23151
848.65	23239
848.786	23140
848.921	23242
849.057	23341
849.192	23303
849.328	23204
849.463	23056
849.598	23098
849.734	23216
849.869	23155
850.004	22782
850.14	22934
850.275	23060
850.41	23025
850.545	22957
850.68	22805
850.815	23079
850.95	22892
851.085	23109
851.22	23022
851.355	23006
851.49	22896
851.625	22995
851.76	22927
851.895	22953
852.03	22900
852.165	22881
852.299	22934
852.434	23075
852.569	22934
852.703	22927
852.838	23071
852.973	23189
853.107	23166
853.242	22877
853.376	22908
853.511	22687
853.645	22641
853.78	22953
853.914	22778
854.048	22740
854.183	22885
854.317	22786
854.451	22961
854.585	22816
854.72	22793
854.854	22847
854.988	22740
855.122	22854
855.256	22668
855.39	22824
855.524	22759
855.658	22809
855.792	22778
855.926	22786
856.06	22885
856.194	22801
856.327	22771
856.461	22752
856.595	22721
856.729	22713
856.862	22927
856.996	22835
857.13	22900
857.263	22873
857.397	22869
857.53	22733
857.664	22831
857.797	22748
857.931	22892
858.064	22797
858.197	22915
858.331	22866
858.464	22706
858.597	22596
858.731	22713
858.864	22763
858.997	22748
859.13	22771
859.263	22717
859.396	22934
859.529	22736
859.662	22790
859.795	22691
859.928	22771
860.061	22843
860.194	22915
860.327	22900
860.46	22763
860.592	22816
860.725	22965
860.858	22854
860.99	22816
861.123	22679
861.256	22835
861.388	22892
861.521	23307
861.653	22622
861.786	22497
861.918	22637
862.05	22683
862.183	22668
862.315	22691
862.447	22740
862.58	22759
862.712	22508
862.844	22413
862.976	22535
863.108	22557
863.24	22797
863.372	22550
863.504	22508
863.636	22485
863.768	22485
863.9	22500
864.032	22375
864.164	22417
864.296	22367
864.428	22577
864.559	22588
864.691	22485
864.823	22531
864.954	22523
865.086	22459
865.217	22386
865.349	22325
865.48	22379
865.612	22367
865.743	22478
865.875	22466
866.006	22413
866.137	22337
866.269	22512
866.4	22344
866.531	22341
866.662	22333
866.793	22101
866.924	22306
867.055	22398
867.186	22207
867.317	22287
867.448	22185
867.579	22318
867.71	22234
867.841	22238
867.972	22329
868.103	22348
868.233	22299
868.364	22360
868.495	22341
868.625	22474
868.756	22569
868.886	22413
869.017	22580
869.147	22584
869.278	22668
869.408	22379
869.539	22557
869.669	22641
869.799	22531
869.929	22774
870.06	22668
870.19	22824
870.32	22828
870.45	22797
870.58	22892
870.71	23048
870.84	22984
870.97	22850
871.1	22923
871.23	23083
871.36	23140
871.489	23098
871.619	23025
871.749	23060
871.879	23204
872.008	23265
872.138	23113
872.267	23121
872.397	22961
872.526	22946
872.656	22980
872.785	22999
872.915	23159
873.044	23235
873.173	23181
873.303	23155
873.432	23254
873.561	23315
873.69	23151
873.819	23155
873.948	23204
874.077	23117
874.206	23064
874.335	23136
874.464	23273
874.593	23246
874.722	23235
874.851	23326
874.979	23364
875.108	23433
875.237	23421
875.365	23212
875.494	23360
875.623	23402
875.751	23387
875.88	23463
876.008	23372
876.136	23482
876.265	23794
876.393	23863
876.521	23809
876.65	23874
876.778	23657
876.906	23661
877.034	23646
877.162	23623
877.29	23714
877.418	23779
877.546	23722
877.674	23726
877.802	23657
877.93	23653
878.058	23573
878.185	23581
878.313	23604
878.441	23691
878.568	23417
878.696	23573
878.824	23684
878.951	23710
879.079	23912
879.206	23965
879.333	23874
879.461	23737
879.588	23707
879.715	23824
879.842	23920
879.97	23691
880.097	23474
880.224	23455
880.351	23493
880.478	23516
880.605	23463
880.732	23573
880.859	23562
880.986	23482
881.112	23547
881.239	23356
881.366	23174
881.493	23178
881.619	23098
881.746	23128
881.872	23094
881.999	23025
882.125	22961
882.252	23056
882.378	23105
882.505	23132
882.631	22934
882.757	22786
882.883	22698
883.01	22702
883.136	22664
883.262	22653
883.388	22550
883.514	22869
883.64	22828
883.766	22672
883.892	22512
884.018	22478
884.143	22660
884.269	22687
884.395	22440
884.52	22318
884.646	22337
884.772	22310
884.897	22417
885.023	22470
885.148	22550
885.274	22508
885.399	22421
885.524	22272
885.65	22405
885.775	22390
885.9	22257
886.025	22405
886.15	22402
886.275	22299
886.4	22325
886.525	22272
886.65	22375
886.775	22367
886.9	22478
887.025	22557
887.149	22246
887.274	22196
887.399	22017
887.523	22131
887.648	22070
887.773	21926
887.897	22261
888.021	22036
888.146	22029
888.27	22234
888.395	22242
888.519	22074
888.643	22139
888.767	22147
888.891	22040
889.015	21945
889.139	21983
889.263	21827
889.387	22010
889.511	22105
889.635	22006
889.759	21918
889.883	21880
890.006	21941
890.13	21888
890.254	21884
890.377	21709
890.501	21644
890.624	21663
890.748	21698
890.871	21557
890.995	21408
891.118	21359
891.241	21515
891.364	21458
891.488	21572
891.611	21557
891.734	21382
891.857	21542
891.98	21519
892.103	21317
892.226	21572
892.349	21370
892.471	21294
892.594	21420
892.717	21450
892.839	21317
892.962	21325
893.085	21424
893.207	21492
893.33	21264
893.452	21359
893.575	21386
893.697	21294
893.819	21462
893.941	21496
894.064	21481
894.186	21214
894.308	21214
894.43	21428
894.552	21538
894.674	21435
894.796	21245
894.918	21291
895.04	21245
895.161	21378
895.283	21298
895.405	21275
895.526	21382
895.648	21298
895.769	21439
895.891	21332
896.012	21363
896.134	21325
896.255	21275
896.376	21291
896.498	21359
896.619	21313
896.74	21268
896.861	21401
896.982	21641
897.103	21766
897.224	21496
897.345	21576
897.466	21416
897.587	21439
897.708	21701
897.828	21561
897.949	21348
898.07	21378
898.19	21447
898.311	21603
898.431	21386
898.552	21545
898.672	21507
898.792	21603
898.913	21519
899.033	21401
899.153	21313
899.273	21199
899.393	21180
899.513	21382
899.633	21272
899.753	21211
899.873	21108
899.993	21237
900.113	21233
900.232	21096
900.352	21199
900.472	21142
900.591	20899
900.711	21043
900.83	20918
900.95	21123
901.069	21096
901.189	20800
901.308	20705
901.427	20625
901.546	20427
901.665	20568
901.784	20461
901.904	20324
902.023	20366
902.141	20218
902.26	20073
902.379	20039
902.498	20050
902.617	19982
902.735	19978
902.854	20046
902.973	20012
903.091	19765
903.21	19742
903.328	19715
903.446	19590
903.565	19518
903.683	19362
903.801	19350
903.919	19559
904.038	19438
904.156	19160
904.274	19190
904.392	19160
904.51	19179
904.627	19202
904.745	19331
904.863	19327
904.981	19095
905.098	19019
905.216	18897
905.334	18958
905.451	18897
905.569	18897
905.686	18939
905.803	18890
905.921	18840
906.038	18810
906.155	18684
906.272	18665
906.389	18658
906.506	18422
906.623	18350
906.74	18433
906.857	18384
906.974	18452
907.091	18532
907.208	18486
907.324	18475
907.441	18292
907.557	18144
907.674	18273
907.79	18087
907.907	18076
908.023	18133
908.139	18152
908.256	18102
908.372	17992
908.488	17840
908.604	17863
908.72	17840
908.836	17855
908.952	17920
909.068	17920
909.184	18026
909.3	17912
909.415	17855
909.531	17790
909.647	17562
909.762	17646
909.878	17562
909.993	17615
910.108	17589
910.224	17429
910.339	17459
910.454	17330
910.57	17318
910.685	17296
910.8	17528
910.915	17463
911.03	17284
911.145	17235
911.259	17105
911.374	17041
911.489	17117
911.604	16987
911.718	16889
911.833	17029
911.947	16805
912.062	16725
912.176	16805
912.291	16946
912.405	16930
912.519	17159
912.633	16957
912.748	16831
912.862	16809
912.976	16668
913.09	16569
913.204	16603
913.318	16698
913.431	16835
913.545	16713
913.659	16763
913.772	16668
913.886	16565
914	16500
914.113	16512
914.226	16725
914.34	16424
914.453	16333
914.566	16550
914.68	16314
914.793	16325
914.906	16230
915.019	16067
915.132	15915
915.245	15861
915.358	16124
915.47	16078
915.583	16082
915.696	16131
915.809	16219
915.921	16162
916.034	16063
916.146	15884
916.259	16032
916.371	15926
916.483	15819
916.595	15816
916.708	15907
916.82	15827
916.932	15816
917.044	15823
917.156	15743
917.268	15755
917.38	15766
917.491	15599
917.603	15732
917.715	15606
917.826	15781
917.938	15652
918.049	15473
918.161	15641
918.272	15720
918.384	15682
918.495	15591
918.606	15359
918.717	15412
918.828	15329
918.939	15412
919.05	15344
919.161	15374
919.272	15207
919.383	15272
919.494	15416
919.604	15610
919.715	15374
919.826	15154
919.936	15325
920.047	15450
920.157	15355
920.267	15526
920.378	15363
920.488	15332
920.598	15538
920.708	15660
920.818	15374
920.928	15454
921.038	15584
921.148	15618
921.258	15279
921.368	15298
921.477	15093
921.587	15047
921.697	14842
921.806	15058
921.916	14921
922.025	14769
922.134	14697
922.244	14602
922.353	14750
922.462	14632
922.571	14412
922.68	14355
922.789	14320
922.898	14347
923.007	14301
923.116	14370
923.224	14355
923.333	14305
923.442	14233
923.55	14195
923.659	14218
923.767	14256
923.876	14130
923.984	14130
924.092	14065
924.201	14119
924.309	14058
924.417	14031
924.525	14069
924.633	13932
924.741	14887
924.849	13803
924.956	13894
925.064	13693
925.172	13734
925.279	13696
925.387	13693
925.494	13643
925.602	13795
925.709	13780
925.816	13601
925.924	13620
926.031	13704
926.138	13567
926.245	13723
926.352	13571
926.459	13677
926.566	13677
926.673	13567
926.779	13537
926.886	13480
926.993	13289
927.099	13274
927.206	13168
927.312	13194
927.419	13354
927.525	13282
927.631	13225
927.737	13118
927.843	13038
927.95	12882
928.056	13072
928.162	13038
928.267	13137
928.373	13746
928.479	13122
928.585	12863
928.69	12996
928.796	13053
928.901	12947
929.007	12738
929.112	12856
929.218	12890
929.323	12703
929.428	12707
929.533	12783
929.638	12726
929.743	12730
929.848	12749
929.953	12631
930.058	12597
930.163	12403
930.267	12525
930.372	12566
930.477	12323
930.581	12604
930.685	12330
930.79	12296
930.894	12311
930.998	12330
931.103	12422
931.207	12034
931.311	11931
931.415	11893
931.519	11684
931.623	11653
