Data from test_V78500241_77.txt Node
Date: Fri Mar 25 15:42:20 CST 2022
User: usil
Spectrometer: V785-0024
Trigger mode: 0
Integration Time (sec): 4.000000E-1
Scans to average: 1
Nonlinearity correction enabled: false
Boxcar width: 0
Storing dark spectrum: false
XAxis mode: Wavelengths
Number of Pixels in Spectrum: 1024
>>>>>Begin Spectral Data<<<<<
801.071	29996
801.214	29977
801.356	29726
801.499	29668
801.641	29463
801.783	29455
801.926	29547
802.068	29551
802.211	29478
802.353	29509
802.496	29128
802.638	29094
802.78	29067
802.923	29121
803.065	29079
803.208	29056
803.35	29227
803.492	29318
803.635	29334
803.777	29200
803.919	29364
804.061	29486
804.204	29414
804.346	29109
804.488	29242
804.63	29204
804.773	29117
804.915	29143
805.057	29341
805.199	29288
805.341	29273
805.483	29379
805.626	29421
805.768	29372
805.91	29383
806.052	29459
806.194	29360
806.336	29558
806.478	29444
806.62	29421
806.762	29551
806.904	29592
807.046	29764
807.188	29771
807.33	29821
807.472	29836
807.614	29646
807.756	29783
807.898	29684
808.04	29551
808.182	29585
808.324	29547
808.465	29680
808.607	29828
808.749	29893
808.891	29916
809.033	29961
809.174	29950
809.316	29946
809.458	29977
809.6	29832
809.741	29912
809.883	29984
810.025	30159
810.166	30083
810.308	30057
810.45	30163
810.591	30018
810.733	29950
810.875	29832
811.016	29794
811.158	29752
811.299	29908
811.441	30133
811.582	29927
811.724	29756
811.865	29901
812.007	29855
812.148	29958
812.29	29992
812.431	29965
812.573	30220
812.714	30205
812.855	30315
812.997	30429
813.138	30578
813.279	30403
813.421	30292
813.562	30277
813.703	30174
813.845	30060
813.986	29813
814.127	29710
814.268	29608
814.41	29630
814.551	29528
814.692	29573
814.833	29318
814.974	29220
815.115	29444
815.256	29360
815.397	29254
815.539	29334
815.68	29341
815.821	29098
815.962	29170
816.103	29242
816.244	28980
816.385	28881
816.526	28820
816.666	28934
816.807	28656
816.948	28782
817.089	28672
817.23	28763
817.371	28527
817.512	28599
817.653	28603
817.793	28569
817.934	28554
818.075	28542
818.216	28550
818.356	28459
818.497	28382
818.638	28371
818.778	28150
818.919	28440
819.06	28398
819.2	28386
819.341	28508
819.481	28409
819.622	28580
819.762	28729
819.903	28637
820.043	28694
820.184	28538
820.324	28641
820.465	28645
820.605	28611
820.746	28424
820.886	28409
821.026	28481
821.167	28512
821.307	28436
821.447	28440
821.588	28474
821.728	28143
821.868	28032
822.008	27945
822.149	27850
822.289	27812
822.429	27576
822.569	27622
822.709	27606
822.849	27583
822.99	27408
823.13	27310
823.27	27306
823.41	27264
823.55	26967
823.69	27203
823.83	27237
823.97	27062
824.11	26940
824.25	26910
824.389	26967
824.529	26982
824.669	26891
824.809	27116
824.949	26982
825.089	27043
825.228	27047
825.368	26686
825.508	26804
825.648	26678
825.787	26788
825.927	26796
826.067	26746
826.206	26754
826.346	26796
826.485	26796
826.625	26632
826.765	26792
826.904	26849
827.044	26453
827.183	26446
827.323	26461
827.462	26370
827.601	26457
827.741	26450
827.88	26366
828.02	26142
828.159	26313
828.298	26263
828.437	26499
828.577	26282
828.716	26560
828.855	26157
828.994	26092
829.134	26168
829.273	26164
829.412	25974
829.551	26012
829.69	25986
829.829	26035
829.968	26187
830.107	26012
830.246	26016
830.385	25917
830.524	25932
830.663	25845
830.802	25681
830.941	25563
831.08	25620
831.219	25628
831.357	25761
831.496	25864
831.635	25681
831.774	25460
831.913	25487
832.051	25324
832.19	25308
832.329	25419
832.467	25324
832.606	25103
832.744	25076
832.883	25232
833.022	25175
833.16	25240
833.299	25168
833.437	25122
833.576	25289
833.714	25133
833.852	25297
833.991	25251
834.129	25282
834.267	25244
834.406	25282
834.544	25289
834.682	25206
834.821	25129
834.959	25373
835.097	25164
835.235	25202
835.373	25114
835.511	25255
835.65	24894
835.788	25156
835.926	24859
836.064	24722
836.202	24730
836.34	25008
836.478	25072
836.615	24905
836.753	24795
836.891	25019
837.029	25008
837.167	24970
837.305	24901
837.443	24859
837.58	24886
837.718	24871
837.856	24817
837.993	24719
838.131	24760
838.269	24627
838.406	24620
838.544	24726
838.681	24399
838.819	24209
838.956	24201
839.094	24197
839.231	24270
839.369	24327
839.506	24551
839.643	24536
839.781	24201
839.918	24194
840.055	24251
840.193	24060
840.33	24159
840.467	24098
840.604	24140
840.742	24338
840.879	23988
841.016	24038
841.153	24041
841.29	24163
841.427	24034
841.564	24152
841.701	24041
841.838	24057
841.975	23961
842.112	23866
842.249	23836
842.385	23828
842.522	24098
842.659	23866
842.796	23798
842.933	23756
843.069	23798
843.206	23623
843.343	23802
843.479	23832
843.616	23863
843.752	23516
843.889	23501
844.025	23596
844.162	23539
844.298	23547
844.435	23478
844.571	23337
844.708	23486
844.844	23478
844.98	23490
845.117	23520
845.253	23459
845.389	23337
845.525	23425
845.661	23318
845.798	23216
845.934	23223
846.07	23189
846.206	23227
846.342	23216
846.478	23056
846.614	22957
846.75	22790
846.886	22835
847.022	22847
847.158	22923
847.294	22790
847.429	22881
847.565	22915
847.701	23105
847.837	22713
847.972	22573
848.108	22622
848.244	22649
848.379	22565
848.515	22516
848.65	22459
848.786	22375
848.921	22398
849.057	22470
849.192	22493
849.328	22360
849.463	22436
849.598	22363
849.734	22219
849.869	22257
850.004	22051
850.14	22150
850.275	22177
850.41	22173
850.545	22120
850.68	22177
850.815	22173
850.95	22139
851.085	22386
851.22	22265
851.355	22215
851.49	21983
851.625	21987
851.76	22044
851.895	22147
852.03	22021
852.165	22124
852.299	22090
852.434	22249
852.569	22177
852.703	22051
852.838	22223
852.973	22306
853.107	22230
853.242	22044
853.376	21983
853.511	21915
853.645	21926
853.78	22124
853.914	21876
854.048	21994
854.183	21892
854.317	21968
854.451	22173
854.585	21865
854.72	21907
854.854	22006
854.988	21800
855.122	21903
855.256	21816
855.39	21861
855.524	22036
855.658	21915
855.792	21861
855.926	21934
856.06	21987
856.194	21987
856.327	21907
856.461	21793
856.595	21838
856.729	21846
856.862	22002
856.996	21991
857.13	21983
857.263	21953
857.397	22029
857.53	21934
857.664	21838
857.797	21842
857.931	21960
858.064	21797
858.197	22029
858.331	21850
858.464	21743
858.597	21743
858.731	21850
858.864	21808
858.997	21751
859.13	21759
859.263	21774
859.396	21918
859.529	21789
859.662	21694
859.795	21690
859.928	21838
860.061	21895
860.194	22025
860.327	21835
860.46	21869
860.592	21827
860.725	21846
860.858	21774
860.99	21743
861.123	21713
861.256	21770
861.388	21808
861.521	22519
861.653	21660
861.786	21648
861.918	21671
862.05	21873
862.183	21717
862.315	21987
862.447	21869
862.58	21797
862.712	21625
862.844	21587
862.976	21557
863.108	21580
863.24	21819
863.372	21416
863.504	21393
863.636	21466
863.768	21580
863.9	21443
864.032	21435
864.164	21435
864.296	21515
864.428	21538
864.559	21576
864.691	21485
864.823	21359
864.954	21431
865.086	21386
865.217	21435
865.349	21370
865.48	21386
865.612	21306
865.743	21447
865.875	21302
866.006	21279
866.137	21439
866.269	21382
866.4	21348
866.531	21344
866.662	21344
866.793	21408
866.924	21393
867.055	21256
867.186	21264
867.317	21302
867.448	21142
867.579	21173
867.71	21260
867.841	21188
867.972	21351
868.103	21287
868.233	21275
868.364	21275
868.495	21405
868.625	21496
868.756	21701
868.886	21374
869.017	21481
869.147	21618
869.278	21667
869.408	21545
869.539	21504
869.669	21549
869.799	21583
869.929	21583
870.06	21572
870.19	21884
870.32	21739
870.45	21873
870.58	21888
870.71	22070
870.84	22040
870.97	21926
871.1	21895
871.23	22013
871.36	22120
871.489	22055
871.619	22181
871.749	22162
871.879	22143
872.008	22116
872.138	22219
872.267	22131
872.397	21972
872.526	21956
872.656	22002
872.785	21918
872.915	22101
873.044	22200
873.173	22006
873.303	22204
873.432	22139
873.561	22211
873.69	22166
873.819	22169
873.948	22234
874.077	22147
874.206	22078
874.335	22063
874.464	22230
874.593	22325
874.722	22333
874.851	22432
874.979	22413
875.108	22500
875.237	22249
875.365	22238
875.494	22204
875.623	22379
875.751	22371
875.88	22489
876.008	22489
876.136	22573
876.265	22733
876.393	22854
876.521	22748
876.65	22938
876.778	22755
876.906	22748
877.034	22618
877.162	22687
877.29	22687
877.418	22748
877.546	22889
877.674	22672
877.802	22729
877.93	22634
878.058	22744
878.185	22683
878.313	22660
878.441	22713
878.568	22519
878.696	22664
878.824	22679
878.951	22828
879.079	22892
879.206	23083
879.333	22934
879.461	22824
879.588	22786
879.715	22824
879.842	22885
879.97	22805
880.097	22478
880.224	22584
880.351	22546
880.478	22424
880.605	22424
880.732	22413
880.859	22740
880.986	22554
881.112	22519
881.239	22409
881.366	22284
881.493	22139
881.619	22131
881.746	22143
881.872	22101
881.999	22013
882.125	21949
882.252	22120
882.378	22051
882.505	22192
882.631	21907
882.757	21895
882.883	21850
883.01	21759
883.136	21812
883.262	21660
883.388	21751
883.514	21854
883.64	21888
883.766	21667
883.892	21644
884.018	21701
884.143	21781
884.269	21747
884.395	21591
884.52	21511
884.646	21428
884.772	21523
884.897	21466
885.023	21469
885.148	21507
885.274	21572
885.399	21523
885.524	21416
885.65	21401
885.775	21378
885.9	21488
886.025	21576
886.15	21469
886.275	21321
886.4	21359
886.525	21344
886.65	21272
886.775	21325
886.9	21519
887.025	21622
887.149	21389
887.274	21127
887.399	21203
887.523	21184
887.648	21093
887.773	21127
887.897	21180
888.021	21283
888.146	21013
888.27	21203
888.395	21207
888.519	21249
888.643	21207
888.767	21192
888.891	20948
889.015	20971
889.139	21001
889.263	20979
889.387	21028
889.511	21192
889.635	21062
889.759	20944
889.883	20944
890.006	20963
890.13	20963
890.254	20834
890.377	20838
890.501	20758
890.624	20659
890.748	20765
890.871	20629
890.995	20609
891.118	20393
891.241	20469
891.364	20613
891.488	20659
891.611	20499
891.734	20575
891.857	20625
891.98	20492
892.103	20629
892.226	20533
892.349	20404
892.471	20275
892.594	20336
892.717	20533
892.839	20275
892.962	20434
893.085	20465
893.207	20339
893.33	20278
893.452	20328
893.575	20427
893.697	20400
893.819	20579
893.941	20598
894.064	20514
894.186	20259
894.308	20396
894.43	20438
894.552	20720
894.674	20632
894.796	20358
894.918	20317
895.04	20305
895.161	20438
895.283	20431
895.405	20381
895.526	20469
895.648	20328
895.769	20431
895.891	20492
896.012	20446
896.134	20480
896.255	20427
896.376	20415
896.498	20469
896.619	20511
896.74	20461
896.861	20484
896.982	20861
897.103	20891
897.224	20800
897.345	20651
897.466	20522
897.587	20705
897.708	20804
897.828	20705
897.949	20556
898.07	20530
898.19	20587
898.311	20765
898.431	20598
898.552	20598
898.672	20689
898.792	20575
898.913	20602
899.033	20499
899.153	20374
899.273	20240
899.393	20313
899.513	20389
899.633	20362
899.753	20221
899.873	20301
899.993	20389
900.113	20305
900.232	20187
900.352	20210
900.472	20195
900.591	20142
900.711	20103
900.83	20107
900.95	20221
901.069	20187
901.189	20043
901.308	19856
901.427	19639
901.546	19689
901.665	19795
901.784	19655
901.904	19571
902.023	19518
902.141	19141
902.26	19118
902.379	19350
902.498	19080
902.617	19168
902.735	19171
902.854	19099
902.973	19034
903.091	18848
903.21	18760
903.328	18764
903.446	18639
903.565	18650
903.683	18635
903.801	18384
903.919	18544
904.038	18525
904.156	18471
904.274	18486
904.392	18372
904.51	18338
904.627	18350
904.745	18429
904.863	18384
904.981	18174
905.098	17912
905.216	17980
905.334	18064
905.451	18133
905.569	18060
905.686	17984
905.803	17969
905.921	17771
906.038	17942
906.155	17889
906.272	17752
906.389	17608
906.506	17509
906.623	17619
906.74	17581
906.857	17543
906.974	17452
907.091	17707
907.208	17703
907.324	17611
907.441	17448
907.557	17292
907.674	17208
907.79	17299
907.907	17231
908.023	17345
908.139	17170
908.256	17239
908.372	17102
908.488	17033
908.604	17029
908.72	16854
908.836	16957
908.952	16938
909.068	16877
909.184	16991
909.3	16843
909.415	16938
909.531	16847
909.647	16691
909.762	16706
909.878	16630
909.993	16664
910.108	16611
910.224	16497
910.339	16535
910.454	16402
910.57	16443
910.685	16295
910.8	16569
910.915	16596
911.03	16409
911.145	16185
911.259	16188
911.374	16291
911.489	16162
911.604	15987
911.718	15895
911.833	15934
911.947	15854
912.062	15755
912.176	15937
912.291	15899
912.405	15983
912.519	16105
912.633	16166
912.748	15994
912.862	15857
912.976	15728
913.09	15610
913.204	15671
913.318	15720
913.431	15895
913.545	15831
913.659	15785
913.772	15705
913.886	15519
914	15591
914.113	15553
914.226	15561
914.34	15557
914.453	15325
914.566	15606
914.68	15355
914.793	15412
914.906	15195
915.019	15184
915.132	15062
915.245	15165
915.358	15195
915.47	15116
915.583	15169
915.696	15176
915.809	15233
915.921	15237
916.034	15097
916.146	15047
916.259	15066
916.371	15062
916.483	15089
916.595	14902
916.708	14986
916.82	14979
916.932	14975
917.044	14952
917.156	14811
917.268	14701
917.38	14830
917.491	14785
917.603	14739
917.715	14815
917.826	14849
917.938	14606
918.049	14564
918.161	14750
918.272	14849
918.384	14727
918.495	14807
918.606	14507
918.717	14549
918.828	14621
918.939	14598
919.05	14408
919.161	14465
919.272	14320
919.383	14423
919.494	14537
919.604	14697
919.715	14408
919.826	14438
919.936	14518
920.047	14602
920.157	14431
920.267	14644
920.378	14434
920.488	14385
920.598	14644
920.708	14800
920.818	14587
920.928	14488
921.038	14667
921.148	14663
921.258	14442
921.368	14317
921.477	14073
921.587	14183
921.697	14081
921.806	14088
921.916	13967
922.025	13894
922.134	13742
922.244	13837
922.353	13845
922.462	13616
922.571	13647
922.68	13373
922.789	13392
922.898	13415
923.007	13388
923.116	13362
923.224	13426
923.333	13468
923.442	13244
923.55	13346
923.659	13320
923.767	13350
923.876	13225
923.984	13324
924.092	13110
924.201	13175
924.309	13183
924.417	13190
924.525	13107
924.633	13076
924.741	14046
924.849	12875
924.956	13027
925.064	12821
925.172	12901
925.279	12753
925.387	12863
925.494	12916
925.602	12954
925.709	12920
925.816	12768
925.924	12863
926.031	12916
926.138	12856
926.245	12844
926.352	12810
926.459	12779
926.566	12783
926.673	12764
926.779	12608
926.886	12703
926.993	12414
927.099	12418
927.206	12361
927.312	12319
927.419	12540
927.525	12403
927.631	12555
927.737	12308
927.843	12220
927.95	12228
928.056	12254
928.162	12350
928.267	12323
928.373	12954
928.479	12311
928.585	12083
928.69	12190
928.796	12209
928.901	12091
929.007	11977
929.112	12125
929.218	12098
929.323	11977
929.428	11889
929.533	12095
929.638	11874
929.743	11961
929.848	11942
929.953	11847
930.058	11832
930.163	11649
930.267	11691
930.372	11821
930.477	11608
930.581	11878
930.685	11676
930.79	11539
930.894	11516
930.998	11535
931.103	11714
931.207	11288
931.311	11162
931.415	11090
931.519	10908
931.623	10812
