Data from test_V78500241_157.txt Node
Date: Fri Mar 25 15:42:53 CST 2022
User: usil
Spectrometer: V785-0024
Trigger mode: 0
Integration Time (sec): 4.000000E-1
Scans to average: 1
Nonlinearity correction enabled: false
Boxcar width: 0
Storing dark spectrum: false
XAxis mode: Wavelengths
Number of Pixels in Spectrum: 1024
>>>>>Begin Spectral Data<<<<<
801.071	29406
801.214	29375
801.356	29170
801.499	29098
801.641	28911
801.783	29048
801.926	28900
802.068	28892
802.211	28828
802.353	28721
802.496	28603
802.638	28554
802.78	28500
802.923	28497
803.065	28527
803.208	28542
803.35	28519
803.492	28679
803.635	28607
803.777	28630
803.919	28622
804.061	28919
804.204	28717
804.346	28683
804.488	28546
804.63	28592
804.773	28557
804.915	28622
805.057	28831
805.199	28660
805.341	28740
805.483	28801
805.626	28679
805.768	28641
805.91	28740
806.052	28805
806.194	28793
806.336	28866
806.478	28793
806.62	28713
806.762	28812
806.904	29025
807.046	29200
807.188	29075
807.33	29132
807.472	29284
807.614	29044
807.756	29037
807.898	28896
808.04	28820
808.182	28866
808.324	28896
808.465	29006
808.607	29189
808.749	29200
808.891	29242
809.033	29436
809.174	29265
809.316	29406
809.458	29235
809.6	29227
809.741	29368
809.883	29372
810.025	29512
810.166	29554
810.308	29528
810.45	29406
810.591	29554
810.733	29254
810.875	29383
811.016	29200
811.158	29280
811.299	29436
811.441	29353
811.582	29383
811.724	29102
811.865	29189
812.007	29239
812.148	29258
812.29	29094
812.431	29368
812.573	29547
812.714	29581
812.855	29741
812.997	29783
813.138	29954
813.279	29859
813.421	29771
813.562	29722
813.703	29520
813.845	29417
813.986	29090
814.127	28995
814.268	28877
814.41	28915
814.551	28858
814.692	28987
814.833	28759
814.974	28736
815.115	28847
815.256	28660
815.397	28584
815.539	28592
815.68	28573
815.821	28557
815.962	28694
816.103	28413
816.244	28329
816.385	28299
816.526	28310
816.666	28124
816.807	28116
816.948	28082
817.089	28211
817.23	28097
817.371	28040
817.512	28002
817.653	27998
817.793	27873
817.934	27926
818.075	27888
818.216	27953
818.356	27968
818.497	27865
818.638	27603
818.778	27644
818.919	27667
819.06	27736
819.2	27682
819.341	27880
819.481	27949
819.622	28074
819.762	28261
819.903	28200
820.043	28093
820.184	28070
820.324	27975
820.465	28029
820.605	28010
820.746	27884
820.886	27732
821.026	27930
821.167	27861
821.307	28032
821.447	27998
821.588	27637
821.728	27717
821.868	27511
822.008	27348
822.149	27401
822.289	27264
822.429	27119
822.569	26998
822.709	27013
822.849	26830
822.99	26800
823.13	26712
823.27	26693
823.41	26457
823.55	26549
823.69	26571
823.83	26613
823.97	26503
824.11	26362
824.25	26282
824.389	26396
824.529	26480
824.669	26453
824.809	26442
824.949	26484
825.089	26461
825.228	26571
825.368	26187
825.508	26096
825.648	26225
825.787	26195
825.927	26229
826.067	26157
826.206	26149
826.346	26263
826.485	26202
826.625	26054
826.765	26377
826.904	26176
827.044	26005
827.183	25776
827.323	25940
827.462	25970
827.601	25947
827.741	25719
827.88	25746
828.02	25685
828.159	25662
828.298	25803
828.437	25830
828.577	25791
828.716	25959
828.855	25715
828.994	25571
829.134	25495
829.273	25734
829.412	25441
829.551	25628
829.69	25468
829.829	25537
829.968	25620
830.107	25464
830.246	25548
830.385	25502
830.524	25377
830.663	25251
830.802	25148
830.941	25137
831.08	25012
831.219	25107
831.357	25168
831.496	25301
831.635	25031
831.774	24859
831.913	24981
832.051	24764
832.19	24833
832.329	24814
832.467	24745
832.606	24654
832.744	24635
832.883	24726
833.022	24608
833.16	24650
833.299	24772
833.437	24658
833.576	24821
833.714	24688
833.852	24620
833.991	24654
834.129	24916
834.267	24757
834.406	24707
834.544	24844
834.682	24585
834.821	24798
834.959	24821
835.097	24585
835.235	24669
835.373	24601
835.511	24711
835.65	24547
835.788	24517
835.926	24350
836.064	24174
836.202	24433
836.34	24464
836.478	24547
836.615	24490
836.753	24509
836.891	24650
837.029	24441
837.167	24407
837.305	24281
837.443	24388
837.58	24254
837.718	24369
837.856	24395
837.993	24254
838.131	24201
838.269	24201
838.406	24300
838.544	24136
838.681	24030
838.819	23939
838.956	23767
839.094	23714
839.231	23771
839.369	23946
839.506	24148
839.643	23965
839.781	23783
839.918	23566
840.055	23764
840.193	23710
840.33	23634
840.467	23543
840.604	23760
840.742	23939
840.879	23535
841.016	23608
841.153	23429
841.29	23798
841.427	23699
841.564	23668
841.701	23627
841.838	23543
841.975	23566
842.112	23459
842.249	23440
842.385	23429
842.522	23467
842.659	23410
842.796	23303
842.933	23417
843.069	23277
843.206	23261
843.343	23353
843.479	23258
843.616	23303
843.752	23064
843.889	22999
844.025	23064
844.162	22976
844.298	23136
844.435	23090
844.571	23018
844.708	23178
844.844	23128
844.98	23159
845.117	23200
845.253	22923
845.389	22866
845.525	22942
845.661	22938
845.798	22603
845.934	22869
846.07	22694
846.206	22847
846.342	22828
846.478	22729
846.614	22592
846.75	22398
846.886	22443
847.022	22641
847.158	22531
847.294	22478
847.429	22561
847.565	22531
847.701	22675
847.837	22226
847.972	22147
848.108	22280
848.244	22409
848.379	22093
848.515	22082
848.65	22063
848.786	22097
848.921	21899
849.057	22017
849.192	22021
849.328	22078
849.463	21953
849.598	21987
849.734	21835
849.869	21880
850.004	21888
850.14	21850
850.275	21751
850.41	21583
850.545	21789
850.68	21800
850.815	21717
850.95	21751
851.085	21945
851.22	21850
851.355	21667
851.49	21766
851.625	21618
851.76	21698
851.895	21701
852.03	21698
852.165	21793
852.299	21854
852.434	21759
852.569	21671
852.703	21603
852.838	21713
852.973	21827
853.107	21797
853.242	21698
853.376	21496
853.511	21458
853.645	21580
853.78	21587
853.914	21591
854.048	21557
854.183	21576
854.317	21606
854.451	21831
854.585	21637
854.72	21564
854.854	21713
854.988	21557
855.122	21511
855.256	21447
855.39	21348
855.524	21610
855.658	21603
855.792	21538
855.926	21599
856.06	21488
856.194	21667
856.327	21530
856.461	21428
856.595	21454
856.729	21591
856.862	21580
856.996	21641
857.13	21572
857.263	21603
857.397	21625
857.53	21545
857.664	21511
857.797	21641
857.931	21675
858.064	21496
858.197	21622
858.331	21488
858.464	21481
858.597	21230
858.731	21401
858.864	21344
858.997	21435
859.13	21496
859.263	21439
859.396	21587
859.529	21424
859.662	21386
859.795	21386
859.928	21485
860.061	21671
860.194	21629
860.327	21469
860.46	21351
860.592	21549
860.725	21595
860.858	21587
860.99	21454
861.123	21435
861.256	21412
861.388	21504
861.521	22074
861.653	21389
861.786	21237
861.918	21363
862.05	21530
862.183	21443
862.315	21454
862.447	21606
862.58	21500
862.712	21230
862.844	21138
862.976	21264
863.108	21291
863.24	21530
863.372	20971
863.504	21135
863.636	21218
863.768	21214
863.9	21066
864.032	21043
864.164	21146
864.296	21146
864.428	21256
864.559	21218
864.691	21192
864.823	21256
864.954	20994
865.086	21116
865.217	21157
865.349	20914
865.48	21013
865.612	21058
865.743	21154
865.875	21077
866.006	21089
866.137	21017
866.269	21005
866.4	21032
866.531	20979
866.662	21013
866.793	20979
866.924	20967
867.055	21009
867.186	20979
867.317	21024
867.448	20826
867.579	20948
867.71	20902
867.841	20914
867.972	21047
868.103	20982
868.233	21013
868.364	20895
868.495	20975
868.625	21116
868.756	21252
868.886	21108
869.017	21313
869.147	21256
869.278	21317
869.408	21146
869.539	21135
869.669	21226
869.799	21218
869.929	21287
870.06	21340
870.19	21507
870.32	21412
870.45	21500
870.58	21713
870.71	21599
870.84	21774
870.97	21549
871.1	21595
871.23	21861
871.36	21732
871.489	21713
871.619	21812
871.749	21724
871.879	21911
872.008	21937
872.138	21739
872.267	21808
872.397	21751
872.526	21618
872.656	21580
872.785	21701
872.915	21606
873.044	21880
873.173	21888
873.303	21895
873.432	21903
873.561	21854
873.69	21797
873.819	21846
873.948	21968
874.077	21880
874.206	21781
874.335	21842
874.464	21937
874.593	22086
874.722	22097
874.851	22124
874.979	22116
875.108	22082
875.237	22090
875.365	21899
875.494	22158
875.623	22074
875.751	22032
875.88	22048
876.008	22192
876.136	22303
876.265	22409
876.393	22603
876.521	22455
876.65	22455
876.778	22428
876.906	22478
877.034	22440
877.162	22375
877.29	22348
877.418	22405
877.546	22478
877.674	22409
877.802	22348
877.93	22447
878.058	22443
878.185	22253
878.313	22333
878.441	22538
878.568	22318
878.696	22257
878.824	22447
878.951	22470
879.079	22599
879.206	22763
879.333	22527
879.461	22500
879.588	22440
879.715	22622
879.842	22660
879.97	22436
880.097	22234
880.224	22215
880.351	22249
880.478	22177
880.605	22120
880.732	22295
880.859	22424
880.986	22295
881.112	22249
881.239	22112
881.366	21979
881.493	21968
881.619	21873
881.746	21972
881.872	21774
881.999	21850
882.125	21739
882.252	21876
882.378	21823
882.505	21915
882.631	21804
882.757	21526
882.883	21663
883.01	21496
883.136	21511
883.262	21355
883.388	21450
883.514	21515
883.64	21545
883.766	21500
883.892	21351
884.018	21397
884.143	21473
884.269	21496
884.395	21279
884.52	21264
884.646	21169
884.772	21173
884.897	21081
885.023	21218
885.148	21344
885.274	21264
885.399	21173
885.524	21176
885.65	21275
885.775	21218
885.9	21116
886.025	21116
886.15	21192
886.275	21131
886.4	20971
886.525	21108
886.65	21070
886.775	21074
886.9	21195
887.025	21355
887.149	20944
887.274	21005
887.399	20864
887.523	21009
887.648	20788
887.773	20807
887.897	21013
888.021	20838
888.146	20906
888.27	20979
888.395	21039
888.519	20937
888.643	20960
888.767	20948
888.891	20697
889.015	20689
889.139	20693
889.263	20670
889.387	20845
889.511	20823
889.635	20868
889.759	20644
889.883	20617
890.006	20678
890.13	20746
890.254	20522
890.377	20590
890.501	20476
890.624	20294
890.748	20408
890.871	20305
890.995	20191
891.118	20111
891.241	20271
891.364	20324
891.488	20442
891.611	20153
891.734	20161
891.857	20332
891.98	20240
892.103	20317
892.226	20294
892.349	20161
892.471	20119
892.594	20172
892.717	20145
892.839	20180
892.962	20282
893.085	20290
893.207	20187
893.33	20031
893.452	20088
893.575	20240
893.697	20130
893.819	20298
893.941	20366
894.064	20252
894.186	20256
894.308	20130
894.43	20233
894.552	20336
894.674	20286
894.796	20088
894.918	20187
895.04	20062
895.161	20233
895.283	20149
895.405	20130
895.526	20180
895.648	20164
895.769	20267
895.891	20252
896.012	20191
896.134	20214
896.255	20244
896.376	20138
896.498	20195
896.619	20221
896.74	20275
896.861	20328
896.982	20636
897.103	20629
897.224	20537
897.345	20457
897.466	20362
897.587	20393
897.708	20556
897.828	20431
897.949	20305
898.07	20244
898.19	20263
898.311	20412
898.431	20366
898.552	20427
898.672	20583
898.792	20434
898.913	20324
899.033	20229
899.153	20191
899.273	20016
899.393	20084
899.513	19982
899.633	20054
899.753	20088
899.873	19921
899.993	20103
900.113	19986
900.232	20126
900.352	20020
900.472	19841
900.591	19837
900.711	19906
900.83	19826
900.95	19906
901.069	20035
901.189	19856
901.308	19616
901.427	19403
901.546	19464
901.665	19453
901.784	19419
901.904	19282
902.023	19285
902.141	19046
902.26	19012
902.379	19156
902.498	18954
902.617	18886
902.735	19004
902.854	19000
902.973	18897
903.091	18635
903.21	18532
903.328	18582
903.446	18517
903.565	18350
903.683	18365
903.801	18384
903.919	18407
904.038	18285
904.156	18098
904.274	18262
904.392	18220
904.51	18224
904.627	18216
904.745	18251
904.863	18323
904.981	17973
905.098	17786
905.216	17790
905.334	17927
905.451	17813
905.569	17874
905.686	17904
905.803	17813
905.921	17627
906.038	17646
906.155	17668
906.272	17596
906.389	17562
906.506	17421
906.623	17280
906.74	17425
906.857	17174
906.974	17277
907.091	17433
907.208	17436
907.324	17364
907.441	17231
907.557	17124
907.674	17029
907.79	17033
907.907	17045
908.023	17136
908.139	17052
908.256	16999
908.372	16885
908.488	16881
908.604	16801
908.72	16824
908.836	16637
908.952	16672
909.068	16691
909.184	16786
909.3	16694
909.415	16713
909.531	16618
909.647	16542
909.762	16451
909.878	16299
909.993	16466
910.108	16360
910.224	16348
910.339	16284
910.454	16238
910.57	16291
910.685	16234
910.8	16508
910.915	16409
911.03	16196
911.145	16006
911.259	16131
911.374	16006
911.489	15865
911.604	15934
911.718	15895
911.833	15709
911.947	15770
912.062	15564
912.176	15797
912.291	15766
912.405	15808
912.519	15934
912.633	15918
912.748	15888
912.862	15660
912.976	15515
913.09	15340
913.204	15416
913.318	15519
913.431	15526
913.545	15561
913.659	15534
913.772	15538
913.886	15363
914	15348
914.113	15450
914.226	15496
914.34	15420
914.453	15272
914.566	15428
914.68	15218
914.793	15180
914.906	15085
915.019	14887
915.132	14944
915.245	15043
915.358	15058
915.47	14963
915.583	15108
915.696	14998
915.809	14979
915.921	15116
916.034	14883
916.146	14872
916.259	14838
916.371	14937
916.483	14872
916.595	14834
916.708	14857
916.82	14826
916.932	14792
917.044	14769
917.156	14739
917.268	14716
917.38	14758
917.491	14575
917.603	14610
917.715	14693
917.826	14765
917.938	14560
918.049	14454
918.161	14537
918.272	14788
918.384	14746
918.495	14469
918.606	14366
918.717	14282
918.828	14434
918.939	14476
919.05	14324
919.161	14271
919.272	14008
919.383	14130
919.494	14423
919.604	14457
919.715	14362
919.826	14240
919.936	14218
920.047	14415
920.157	14381
920.267	14473
920.378	14355
920.488	14256
920.598	14503
920.708	14598
920.818	14457
920.928	14412
921.038	14579
921.148	14492
921.258	14267
921.368	14191
921.477	14065
921.587	14027
921.697	13868
921.806	14001
921.916	13852
922.025	13738
922.134	13689
922.244	13689
922.353	13727
922.462	13502
922.571	13510
922.68	13308
922.789	13266
922.898	13354
923.007	13198
923.116	13381
923.224	13270
923.333	13213
923.442	13137
923.55	13141
923.659	13129
923.767	13152
923.876	13129
923.984	13236
924.092	13057
924.201	13084
924.309	13027
924.417	13213
924.525	12943
924.633	13031
924.741	13723
924.849	12848
924.956	12947
925.064	12726
925.172	12650
925.279	12673
925.387	12741
925.494	12749
925.602	12951
925.709	12772
925.816	12593
925.924	12730
926.031	12764
926.138	12715
926.245	12791
926.352	12654
926.459	12741
926.566	12802
926.673	12597
926.779	12445
926.886	12456
926.993	12330
927.099	12289
927.206	12308
927.312	12319
927.419	12353
927.525	12311
927.631	12350
927.737	12247
927.843	12216
927.95	12045
928.056	12140
928.162	12140
928.267	12205
928.373	12798
928.479	12254
928.585	11923
928.69	11999
928.796	12098
928.901	12011
929.007	11836
929.112	11942
929.218	12049
929.323	11840
929.428	11832
929.533	12072
929.638	11775
929.743	11832
929.848	11840
929.953	11847
930.058	11634
930.163	11539
930.267	11554
930.372	11646
930.477	11611
930.581	11752
930.685	11619
930.79	11467
930.894	11395
930.998	11349
931.103	11562
931.207	11204
931.311	11094
931.415	10972
931.519	10763
931.623	10809
