Data from test_V78500241_2718.txt Node
Date: Fri Mar 25 16:00:37 CST 2022
User: usil
Spectrometer: V785-0024
Trigger mode: 0
Integration Time (sec): 4.000000E-1
Scans to average: 1
Nonlinearity correction enabled: false
Boxcar width: 0
Storing dark spectrum: false
XAxis mode: Wavelengths
Number of Pixels in Spectrum: 1024
>>>>>Begin Spectral Data<<<<<
801.071	28869
801.214	28702
801.356	28557
801.499	28405
801.641	28318
801.783	28261
801.926	28356
802.068	28371
802.211	28375
802.353	28265
802.496	28078
802.638	28226
802.78	28139
802.923	27934
803.065	28131
803.208	27975
803.35	28128
803.492	28150
803.635	28337
803.777	28177
803.919	28333
804.061	28580
804.204	28390
804.346	28284
804.488	28333
804.63	28234
804.773	28230
804.915	28356
805.057	28367
805.199	28401
805.341	28379
805.483	28421
805.626	28432
805.768	28341
805.91	28550
806.052	28538
806.194	28421
806.336	28656
806.478	28611
806.62	28405
806.762	28729
806.904	28835
807.046	29041
807.188	28968
807.33	28896
807.472	29037
807.614	28900
807.756	29067
807.898	28748
808.04	28847
808.182	28767
808.324	28725
808.465	28900
808.607	29064
808.749	29159
808.891	29204
809.033	29353
809.174	29159
809.316	29246
809.458	29254
809.6	29147
809.741	29265
809.883	29391
810.025	29414
810.166	29684
810.308	29448
810.45	29474
810.591	29474
810.733	29334
810.875	29208
811.016	29052
811.158	29105
811.299	29227
811.441	29482
811.582	29254
811.724	29204
811.865	29189
812.007	29204
812.148	29258
812.29	29315
812.431	29452
812.573	29501
812.714	29779
812.855	29771
812.997	29779
813.138	29931
813.279	29885
813.421	29657
813.562	29794
813.703	29482
813.845	29455
813.986	29086
814.127	29098
814.268	28896
814.41	28786
814.551	28953
814.692	28995
814.833	29159
814.974	28957
815.115	28949
815.256	28911
815.397	28873
815.539	28862
815.68	28721
815.821	28611
815.962	28706
816.103	28755
816.244	28679
816.385	28474
816.526	28405
816.666	28375
816.807	28352
816.948	28196
817.089	28219
817.23	28280
817.371	28295
817.512	28196
817.653	28276
817.793	28109
817.934	28318
818.075	28265
818.216	28287
818.356	28116
818.497	28223
818.638	28093
818.778	27991
818.919	27991
819.06	28017
819.2	28101
819.341	28192
819.481	28154
819.622	28523
819.762	28565
819.903	28588
820.043	28421
820.184	28382
820.324	28314
820.465	28367
820.605	28363
820.746	28341
820.886	28238
821.026	28413
821.167	28352
821.307	28360
821.447	28261
821.588	28257
821.728	28086
821.868	27884
822.008	27751
822.149	27732
822.289	27720
822.429	27363
822.569	27454
822.709	27504
822.849	27344
822.99	27180
823.13	27081
823.27	27173
823.41	27077
823.55	26940
823.69	27123
823.83	27119
823.97	27100
824.11	27077
824.25	26777
824.389	26807
824.529	27058
824.669	26777
824.809	26880
824.949	27161
825.089	26902
825.228	26864
825.368	26845
825.508	26651
825.648	26785
825.787	26807
825.927	26788
826.067	26754
826.206	26762
826.346	26769
826.485	26925
826.625	26773
826.765	27009
826.904	26830
827.044	26511
827.183	26480
827.323	26568
827.462	26488
827.601	26473
827.741	26355
827.88	26549
828.02	26290
828.159	26514
828.298	26473
828.437	26663
828.577	26366
828.716	26556
828.855	26343
828.994	26050
829.134	26157
829.273	26233
829.412	26062
829.551	26088
829.69	26248
829.829	26130
829.968	26267
830.107	26301
830.246	26081
830.385	26145
830.524	26001
830.663	25966
830.802	25936
830.941	25750
831.08	25704
831.219	25833
831.357	25970
831.496	26012
831.635	25731
831.774	25632
831.913	25544
832.051	25552
832.19	25548
832.329	25658
832.467	25449
832.606	25407
832.744	25415
832.883	25518
833.022	25388
833.16	25365
833.299	25571
833.437	25449
833.576	25586
833.714	25563
833.852	25639
833.991	25552
834.129	25628
834.267	25662
834.406	25681
834.544	25613
834.682	25586
834.821	25415
834.959	25601
835.097	25521
835.235	25575
835.373	25445
835.511	25552
835.65	25381
835.788	25232
835.926	25236
836.064	25137
836.202	25122
836.34	25339
836.478	25304
836.615	25278
836.753	25377
836.891	25396
837.029	25400
837.167	25331
837.305	25187
837.443	25202
837.58	25164
837.718	25263
837.856	25168
837.993	25069
838.131	25259
838.269	24939
838.406	25129
838.544	24966
838.681	24681
838.819	24768
838.956	24574
839.094	24585
839.231	24642
839.369	24844
839.506	24951
839.643	24932
839.781	24654
839.918	24692
840.055	24551
840.193	24612
840.33	24544
840.467	24403
840.604	24559
840.742	24776
840.879	24422
841.016	24350
841.153	24395
841.29	24620
841.427	24540
841.564	24608
841.701	24601
841.838	24502
841.975	24460
842.112	24437
842.249	24251
842.385	24296
842.522	24467
842.659	24342
842.796	24285
842.933	24209
843.069	24167
843.206	24330
843.343	24464
843.479	24277
843.616	24270
843.752	24121
843.889	24106
844.025	24247
844.162	23946
844.298	24148
844.435	24060
844.571	23942
844.708	24083
844.844	24201
844.98	24300
845.117	24228
845.253	24030
845.389	23901
845.525	23965
845.661	23988
845.798	23889
845.934	23897
846.07	23809
846.206	23874
846.342	23988
846.478	23764
846.614	23623
846.75	23478
846.886	23600
847.022	23554
847.158	23486
847.294	23543
847.429	23570
847.565	23562
847.701	23775
847.837	23162
847.972	23208
848.108	23250
848.244	23261
848.379	23128
848.515	23132
848.65	23075
848.786	23044
848.921	23086
849.057	23204
849.192	23242
849.328	23124
849.463	23098
849.598	23117
849.734	23102
849.869	22968
850.004	22759
850.14	22911
850.275	22927
850.41	22976
850.545	22771
850.68	22896
850.815	22869
850.95	22847
851.085	23037
851.22	22930
851.355	22835
851.49	22911
851.625	22843
851.76	22793
851.895	22809
852.03	22725
852.165	22972
852.299	22923
852.434	22908
852.569	22923
852.703	22763
852.838	22873
852.973	23010
853.107	22957
853.242	22862
853.376	22767
853.511	22626
853.645	22717
853.78	22706
853.914	22710
854.048	22599
854.183	22721
854.317	22649
854.451	22869
854.585	22634
854.72	22656
854.854	22691
854.988	22637
855.122	22675
855.256	22561
855.39	22691
855.524	22866
855.658	22668
855.792	22569
855.926	22626
856.06	22740
856.194	22736
856.327	22736
856.461	22618
856.595	22634
856.729	22672
856.862	22801
856.996	22778
857.13	22710
857.263	22843
857.397	22797
857.53	22531
857.664	22694
857.797	22615
857.931	22828
858.064	22691
858.197	22634
858.331	22569
858.464	22626
858.597	22466
858.731	22550
858.864	22634
858.997	22656
859.13	22630
859.263	22668
859.396	22729
859.529	22774
859.662	22626
859.795	22512
859.928	22687
860.061	22812
860.194	22831
860.327	22733
860.46	22698
860.592	22889
860.725	22862
860.858	22805
860.99	22774
861.123	22611
861.256	22687
861.388	22736
861.521	23436
861.653	22622
861.786	22382
861.918	22390
862.05	22573
862.183	22580
862.315	22691
862.447	22675
862.58	22694
862.712	22523
862.844	22360
862.976	22527
863.108	22466
863.24	22774
863.372	22356
863.504	22337
863.636	22390
863.768	22451
863.9	22512
864.032	22268
864.164	22436
864.296	22424
864.428	22489
864.559	22424
864.691	22413
864.823	22333
864.954	22417
865.086	22375
865.217	22295
865.349	22192
865.48	22196
865.612	22200
865.743	22459
865.875	22303
866.006	22226
866.137	22352
866.269	22314
866.4	22139
866.531	22272
866.662	22177
866.793	22211
866.924	22261
867.055	22257
867.186	22192
867.317	22181
867.448	22196
867.579	22246
867.71	22059
867.841	22154
867.972	22352
868.103	22169
868.233	22105
868.364	22284
868.495	22360
868.625	22348
868.756	22557
868.886	22356
869.017	22447
869.147	22485
869.278	22527
869.408	22474
869.539	22405
869.669	22508
869.799	22516
869.929	22493
870.06	22485
870.19	22664
870.32	22645
870.45	22847
870.58	22843
870.71	22953
870.84	23029
870.97	22885
871.1	22839
871.23	23060
871.36	22980
871.489	22923
871.619	23044
871.749	22873
871.879	23067
872.008	23147
872.138	23052
872.267	23048
872.397	23010
872.526	22824
872.656	22889
872.785	22873
872.915	22980
873.044	23117
873.173	23121
873.303	23174
873.432	23212
873.561	23098
873.69	23086
873.819	23010
873.948	23113
874.077	23006
874.206	23071
874.335	23086
874.464	23086
874.593	23258
874.722	23242
874.851	23273
874.979	23258
875.108	23280
875.237	23258
875.365	23124
875.494	23292
875.623	23395
875.751	23166
875.88	23315
876.008	23337
876.136	23376
876.265	23474
876.393	23767
876.521	23847
876.65	23695
876.778	23657
876.906	23520
877.034	23672
877.162	23627
877.29	23577
877.418	23592
877.546	23596
877.674	23646
877.802	23733
877.93	23729
878.058	23490
878.185	23448
878.313	23570
878.441	23562
878.568	23372
878.696	23497
878.824	23676
878.951	23691
879.079	23821
879.206	23828
879.333	23680
879.461	23604
879.588	23771
879.715	23832
879.842	23863
879.97	23779
880.097	23459
880.224	23406
880.351	23493
880.478	23482
880.605	23417
880.732	23421
880.859	23615
880.986	23383
881.112	23311
881.239	23212
881.366	23052
881.493	23132
881.619	23102
881.746	22976
881.872	22946
881.999	23029
882.125	22908
882.252	22980
882.378	22877
882.505	23052
882.631	22858
882.757	22679
882.883	22816
883.01	22752
883.136	22683
883.262	22512
883.388	22538
883.514	22557
883.64	22603
883.766	22535
883.892	22462
884.018	22455
884.143	22588
884.269	22565
884.395	22291
884.52	22226
884.646	22295
884.772	22173
884.897	22265
885.023	22303
885.148	22287
885.274	22398
885.399	22325
885.524	22188
885.65	22253
885.775	22417
885.9	22112
886.025	22303
886.15	22341
886.275	22295
886.4	22226
886.525	22135
886.65	22211
886.775	22173
886.9	22500
887.025	22497
887.149	22234
887.274	22097
887.399	21895
887.523	22048
887.648	22051
887.773	21953
887.897	22086
888.021	22086
888.146	21934
888.27	22181
888.395	22204
888.519	22131
888.643	22101
888.767	22044
888.891	21857
889.015	21827
889.139	21907
889.263	21793
889.387	21911
889.511	22162
889.635	21915
889.759	21701
889.883	21778
890.006	21850
890.13	21873
890.254	21717
890.377	21774
890.501	21587
890.624	21629
890.748	21736
890.871	21389
890.995	21310
891.118	21275
891.241	21378
891.364	21367
891.488	21431
891.611	21329
891.734	21538
891.857	21504
891.98	21348
892.103	21351
892.226	21530
892.349	21294
892.471	21127
892.594	21203
892.717	21313
892.839	21275
892.962	21329
893.085	21397
893.207	21313
893.33	21180
893.452	21192
893.575	21302
893.697	21169
893.819	21428
893.941	21557
894.064	21321
894.186	21146
894.308	21070
894.43	21252
894.552	21302
894.674	21336
894.796	21222
894.918	21192
895.04	21116
895.161	21439
895.283	21214
895.405	21093
895.526	21127
895.648	21256
895.769	21249
895.891	21298
896.012	21329
896.134	21374
896.255	21306
896.376	21142
896.498	21310
896.619	21252
896.74	21249
896.861	21291
896.982	21603
897.103	21705
897.224	21485
897.345	21443
897.466	21389
897.587	21507
897.708	21618
897.828	21469
897.949	21447
898.07	21302
898.19	21374
898.311	21534
898.431	21325
898.552	21386
898.672	21443
898.792	21511
898.913	21477
899.033	21386
899.153	21112
899.273	21081
899.393	21173
899.513	21252
899.633	21146
899.753	21157
899.873	21150
899.993	21161
900.113	20998
900.232	21176
900.352	21127
900.472	21017
900.591	20880
900.711	20883
900.83	20842
900.95	21043
901.069	21089
901.189	20773
901.308	20533
901.427	20431
901.546	20552
901.665	20609
901.784	20488
901.904	20336
902.023	20221
902.141	20100
902.26	20050
902.379	20153
902.498	20081
902.617	19841
902.735	19909
902.854	19890
902.973	19833
903.091	19639
903.21	19769
903.328	19731
903.446	19521
903.565	19422
903.683	19533
903.801	19282
903.919	19358
904.038	19434
904.156	19228
904.274	19263
904.392	19217
904.51	19202
904.627	19190
904.745	19244
904.863	19232
904.981	18951
905.098	18833
905.216	18867
905.334	19008
905.451	18882
905.569	18943
905.686	18852
905.803	18901
905.921	18734
906.038	18715
906.155	18753
906.272	18627
906.389	18623
906.506	18346
906.623	18448
906.74	18429
906.857	18388
906.974	18327
907.091	18471
907.208	18585
907.324	18445
907.441	18300
907.557	18247
907.674	18174
907.79	17992
907.907	18091
908.023	18232
908.139	18060
908.256	18030
908.372	18053
908.488	17954
908.604	17992
908.72	17939
908.836	17912
908.952	17817
909.068	17878
909.184	17996
909.3	17821
909.415	17920
909.531	17931
909.647	17543
909.762	17577
909.878	17634
909.993	17619
910.108	17566
910.224	17524
910.339	17562
910.454	17379
910.57	17311
910.685	17220
910.8	17573
910.915	17421
911.03	17398
911.145	17143
911.259	17140
911.374	17147
911.489	17052
911.604	16999
911.718	16927
911.833	16824
911.947	16736
912.062	16668
912.176	16972
912.291	16885
912.405	16828
912.519	17071
912.633	16949
912.748	16873
912.862	16854
912.976	16710
913.09	16523
913.204	16569
913.318	16675
913.431	16778
913.545	16847
913.659	16702
913.772	16584
913.886	16558
914	16405
914.113	16508
914.226	16500
914.34	16478
914.453	16310
914.566	16455
914.68	16322
914.793	16299
914.906	16173
915.019	16006
915.132	15991
915.245	16029
915.358	16082
915.47	16090
915.583	16063
915.696	16131
915.809	16063
915.921	16147
916.034	15987
916.146	15934
916.259	15922
916.371	16097
916.483	15930
916.595	15911
916.708	15888
916.82	15903
916.932	15800
917.044	15778
917.156	15819
917.268	15603
917.38	15660
917.491	15679
917.603	15584
917.715	15701
917.826	15724
917.938	15568
918.049	15545
918.161	15667
918.272	15789
918.384	15686
918.495	15580
918.606	15431
918.717	15302
918.828	15363
918.939	15389
919.05	15264
919.161	15355
919.272	15058
919.383	15226
919.494	15439
919.604	15534
919.715	15397
919.826	15256
919.936	15283
920.047	15477
920.157	15340
920.267	15534
920.378	15249
920.488	15256
920.598	15515
920.708	15648
920.818	15355
920.928	15458
921.038	15587
921.148	15557
921.258	15275
921.368	15237
921.477	15020
921.587	15051
921.697	14887
921.806	15058
921.916	14933
922.025	14705
922.134	14731
922.244	14621
922.353	14826
922.462	14568
922.571	14530
922.68	14347
922.789	14351
922.898	14408
923.007	14282
923.116	14328
923.224	14298
923.333	14309
923.442	14191
923.55	14180
923.659	14191
923.767	14168
923.876	14168
923.984	14172
924.092	14073
924.201	14084
924.309	14103
924.417	14073
924.525	14016
924.633	13989
924.741	14948
924.849	13715
924.956	13902
925.064	13845
925.172	13704
925.279	13674
925.387	13715
925.494	13769
925.602	13753
925.709	13807
925.816	13575
925.924	13700
926.031	13700
926.138	13700
926.245	13761
926.352	13460
926.459	13605
926.566	13643
926.673	13575
926.779	13491
926.886	13430
926.993	13324
927.099	13312
927.206	13190
927.312	13145
927.419	13270
927.525	13266
927.631	13244
927.737	13171
927.843	13076
927.95	13061
928.056	13164
928.162	13091
928.267	13080
928.373	13563
928.479	13137
928.585	12962
928.69	12947
928.796	13038
928.901	12954
929.007	12795
929.112	12871
929.218	12932
929.323	12875
929.428	12779
929.533	12852
929.638	12673
929.743	12620
929.848	12677
929.953	12711
930.058	12559
930.163	12357
930.267	12407
930.372	12635
930.477	12346
930.581	12662
930.685	12509
930.79	12311
930.894	12372
930.998	12304
931.103	12342
931.207	12144
931.311	11893
931.415	11923
931.519	11699
931.623	11592
