Data from test_V78500241_3684.txt Node
Date: Fri Mar 25 16:07:19 CST 2022
User: usil
Spectrometer: V785-0024
Trigger mode: 0
Integration Time (sec): 4.000000E-1
Scans to average: 1
Nonlinearity correction enabled: false
Boxcar width: 0
Storing dark spectrum: false
XAxis mode: Wavelengths
Number of Pixels in Spectrum: 1024
>>>>>Begin Spectral Data<<<<<
801.071	28295
801.214	28139
801.356	28036
801.499	27892
801.641	27949
801.783	27755
801.926	27880
802.068	27922
802.211	27667
802.353	27690
802.496	27709
802.638	27580
802.78	27610
802.923	27515
803.065	27367
803.208	27408
803.35	27587
803.492	27641
803.635	27724
803.777	27747
803.919	27747
804.061	28067
804.204	27846
804.346	27713
804.488	27606
804.63	27800
804.773	27660
804.915	27717
805.057	27914
805.199	27682
805.341	27812
805.483	27892
805.626	27979
805.768	27895
805.91	27823
806.052	27975
806.194	27884
806.336	28093
806.478	28017
806.62	27994
806.762	28029
806.904	28055
807.046	28478
807.188	28440
807.33	28466
807.472	28508
807.614	28135
807.756	28379
807.898	28070
808.04	28044
808.182	28048
808.324	28101
808.465	28211
808.607	28546
808.749	28649
808.891	28634
809.033	28725
809.174	28736
809.316	28535
809.458	28611
809.6	28527
809.741	28805
809.883	28626
810.025	28965
810.166	28904
810.308	28809
810.45	28771
810.591	28691
810.733	28641
810.875	28561
811.016	28538
811.158	28580
811.299	28656
811.441	28675
811.582	28744
811.724	28725
811.865	28599
812.007	28653
812.148	28694
812.29	28615
812.431	28698
812.573	28991
812.714	29010
812.855	29079
812.997	29235
813.138	29284
813.279	29174
813.421	29102
813.562	29121
813.703	28957
813.845	28881
813.986	28660
814.127	28306
814.268	28325
814.41	28219
814.551	28310
814.692	28344
814.833	28246
814.974	28299
815.115	28386
815.256	28200
815.397	28147
815.539	28268
815.68	28185
815.821	28040
815.962	28128
816.103	28101
816.244	28070
816.385	27934
816.526	27827
816.666	27679
816.807	27526
816.948	27583
817.089	27743
817.23	27766
817.371	27580
817.512	27656
817.653	27610
817.793	27526
817.934	27564
818.075	27698
818.216	27576
818.356	27500
818.497	27519
818.638	27359
818.778	27321
818.919	27389
819.06	27439
819.2	27538
819.341	27564
819.481	27515
819.622	27861
819.762	27907
819.903	27854
820.043	27686
820.184	27781
820.324	27755
820.465	27770
820.605	27648
820.746	27682
820.886	27595
821.026	27747
821.167	27557
821.307	27690
821.447	27648
821.588	27511
821.728	27329
821.868	27123
822.008	27199
822.149	27119
822.289	26994
822.429	26925
822.569	26659
822.709	26697
822.849	26678
822.99	26609
823.13	26590
823.27	26541
823.41	26374
823.55	26275
823.69	26499
823.83	26313
823.97	26385
824.11	26176
824.25	26168
824.389	26176
824.529	26305
824.669	26187
824.809	26358
824.949	26298
825.089	26336
825.228	26290
825.368	26073
825.508	25978
825.648	26187
825.787	26259
825.927	26183
826.067	26168
826.206	26088
826.346	26214
826.485	26233
826.625	26096
826.765	26153
826.904	26115
827.044	26012
827.183	26031
827.323	25822
827.462	25883
827.601	25894
827.741	25772
827.88	25788
828.02	25791
828.159	25784
828.298	25776
828.437	25849
828.577	25757
828.716	25955
828.855	25753
828.994	25487
829.134	25499
829.273	25613
829.412	25556
829.551	25377
829.69	25533
829.829	25567
829.968	25559
830.107	25651
830.246	25521
830.385	25324
830.524	25388
830.663	25434
830.802	25327
830.941	25225
831.08	25031
831.219	25236
831.357	25206
831.496	25278
831.635	25160
831.774	25027
831.913	25133
832.051	24935
832.19	24894
832.329	24981
832.467	24795
832.606	24700
832.744	24791
832.883	24821
833.022	24859
833.16	24779
833.299	24810
833.437	24875
833.576	25084
833.714	24776
833.852	24776
833.991	24867
834.129	25023
834.267	24913
834.406	25012
834.544	24894
834.682	24901
834.821	24905
834.959	24996
835.097	24726
835.235	24954
835.373	24738
835.511	24970
835.65	24658
835.788	24738
835.926	24604
836.064	24661
836.202	24517
836.34	24787
836.478	24749
836.615	24639
836.753	24741
836.891	24760
837.029	24616
837.167	24707
837.305	24677
837.443	24566
837.58	24445
837.718	24551
837.856	24559
837.993	24422
838.131	24502
838.269	24391
838.406	24441
838.544	24292
838.681	24114
838.819	24239
838.956	23996
839.094	23946
839.231	24041
839.369	24186
839.506	24418
839.643	24136
839.781	23980
839.918	23954
840.055	23893
840.193	23916
840.33	23942
840.467	23954
840.604	24026
840.742	24239
840.879	23893
841.016	23794
841.153	23908
841.29	23939
841.427	23901
841.564	23901
841.701	23920
841.838	23821
841.975	23783
842.112	23878
842.249	23676
842.385	23687
842.522	23954
842.659	23676
842.796	23608
842.933	23642
843.069	23661
843.206	23585
843.343	23722
843.479	23703
843.616	23657
843.752	23433
843.889	23539
844.025	23531
844.162	23676
844.298	23551
844.435	23433
844.571	23379
844.708	23490
844.844	23661
844.98	23573
845.117	23516
845.253	23330
845.389	23235
845.525	23334
845.661	23356
845.798	23185
845.934	23307
846.07	23079
846.206	23337
846.342	23391
846.478	23117
846.614	23041
846.75	22923
846.886	22900
847.022	23064
847.158	22839
847.294	23003
847.429	23029
847.565	22831
847.701	23044
847.837	22588
847.972	22485
848.108	22774
848.244	22679
848.379	22637
848.515	22618
848.65	22474
848.786	22508
848.921	22474
849.057	22592
849.192	22615
849.328	22523
849.463	22523
849.598	22443
849.734	22421
849.869	22276
850.004	22257
850.14	22265
850.275	22287
850.41	22169
850.545	22295
850.68	22287
850.815	22421
850.95	22204
851.085	22360
851.22	22325
851.355	22478
851.49	22147
851.625	22234
851.76	22188
851.895	22215
852.03	22150
852.165	22169
852.299	22223
852.434	22360
852.569	22249
852.703	22306
852.838	22348
852.973	22440
853.107	22310
853.242	22097
853.376	22086
853.511	22029
853.645	22032
853.78	22124
853.914	22070
854.048	22013
854.183	21994
854.317	22086
854.451	22310
854.585	22059
854.72	22173
854.854	22196
854.988	22067
855.122	22063
855.256	21937
855.39	21945
855.524	22166
855.658	22147
855.792	22067
855.926	22177
856.06	22185
856.194	22188
856.327	22101
856.461	22078
856.595	21998
856.729	22010
856.862	22181
856.996	22150
857.13	22204
857.263	22268
857.397	22219
857.53	22021
857.664	22040
857.797	22090
857.931	22181
858.064	22078
858.197	22223
858.331	21998
858.464	22059
858.597	21895
858.731	22048
858.864	21994
858.997	22063
859.13	22116
859.263	22048
859.396	22169
859.529	22185
859.662	22002
859.795	22086
859.928	22040
860.061	22337
860.194	22341
860.327	22135
860.46	22086
860.592	22181
860.725	22226
860.858	22230
860.99	22082
861.123	22017
861.256	21892
861.388	22112
861.521	22733
861.653	21907
861.786	21873
861.918	21880
862.05	21956
862.183	21880
862.315	22135
862.447	22143
862.58	21918
862.712	21739
862.844	21812
862.976	21861
863.108	21797
863.24	22265
863.372	21701
863.504	21739
863.636	21930
863.768	21785
863.9	21880
864.032	21701
864.164	21770
864.296	21797
864.428	21926
864.559	21835
864.691	21876
864.823	21827
864.954	21766
865.086	21766
865.217	21720
865.349	21458
865.48	21694
865.612	21667
865.743	21755
865.875	21736
866.006	21705
866.137	21743
866.269	21603
866.4	21667
866.531	21564
866.662	21625
866.793	21595
866.924	21614
867.055	21656
867.186	21633
867.317	21660
867.448	21599
867.579	21682
867.71	21500
867.841	21469
867.972	21557
868.103	21648
868.233	21690
868.364	21690
868.495	21698
868.625	21770
868.756	21937
868.886	21717
869.017	21956
869.147	21880
869.278	21922
869.408	21968
869.539	21991
869.669	21876
869.799	21816
869.929	21983
870.06	21854
870.19	22173
870.32	22124
870.45	22169
870.58	22253
870.71	22344
870.84	22303
870.97	22265
871.1	22246
871.23	22379
871.36	22402
871.489	22329
871.619	22386
871.749	22447
871.879	22516
872.008	22550
872.138	22497
872.267	22451
872.397	22375
872.526	22306
872.656	22295
872.785	22223
872.915	22440
873.044	22561
873.173	22531
873.303	22580
873.432	22596
873.561	22550
873.69	22455
873.819	22436
873.948	22443
874.077	22493
874.206	22348
874.335	22402
874.464	22523
874.593	22725
874.722	22645
874.851	22778
874.979	22752
875.108	22805
875.237	22691
875.365	22694
875.494	22645
875.623	22725
875.751	22816
875.88	22812
876.008	22774
876.136	22862
876.265	23060
876.393	23193
876.521	23162
876.65	23242
876.778	23109
876.906	22934
877.034	22965
877.162	23143
877.29	23121
877.418	23189
877.546	23048
877.674	23022
877.802	23056
877.93	23041
878.058	23006
878.185	22889
878.313	22957
878.441	23060
878.568	22904
878.696	22984
878.824	22968
878.951	23064
879.079	23204
879.206	23303
879.333	23197
879.461	23079
879.588	23159
879.715	23124
879.842	23341
879.97	23094
880.097	22984
880.224	22740
880.351	22949
880.478	22850
880.605	22790
880.732	22774
880.859	23102
880.986	22908
881.112	22797
881.239	22831
881.366	22596
881.493	22508
881.619	22455
881.746	22489
881.872	22462
881.999	22299
882.125	22360
882.252	22386
882.378	22356
882.505	22535
882.631	22246
882.757	22131
882.883	22204
883.01	22093
883.136	22070
883.262	21998
883.388	21895
883.514	22051
883.64	22131
883.766	21953
883.892	21937
884.018	21987
884.143	21998
884.269	22150
884.395	21743
884.52	21698
884.646	21907
884.772	21705
884.897	21614
885.023	21823
885.148	21915
885.274	21846
885.399	21888
885.524	21736
885.65	21614
885.775	21743
885.9	21694
886.025	21789
886.15	21800
886.275	21671
886.4	21542
886.525	21686
886.65	21690
886.775	21713
886.9	21918
887.025	21975
887.149	21679
887.274	21629
887.399	21500
887.523	21526
887.648	21378
887.773	21386
887.897	21530
888.021	21568
888.146	21420
888.27	21507
888.395	21652
888.519	21545
888.643	21545
888.767	21458
888.891	21420
889.015	21348
889.139	21389
889.263	21275
889.387	21340
889.511	21557
889.635	21485
889.759	21302
889.883	21268
890.006	21329
890.13	21428
890.254	21112
890.377	21256
890.501	21154
890.624	20975
890.748	21096
890.871	20998
890.995	20906
891.118	20937
891.241	20765
891.364	20826
891.488	21024
891.611	20902
891.734	20960
891.857	20937
891.98	20853
892.103	20811
892.226	20777
892.349	20823
892.471	20716
892.594	20678
892.717	20792
892.839	20754
892.962	20796
893.085	20686
893.207	20727
893.33	20575
893.452	20716
893.575	20750
893.697	20716
893.819	20830
893.941	20864
894.064	20883
894.186	20686
894.308	20708
894.43	20823
894.552	20880
894.674	20712
894.796	20594
894.918	20777
895.04	20636
895.161	20834
895.283	20739
895.405	20781
895.526	20750
895.648	20686
895.769	20731
895.891	20834
896.012	20750
896.134	20804
896.255	20632
896.376	20648
896.498	20746
896.619	20720
896.74	20689
896.861	20754
896.982	21039
897.103	21199
897.224	20967
897.345	21009
897.466	20845
897.587	20956
897.708	21207
897.828	20849
897.949	20895
898.07	20788
898.19	20811
898.311	20902
898.431	20819
898.552	20853
898.672	20925
898.792	21036
898.913	21013
899.033	20800
899.153	20735
899.273	20804
899.393	20655
899.513	20796
899.633	20670
899.753	20587
899.873	20568
899.993	20769
900.113	20659
900.232	20674
900.352	20583
900.472	20495
900.591	20503
900.711	20415
900.83	20290
900.95	20530
901.069	20571
901.189	20377
901.308	20149
901.427	20161
901.546	19989
901.665	20039
901.784	20043
901.904	19742
902.023	19761
902.141	19628
902.26	19525
902.379	19556
902.498	19575
902.617	19514
902.735	19533
902.854	19453
902.973	19468
903.091	19293
903.21	19133
903.328	19084
903.446	19126
903.565	19000
903.683	18947
903.801	18878
903.919	18977
904.038	18935
904.156	18856
904.274	18852
904.392	18791
904.51	18757
904.627	18768
904.745	18817
904.863	18776
904.981	18608
905.098	18467
905.216	18365
905.334	18418
905.451	18422
905.569	18369
905.686	18429
905.803	18509
905.921	18182
906.038	18346
906.155	18289
906.272	18102
906.389	18152
906.506	17920
906.623	17874
906.74	17973
906.857	17863
906.974	17920
907.091	17984
907.208	17992
907.324	18007
907.441	17939
907.557	17771
907.674	17634
907.79	17604
907.907	17638
908.023	17707
908.139	17638
908.256	17566
908.372	17589
908.488	17528
908.604	17414
908.72	17337
908.836	17398
908.952	17425
909.068	17463
909.184	17444
909.3	17402
909.415	17395
909.531	17349
909.647	17102
909.762	17136
909.878	17014
909.993	17071
910.108	17124
910.224	17018
910.339	16984
910.454	16984
910.57	16980
910.685	16733
910.8	17075
910.915	16976
911.03	16858
911.145	16801
911.259	16565
911.374	16660
911.489	16519
911.604	16531
911.718	16424
911.833	16356
911.947	16325
912.062	16356
912.176	16447
912.291	16436
912.405	16382
912.519	16580
912.633	16569
912.748	16478
912.862	16367
912.976	16234
913.09	16093
913.204	16131
913.318	16234
913.431	16329
913.545	16306
913.659	16337
913.772	16154
913.886	16006
914	15979
914.113	16143
914.226	16097
914.34	16090
914.453	15850
914.566	16025
914.68	15892
914.793	15854
914.906	15720
915.019	15644
915.132	15572
915.245	15618
915.358	15488
915.47	15587
915.583	15629
915.696	15610
915.809	15701
915.921	15743
916.034	15595
916.146	15435
916.259	15530
916.371	15675
916.483	15591
916.595	15374
916.708	15382
916.82	15458
916.932	15329
917.044	15348
917.156	15374
917.268	15298
917.38	15249
917.491	15146
917.603	15332
917.715	15329
917.826	15256
917.938	15119
918.049	15013
918.161	15142
918.272	15302
918.384	15264
918.495	15100
918.606	15077
918.717	14921
918.828	14960
918.939	14941
919.05	14891
919.161	14944
919.272	14796
919.383	14830
919.494	14963
919.604	15127
919.715	14952
919.826	14849
919.936	14925
920.047	15036
920.157	14929
920.267	14944
920.378	14963
920.488	14872
920.598	15058
920.708	15188
920.818	14975
920.928	15047
921.038	15317
921.148	15279
921.258	14899
921.368	14864
921.477	14720
921.587	14651
921.697	14511
921.806	14727
921.916	14556
922.025	14336
922.134	14263
922.244	14336
922.353	14290
922.462	14199
922.571	14062
922.68	14058
922.789	14020
922.898	14001
923.007	13970
923.116	14027
923.224	13936
923.333	13997
923.442	13849
923.55	13761
923.659	13837
923.767	13921
923.876	13734
923.984	13750
924.092	13639
924.201	13742
924.309	13742
924.417	13776
924.525	13666
924.633	13620
924.741	14526
924.849	13369
924.956	13495
925.064	13438
925.172	13346
925.279	13403
925.387	13392
925.494	13373
925.602	13472
925.709	13369
925.816	13266
925.924	13350
926.031	13384
926.138	13392
926.245	13350
926.352	13221
926.459	13346
926.566	13415
926.673	13217
926.779	13088
926.886	13145
926.993	12977
927.099	12901
927.206	12878
927.312	12935
927.419	12966
927.525	12905
927.631	12954
927.737	12863
927.843	12734
927.95	12662
928.056	12711
928.162	12745
928.267	12772
928.373	13388
928.479	12779
928.585	12574
928.69	12658
928.796	12662
928.901	12551
929.007	12506
929.112	12665
929.218	12532
929.323	12559
929.428	12513
929.533	12654
929.638	12422
929.743	12418
929.848	12429
929.953	12410
930.058	12369
930.163	12197
930.267	12155
930.372	12235
930.477	12076
930.581	12437
930.685	12148
930.79	12072
930.894	12022
930.998	12003
931.103	12064
931.207	11748
931.311	11657
931.415	11634
931.519	11395
931.623	11391
