Data from test_V78500241_317.txt Node
Date: Fri Mar 25 15:43:59 CST 2022
User: usil
Spectrometer: V785-0024
Trigger mode: 0
Integration Time (sec): 4.000000E-1
Scans to average: 1
Nonlinearity correction enabled: false
Boxcar width: 0
Storing dark spectrum: false
XAxis mode: Wavelengths
Number of Pixels in Spectrum: 1024
>>>>>Begin Spectral Data<<<<<
801.071	29821
801.214	29752
801.356	29608
801.499	29520
801.641	29387
801.783	29459
801.926	29474
802.068	29322
802.211	29398
802.353	29204
802.496	29090
802.638	29124
802.78	29113
802.923	28961
803.065	28961
803.208	29033
803.35	29052
803.492	29166
803.635	29162
803.777	29174
803.919	29375
804.061	29676
804.204	29391
804.346	29220
804.488	29132
804.63	29318
804.773	29246
804.915	29231
805.057	29288
805.199	29299
805.341	29383
805.483	29387
805.626	29280
805.768	29372
805.91	29375
806.052	29223
806.194	29193
806.336	29600
806.478	29497
806.62	29299
806.762	29657
806.904	29665
807.046	30049
807.188	29897
807.33	29783
807.472	29977
807.614	29741
807.756	29745
807.898	29737
808.04	29657
808.182	29539
808.324	29592
808.465	29627
808.607	29764
808.749	30045
808.891	30083
809.033	30159
809.174	30159
809.316	30076
809.458	29901
809.6	29954
809.741	29912
809.883	30121
810.025	30224
810.166	30376
810.308	30452
810.45	30239
810.591	30167
810.733	30144
810.875	29980
811.016	30003
811.158	29840
811.299	30068
811.441	30209
811.582	30079
811.724	29847
811.865	29783
812.007	29939
812.148	30022
812.29	29901
812.431	30308
812.573	30429
812.714	30384
812.855	30547
812.997	30650
813.138	30764
813.279	30616
813.421	30437
813.562	30563
813.703	30270
813.845	30171
813.986	29859
814.127	29843
814.268	29665
814.41	29657
814.551	29558
814.692	29851
814.833	29551
814.974	29531
815.115	29691
815.256	29646
815.397	29619
815.539	29516
815.68	29440
815.821	29448
815.962	29391
816.103	29395
816.244	29261
816.385	29200
816.526	29189
816.666	29014
816.807	29025
816.948	29003
817.089	29022
817.23	28946
817.371	28987
817.512	28866
817.653	28934
817.793	28904
817.934	28987
818.075	28980
818.216	28900
818.356	28843
818.497	28778
818.638	28721
818.778	28698
818.919	28622
819.06	28793
819.2	28824
819.341	28896
819.481	28972
819.622	28927
819.762	29299
819.903	29193
820.043	29193
820.184	29060
820.324	28984
820.465	29094
820.605	29117
820.746	29003
820.886	28934
821.026	28850
821.167	28908
821.307	29067
821.447	28957
821.588	28755
821.728	28805
821.868	28474
822.008	28379
822.149	28455
822.289	28249
822.429	28109
822.569	27911
822.709	27880
822.849	27759
822.99	27846
823.13	27774
823.27	27804
823.41	27576
823.55	27538
823.69	27462
823.83	27663
823.97	27553
824.11	27427
824.25	27435
824.389	27401
824.529	27561
824.669	27397
824.809	27606
824.949	27587
825.089	27542
825.228	27454
825.368	27203
825.508	27287
825.648	27355
825.787	27336
825.927	27336
826.067	27268
826.206	27047
826.346	27325
826.485	27370
826.625	27218
826.765	27378
826.904	27317
827.044	27062
827.183	27058
827.323	26956
827.462	26940
827.601	27157
827.741	26918
827.88	26899
828.02	26826
828.159	26842
828.298	27066
828.437	26872
828.577	26819
828.716	26918
828.855	26872
828.994	26686
829.134	26724
829.273	26678
829.412	26678
829.551	26552
829.69	26750
829.829	26621
829.968	26682
830.107	26739
830.246	26609
830.385	26465
830.524	26419
830.663	26480
830.802	26313
830.941	26092
831.08	26119
831.219	26214
831.357	26275
831.496	26366
831.635	26180
831.774	26012
831.913	26164
832.051	25989
832.19	25982
832.329	26016
832.467	25936
832.606	25750
832.744	25738
832.883	25902
833.022	25826
833.16	25921
833.299	25841
833.437	25769
833.576	25769
833.714	25852
833.852	25928
833.991	26027
834.129	26001
834.267	25803
834.406	25944
834.544	25868
834.682	25936
834.821	25731
834.959	25982
835.097	25693
835.235	25845
835.373	25906
835.511	25940
835.65	25738
835.788	25651
835.926	25552
836.064	25400
836.202	25362
836.34	25658
836.478	25833
836.615	25582
836.753	25594
836.891	25780
837.029	25597
837.167	25556
837.305	25434
837.443	25529
837.58	25620
837.718	25601
837.856	25415
837.993	25552
838.131	25468
838.269	25278
838.406	25487
838.544	25232
838.681	25107
838.819	25110
838.956	24802
839.094	24886
839.231	24985
839.369	25141
839.506	25206
839.643	25152
839.781	24916
839.918	24928
840.055	24951
840.193	24890
840.33	24863
840.467	24875
840.604	24966
840.742	25072
840.879	24673
841.016	24646
841.153	24703
841.29	24837
841.427	24920
841.564	24920
841.701	24802
841.838	24806
841.975	24658
842.112	24669
842.249	24738
842.385	24494
842.522	24700
842.659	24608
842.796	24376
842.933	24536
843.069	24361
843.206	24369
843.343	24547
843.479	24479
843.616	24532
843.752	24182
843.889	24395
844.025	24342
844.162	24213
844.298	24338
844.435	24247
844.571	24190
844.708	24319
844.844	24350
844.98	24330
845.117	24243
845.253	24289
845.389	23908
845.525	24125
845.661	24034
845.798	23923
845.934	24018
846.07	23904
846.206	24041
846.342	23969
846.478	23878
846.614	23699
846.75	23714
846.886	23539
847.022	23722
847.158	23710
847.294	23570
847.429	23657
847.565	23581
847.701	23920
847.837	23455
847.972	23368
848.108	23410
848.244	23554
848.379	23208
848.515	23121
848.65	23204
848.786	23140
848.921	23345
849.057	23311
849.192	23269
849.328	23360
849.463	23322
849.598	23155
849.734	23136
849.869	23029
850.004	23041
850.14	23037
850.275	23075
850.41	22968
850.545	22824
850.68	22904
850.815	23010
850.95	23025
851.085	23132
851.22	23052
851.355	22984
851.49	22923
851.625	22976
851.76	22938
851.895	22976
852.03	22930
852.165	23048
852.299	23014
852.434	22915
852.569	22980
852.703	22866
852.838	22999
852.973	23060
853.107	23056
853.242	22755
853.376	22710
853.511	22512
853.645	22782
853.78	22797
853.914	22744
854.048	22687
854.183	22698
854.317	22713
854.451	22968
854.585	22733
854.72	22778
854.854	22900
854.988	22759
855.122	22626
855.256	22615
855.39	22778
855.524	22774
855.658	22809
855.792	22774
855.926	22805
856.06	22771
856.194	22873
856.327	22717
856.461	22710
856.595	22729
856.729	22793
856.862	22847
856.996	22790
857.13	22774
857.263	22790
857.397	22809
857.53	22740
857.664	22904
857.797	22831
857.931	22828
858.064	22752
858.197	22831
858.331	22691
858.464	22790
858.597	22656
858.731	22679
858.864	22645
858.997	22729
859.13	22694
859.263	22706
859.396	22710
859.529	22656
859.662	22550
859.795	22672
859.928	22641
860.061	22900
860.194	22816
860.327	22782
860.46	22611
860.592	22786
860.725	22854
860.858	22866
860.99	22774
861.123	22538
861.256	22687
861.388	22752
861.521	23414
861.653	22557
861.786	22466
861.918	22611
862.05	22683
862.183	22554
862.315	22721
862.447	22744
862.58	22729
862.712	22478
862.844	22360
862.976	22436
863.108	22459
863.24	22824
863.372	22322
863.504	22386
863.636	22329
863.768	22451
863.9	22280
864.032	22447
864.164	22234
864.296	22390
864.428	22542
864.559	22497
864.691	22512
864.823	22360
864.954	22371
865.086	22272
865.217	22284
865.349	22177
865.48	22276
865.612	22306
865.743	22386
865.875	22333
866.006	22249
866.137	22230
866.269	22333
866.4	22249
866.531	22059
866.662	22177
866.793	22097
866.924	22162
867.055	22188
867.186	22139
867.317	22215
867.448	21979
867.579	22162
867.71	22162
867.841	21934
867.972	22272
868.103	22162
868.233	22169
868.364	22154
868.495	22207
868.625	22337
868.756	22462
868.886	22310
869.017	22390
869.147	22580
869.278	22599
869.408	22344
869.539	22398
869.669	22253
869.799	22409
869.929	22470
870.06	22504
870.19	22801
870.32	22687
870.45	22733
870.58	22729
870.71	22858
870.84	22889
870.97	22740
871.1	22729
871.23	23044
871.36	23037
871.489	22946
871.619	22968
871.749	22961
871.879	23067
872.008	23162
872.138	23018
872.267	22999
872.397	22877
872.526	22790
872.656	22828
872.785	22835
872.915	23044
873.044	22984
873.173	22889
873.303	23014
873.432	22896
873.561	22980
873.69	22961
873.819	23067
873.948	23029
874.077	23079
874.206	22881
874.335	23102
874.464	23094
874.593	23303
874.722	23170
874.851	23292
874.979	23254
875.108	23277
875.237	23231
875.365	23181
875.494	23223
875.623	23326
875.751	23117
875.88	23197
876.008	23353
876.136	23368
876.265	23562
876.393	23699
876.521	23687
876.65	23657
876.778	23623
876.906	23589
877.034	23539
877.162	23562
877.29	23611
877.418	23604
877.546	23596
877.674	23589
877.802	23558
877.93	23562
878.058	23482
878.185	23364
878.313	23516
878.441	23509
878.568	23372
878.696	23501
878.824	23497
878.951	23619
879.079	23699
879.206	23882
879.333	23741
879.461	23406
879.588	23786
879.715	23969
879.842	23874
879.97	23623
880.097	23501
880.224	23303
880.351	23444
880.478	23463
880.605	23269
880.732	23436
880.859	23573
880.986	23360
881.112	23402
881.239	23231
881.366	23083
881.493	23121
881.619	23018
881.746	22953
881.872	22976
881.999	22816
882.125	22740
882.252	22949
882.378	22961
882.505	23147
882.631	22774
882.757	22687
882.883	22710
883.01	22584
883.136	22588
883.262	22474
883.388	22459
883.514	22649
883.64	22649
883.766	22500
883.892	22363
884.018	22440
884.143	22459
884.269	22577
884.395	22382
884.52	22234
884.646	22310
884.772	22143
884.897	22097
885.023	22329
885.148	22287
885.274	22386
885.399	22329
885.524	22173
885.65	22287
885.775	22215
885.9	22303
886.025	22276
886.15	22234
886.275	22192
886.4	22181
886.525	22192
886.65	22257
886.775	22185
886.9	22402
887.025	22565
887.149	22299
887.274	22112
887.399	21979
887.523	21994
887.648	21941
887.773	21941
887.897	22067
888.021	22036
888.146	21934
888.27	22097
888.395	21991
888.519	22029
888.643	21975
888.767	22181
888.891	21926
889.015	21781
889.139	21770
889.263	21603
889.387	21800
889.511	21918
889.635	21945
889.759	21701
889.883	21690
890.006	21781
890.13	21907
890.254	21694
890.377	21739
890.501	21500
890.624	21466
890.748	21599
890.871	21283
890.995	21336
891.118	21317
891.241	21275
891.364	21241
891.488	21378
891.611	21321
891.734	21306
891.857	21420
891.98	21401
892.103	21359
892.226	21332
892.349	21355
892.471	21089
892.594	21275
892.717	21272
892.839	21131
892.962	21146
893.085	21310
893.207	21199
893.33	21043
893.452	21165
893.575	21313
893.697	21161
893.819	21359
893.941	21454
894.064	21203
894.186	21138
894.308	21032
894.43	21241
894.552	21287
894.674	21279
894.796	21074
894.918	21173
895.04	21192
895.161	21298
895.283	21047
895.405	21119
895.526	21142
895.648	21116
895.769	21195
895.891	21211
896.012	21154
896.134	21226
896.255	21241
896.376	21199
896.498	21176
896.619	21203
896.74	21146
896.861	21131
896.982	21625
897.103	21709
897.224	21492
897.345	21530
897.466	21344
897.587	21351
897.708	21526
897.828	21523
897.949	21348
898.07	21173
898.19	21332
898.311	21488
898.431	21287
898.552	21454
898.672	21363
898.792	21450
898.913	21325
899.033	21184
899.153	21138
899.273	21058
899.393	21203
899.513	21119
899.633	21100
899.753	21142
899.873	20838
899.993	20971
900.113	20956
900.232	21135
900.352	21036
900.472	20982
900.591	20811
900.711	20963
900.83	20792
900.95	20994
901.069	20952
901.189	20758
901.308	20537
901.427	20469
901.546	20492
901.665	20507
901.784	20415
901.904	20237
902.023	20084
902.141	19955
902.26	19875
902.379	19940
902.498	19909
902.617	19833
902.735	19955
902.854	19841
902.973	19849
903.091	19609
903.21	19460
903.328	19632
903.446	19506
903.565	19324
903.683	19377
903.801	19293
903.919	19335
904.038	19316
904.156	19084
904.274	19255
904.392	19129
904.51	19095
904.627	19110
904.745	19133
904.863	19122
904.981	18913
905.098	18905
905.216	18867
905.334	18848
905.451	18821
905.569	18753
905.686	18909
905.803	18730
905.921	18509
906.038	18677
906.155	18509
906.272	18448
906.389	18380
906.506	18315
906.623	18285
906.74	18277
906.857	18232
906.974	18182
907.091	18296
907.208	18342
907.324	18311
907.441	18140
907.557	17980
907.674	17980
907.79	17954
907.907	17980
908.023	18030
908.139	18064
908.256	17935
908.372	17809
908.488	17779
908.604	17775
908.72	17680
908.836	17619
908.952	17672
909.068	17649
909.184	17790
909.3	17687
909.415	17585
909.531	17657
909.647	17398
909.762	17387
909.878	17349
909.993	17448
910.108	17280
910.224	17235
910.339	17284
910.454	17200
910.57	17223
910.685	17067
910.8	17376
910.915	17223
911.03	17204
911.145	16965
911.259	16812
911.374	17010
911.489	16858
911.604	16736
911.718	16611
911.833	16668
911.947	16550
912.062	16535
912.176	16653
912.291	16793
912.405	16637
912.519	16835
912.633	16812
912.748	16710
912.862	16664
912.976	16436
913.09	16322
913.204	16447
913.318	16497
913.431	16519
913.545	16455
913.659	16523
913.772	16337
913.886	16348
914	16280
914.113	16276
914.226	16314
914.34	16188
914.453	16192
914.566	16280
914.68	16223
914.793	16059
914.906	15907
915.019	15876
915.132	15781
915.245	15759
915.358	15949
915.47	15819
915.583	15884
915.696	15812
915.809	15937
915.921	16002
916.034	15724
916.146	15641
916.259	15656
916.371	15713
916.483	15781
916.595	15690
916.708	15622
916.82	15671
916.932	15488
917.044	15629
917.156	15443
917.268	15492
917.38	15469
917.491	15488
917.603	15519
917.715	15492
917.826	15515
917.938	15306
918.049	15272
918.161	15420
918.272	15485
918.384	15549
918.495	15454
918.606	15192
918.717	15203
918.828	15188
918.939	15233
919.05	15108
919.161	15195
919.272	14849
919.383	15055
919.494	15176
919.604	15325
919.715	15192
919.826	15028
919.936	15195
920.047	15176
920.157	15138
920.267	15310
920.378	15127
920.488	15116
920.598	15252
920.708	15382
920.818	15199
920.928	15218
921.038	15435
921.148	15313
921.258	14998
921.368	14906
921.477	14921
921.587	14788
921.697	14674
921.806	14769
921.916	14663
922.025	14579
922.134	14541
922.244	14423
922.353	14541
922.462	14317
922.571	14309
922.68	14123
922.789	14172
922.898	14142
923.007	14111
923.116	14164
923.224	14088
923.333	13967
923.442	14020
923.55	13856
923.659	13993
923.767	14073
923.876	13799
923.984	13963
924.092	13845
924.201	13769
924.309	13776
924.417	13944
924.525	13738
924.633	13727
924.741	14610
924.849	13594
924.956	13685
925.064	13559
925.172	13460
925.279	13422
925.387	13525
925.494	13453
925.602	13563
925.709	13563
925.816	13354
925.924	13343
926.031	13525
926.138	13441
926.245	13460
926.352	13308
926.459	13483
926.566	13510
926.673	13339
926.779	13247
926.886	13168
926.993	13107
927.099	13099
927.206	12901
927.312	12985
927.419	13069
927.525	13050
927.631	13069
927.737	12875
927.843	12863
927.95	12639
928.056	12894
928.162	12814
928.267	12985
928.373	13491
928.479	12848
928.585	12662
928.69	12749
928.796	12757
928.901	12757
929.007	12582
929.112	12639
929.218	12642
929.323	12509
929.428	12578
929.533	12631
929.638	12483
929.743	12445
929.848	12498
929.953	12441
930.058	12422
930.163	12186
930.267	12251
930.372	12357
930.477	12121
930.581	12433
930.685	12224
930.79	12057
930.894	12110
930.998	12076
931.103	12152
931.207	11874
931.311	11760
931.415	11688
931.519	11497
931.623	11459
