Data from test_V78500241_3570.txt Node
Date: Fri Mar 25 16:06:31 CST 2022
User: usil
Spectrometer: V785-0024
Trigger mode: 0
Integration Time (sec): 4.000000E-1
Scans to average: 1
Nonlinearity correction enabled: false
Boxcar width: 0
Storing dark spectrum: false
XAxis mode: Wavelengths
Number of Pixels in Spectrum: 1024
>>>>>Begin Spectral Data<<<<<
801.071	28828
801.214	28721
801.356	28653
801.499	28554
801.641	28401
801.783	28478
801.926	28424
802.068	28276
802.211	28344
802.353	28443
802.496	28112
802.638	28078
802.78	28169
802.923	27964
803.065	27975
803.208	27888
803.35	27991
803.492	28310
803.635	28215
803.777	28200
803.919	28367
804.061	28542
804.204	28413
804.346	28398
804.488	28257
804.63	28211
804.773	28207
804.915	28268
805.057	28421
805.199	28348
805.341	28443
805.483	28523
805.626	28557
805.768	28348
805.91	28379
806.052	28478
806.194	28447
806.336	28717
806.478	28497
806.62	28512
806.762	28630
806.904	28820
807.046	29151
807.188	28786
807.33	28923
807.472	29052
807.614	28816
807.756	29052
807.898	28729
808.04	28710
808.182	28691
808.324	28946
808.465	28835
808.607	28987
808.749	29121
808.891	29288
809.033	29402
809.174	29311
809.316	29189
809.458	29185
809.6	28980
809.741	29322
809.883	29277
810.025	29395
810.166	29531
810.308	29566
810.45	29410
810.591	29375
810.733	29254
810.875	29189
811.016	29162
811.158	29113
811.299	29296
811.441	29345
811.582	29330
811.724	29083
811.865	29159
812.007	29143
812.148	29216
812.29	29242
812.431	29395
812.573	29600
812.714	29699
812.855	29672
812.997	29767
813.138	29939
813.279	29961
813.421	29745
813.562	29764
813.703	29516
813.845	29505
813.986	29250
814.127	29006
814.268	28915
814.41	28938
814.551	28790
814.692	28953
814.833	29006
814.974	28877
815.115	29006
815.256	28809
815.397	28729
815.539	28710
815.68	28759
815.821	28763
815.962	28763
816.103	28721
816.244	28603
816.385	28535
816.526	28481
816.666	28291
816.807	28143
816.948	28322
817.089	28341
817.23	28219
817.371	28276
817.512	28234
817.653	28154
817.793	28090
817.934	28200
818.075	28143
818.216	28318
818.356	28093
818.497	28090
818.638	27987
818.778	28002
818.919	27956
819.06	28082
819.2	28173
819.341	28234
819.481	28169
819.622	28470
819.762	28542
819.903	28436
820.043	28413
820.184	28451
820.324	28527
820.465	28443
820.605	28466
820.746	28291
820.886	28131
821.026	28584
821.167	28325
821.307	28421
821.447	28238
821.588	28166
821.728	28105
821.868	27804
822.008	27747
822.149	27610
822.289	27690
822.429	27427
822.569	27321
822.709	27488
822.849	27382
822.99	27313
823.13	27104
823.27	27351
823.41	26975
823.55	27032
823.69	27013
823.83	27028
823.97	26979
824.11	26895
824.25	26754
824.389	26914
824.529	27001
824.669	26777
824.809	27024
824.949	26788
825.089	26895
825.228	26952
825.368	26651
825.508	26701
825.648	26762
825.787	26830
825.927	26990
826.067	26522
826.206	26670
826.346	26746
826.485	26849
826.625	26807
826.765	26845
826.904	26811
827.044	26636
827.183	26583
827.323	26541
827.462	26590
827.601	26400
827.741	26385
827.88	26499
828.02	26385
828.159	26423
828.298	26522
828.437	26568
828.577	26370
828.716	26606
828.855	26275
828.994	26195
829.134	26195
829.273	26157
829.412	26134
829.551	26058
829.69	26122
829.829	26092
829.968	26183
830.107	26210
830.246	26263
830.385	26153
830.524	26027
830.663	25917
830.802	25868
830.941	25849
831.08	25708
831.219	25868
831.357	25940
831.496	25955
831.635	25833
831.774	25753
831.913	25685
832.051	25491
832.19	25571
832.329	25620
832.467	25316
832.606	25460
832.744	25373
832.883	25449
833.022	25468
833.16	25293
833.299	25350
833.437	25457
833.576	25605
833.714	25411
833.852	25476
833.991	25601
834.129	25571
834.267	25643
834.406	25392
834.544	25464
834.682	25544
834.821	25457
834.959	25662
835.097	25487
835.235	25449
835.373	25540
835.511	25502
835.65	25365
835.788	25506
835.926	25152
836.064	25053
836.202	25190
836.34	25316
836.478	25365
836.615	25285
836.753	25350
836.891	25335
837.029	25354
837.167	25263
837.305	25259
837.443	25156
837.58	25148
837.718	25308
837.856	25202
837.993	25031
838.131	25133
838.269	24985
838.406	25057
838.544	24935
838.681	24848
838.819	24741
838.956	24642
839.094	24513
839.231	24673
839.369	24810
839.506	24947
839.643	24943
839.781	24604
839.918	24669
840.055	24551
840.193	24566
840.33	24490
840.467	24536
840.604	24479
840.742	24684
840.879	24505
841.016	24315
841.153	24437
841.29	24658
841.427	24517
841.564	24509
841.701	24464
841.838	24502
841.975	24369
842.112	24418
842.249	24361
842.385	24315
842.522	24456
842.659	24403
842.796	24235
842.933	24273
843.069	24174
843.206	24182
843.343	24338
843.479	24330
843.616	24273
843.752	24083
843.889	24091
844.025	24197
844.162	23996
844.298	24163
844.435	24049
844.571	23984
844.708	24057
844.844	24114
844.98	24072
845.117	24087
845.253	24030
845.389	24007
845.525	23912
845.661	23859
845.798	23775
845.934	23851
846.07	23836
846.206	23775
846.342	23866
846.478	23748
846.614	23551
846.75	23444
846.886	23509
847.022	23516
847.158	23657
847.294	23642
847.429	23642
847.565	23402
847.701	23661
847.837	23181
847.972	23136
848.108	23208
848.244	23246
848.379	23166
848.515	22934
848.65	23220
848.786	23014
848.921	23079
849.057	23071
849.192	23098
849.328	23109
849.463	23037
849.598	23018
849.734	22991
849.869	23006
850.004	22904
850.14	22930
850.275	22790
850.41	22847
850.545	22710
850.68	22725
850.815	22919
850.95	22847
851.085	23124
851.22	23037
851.355	22919
851.49	22869
851.625	22820
851.76	22767
851.895	22797
852.03	22755
852.165	22919
852.299	22957
852.434	22949
852.569	22869
852.703	22809
852.838	23037
852.973	22957
853.107	22911
853.242	22797
853.376	22694
853.511	22588
853.645	22546
853.78	22782
853.914	22607
854.048	22497
854.183	22580
854.317	22599
854.451	22881
854.585	22603
854.72	22656
854.854	22816
854.988	22653
855.122	22656
855.256	22554
855.39	22786
855.524	22656
855.658	22679
855.792	22683
855.926	22774
856.06	22740
856.194	22881
856.327	22523
856.461	22588
856.595	22565
856.729	22569
856.862	22675
856.996	22771
857.13	22649
857.263	22668
857.397	22725
857.53	22653
857.664	22721
857.797	22790
857.931	22706
858.064	22691
858.197	22854
858.331	22683
858.464	22569
858.597	22603
858.731	22580
858.864	22577
858.997	22694
859.13	22771
859.263	22664
859.396	22763
859.529	22634
859.662	22626
859.795	22656
859.928	22660
860.061	22930
860.194	22946
860.327	22660
860.46	22691
860.592	22828
860.725	22824
860.858	22801
860.99	22774
861.123	22675
861.256	22588
861.388	22733
861.521	23395
861.653	22584
861.786	22500
861.918	22542
862.05	22573
862.183	22500
862.315	22649
862.447	22603
862.58	22580
862.712	22371
862.844	22440
862.976	22470
863.108	22493
863.24	22641
863.372	22344
863.504	22390
863.636	22436
863.768	22451
863.9	22466
864.032	22394
864.164	22352
864.296	22500
864.428	22508
864.559	22428
864.691	22497
864.823	22428
864.954	22413
865.086	22310
865.217	22318
865.349	22143
865.48	22382
865.612	22219
865.743	22447
865.875	22405
866.006	22234
866.137	22211
866.269	22280
866.4	22257
866.531	22242
866.662	22166
866.793	22032
866.924	22219
867.055	22200
867.186	22181
867.317	22169
867.448	22101
867.579	22215
867.71	22188
867.841	22150
867.972	22131
868.103	22192
868.233	22249
868.364	22059
868.495	22246
868.625	22440
868.756	22493
868.886	22280
869.017	22459
869.147	22554
869.278	22710
869.408	22462
869.539	22481
869.669	22523
869.799	22459
869.929	22459
870.06	22546
870.19	22656
870.32	22744
870.45	22763
870.58	22900
870.71	22946
870.84	22896
870.97	22904
871.1	22869
871.23	22995
871.36	22972
871.489	22999
871.619	23044
871.749	23022
871.879	23033
872.008	23079
872.138	23022
872.267	22972
872.397	22801
872.526	22923
872.656	22972
872.785	22889
872.915	23029
873.044	22976
873.173	23064
873.303	23018
873.432	23075
873.561	23025
873.69	23075
873.819	23121
873.948	23113
874.077	23094
874.206	22999
874.335	23006
874.464	23132
874.593	23162
874.722	23261
874.851	23326
874.979	23261
875.108	23353
875.237	23178
875.365	23174
875.494	23174
875.623	23326
875.751	23212
875.88	23280
876.008	23391
876.136	23471
876.265	23668
876.393	23710
876.521	23684
876.65	23817
876.778	23672
876.906	23596
877.034	23676
877.162	23520
877.29	23531
877.418	23589
877.546	23687
877.674	23566
877.802	23547
877.93	23653
878.058	23497
878.185	23528
878.313	23516
878.441	23459
878.568	23368
878.696	23562
878.824	23760
878.951	23661
879.079	23695
879.206	23958
879.333	23878
879.461	23611
879.588	23710
879.715	23756
879.842	23821
879.97	23676
880.097	23512
880.224	23425
880.351	23459
880.478	23467
880.605	23463
880.732	23433
880.859	23680
880.986	23474
881.112	23368
881.239	23318
881.366	23239
881.493	23143
881.619	22927
881.746	23003
881.872	23044
881.999	23117
882.125	22873
882.252	23098
882.378	22946
882.505	23041
882.631	22812
882.757	22717
882.883	22645
883.01	22675
883.136	22630
883.262	22531
883.388	22523
883.514	22778
883.64	22752
883.766	22550
883.892	22341
884.018	22474
884.143	22542
884.269	22626
884.395	22413
884.52	22276
884.646	22417
884.772	22306
884.897	22318
885.023	22344
885.148	22447
885.274	22474
885.399	22310
885.524	22268
885.65	22318
885.775	22295
885.9	22314
886.025	22276
886.15	22310
886.275	22059
886.4	22158
886.525	22238
886.65	22173
886.775	22154
886.9	22409
887.025	22417
887.149	22143
887.274	22135
887.399	22070
887.523	22090
887.648	22006
887.773	21972
887.897	22101
888.021	22010
888.146	21895
888.27	22169
888.395	22120
888.519	22067
888.643	22010
888.767	22120
888.891	21934
889.015	21861
889.139	21960
889.263	21789
889.387	21991
889.511	22063
889.635	21857
889.759	21827
889.883	21846
890.006	21861
890.13	21915
890.254	21739
890.377	21755
890.501	21614
890.624	21572
890.748	21648
890.871	21405
890.995	21428
891.118	21207
891.241	21405
891.364	21408
891.488	21428
891.611	21374
891.734	21363
891.857	21462
891.98	21435
892.103	21401
892.226	21393
892.349	21374
892.471	21127
892.594	21264
892.717	21154
892.839	21310
892.962	21275
893.085	21214
893.207	21275
893.33	21146
893.452	21165
893.575	21272
893.697	21256
893.819	21351
893.941	21408
894.064	21450
894.186	21214
894.308	21218
894.43	21435
894.552	21355
894.674	21272
894.796	21085
894.918	21157
895.04	21218
895.161	21340
895.283	21363
895.405	21108
895.526	21157
895.648	21272
895.769	21199
895.891	21260
896.012	21241
896.134	21256
896.255	21222
896.376	21169
896.498	21233
896.619	21226
896.74	21272
896.861	21237
896.982	21652
897.103	21717
897.224	21504
897.345	21549
897.466	21401
897.587	21469
897.708	21439
897.828	21485
897.949	21469
898.07	21283
898.19	21291
898.311	21386
898.431	21363
898.552	21443
898.672	21378
898.792	21504
898.913	21447
899.033	21405
899.153	21272
899.273	21074
899.393	21222
899.513	21138
899.633	21154
899.753	21093
899.873	21058
899.993	21154
900.113	20880
900.232	21135
900.352	21058
900.472	21089
900.591	20925
900.711	20925
900.83	20830
900.95	21017
901.069	20929
901.189	20781
901.308	20632
901.427	20488
901.546	20545
901.665	20530
901.784	20549
901.904	20358
902.023	20237
902.141	20111
902.26	20054
902.379	20046
902.498	19989
902.617	20005
902.735	20020
902.854	20012
902.973	19807
903.091	19791
903.21	19559
903.328	19499
903.446	19616
903.565	19369
903.683	19609
903.801	19320
903.919	19400
904.038	19384
904.156	19221
904.274	19297
904.392	19263
904.51	19168
904.627	19046
904.745	19251
904.863	19289
904.981	19042
905.098	18833
905.216	18886
905.334	18882
905.451	18867
905.569	18810
905.686	18810
905.803	18924
905.921	18612
906.038	18654
906.155	18639
906.272	18460
906.389	18551
906.506	18388
906.623	18361
906.74	18418
906.857	18270
906.974	18327
907.091	18410
907.208	18410
907.324	18445
907.441	18289
907.557	18049
907.674	18079
907.79	18026
907.907	18064
908.023	18106
908.139	18114
908.256	18041
908.372	17942
908.488	18049
908.604	17805
908.72	17760
908.836	17767
908.952	17828
909.068	17908
909.184	17836
909.3	17817
909.415	17798
909.531	17684
909.647	17665
909.762	17459
909.878	17562
909.993	17501
910.108	17474
910.224	17379
910.339	17543
910.454	17326
910.57	17349
910.685	17200
910.8	17471
910.915	17433
911.03	17299
911.145	17185
911.259	17006
911.374	17006
911.489	16957
911.604	16968
911.718	16869
911.833	16771
911.947	16774
912.062	16656
912.176	16820
912.291	16877
912.405	16771
912.519	17041
912.633	16999
912.748	16889
912.862	16793
912.976	16649
913.09	16440
913.204	16542
913.318	16592
913.431	16558
913.545	16767
913.659	16694
913.772	16637
913.886	16527
914	16447
914.113	16493
914.226	16466
914.34	16516
914.453	16242
914.566	16497
914.68	16253
914.793	16242
914.906	16154
915.019	16006
915.132	15876
915.245	15960
915.358	16025
915.47	15949
915.583	15953
915.696	16048
915.809	16071
915.921	16173
916.034	15895
916.146	15880
916.259	15759
916.371	15994
916.483	15895
916.595	15804
916.708	15831
916.82	15880
916.932	15747
917.044	15660
917.156	15808
917.268	15557
917.38	15629
917.491	15591
917.603	15587
917.715	15606
917.826	15675
917.938	15591
918.049	15462
918.161	15545
918.272	15701
918.384	15667
918.495	15462
918.606	15348
918.717	15344
918.828	15374
918.939	15321
919.05	15192
919.161	15321
919.272	15112
919.383	15207
919.494	15363
919.604	15523
919.715	15329
919.826	15249
919.936	15325
920.047	15447
920.157	15382
920.267	15428
920.378	15287
920.488	15260
920.598	15359
920.708	15637
920.818	15344
920.928	15447
921.038	15580
921.148	15488
921.258	15294
921.368	15062
921.477	15009
921.587	15020
921.697	14868
921.806	14956
921.916	14887
922.025	14754
922.134	14640
922.244	14678
922.353	14765
922.462	14537
922.571	14454
922.68	14313
922.789	14286
922.898	14240
923.007	14290
923.116	14305
923.224	14313
923.333	14233
923.442	14134
923.55	14046
923.659	14088
923.767	14180
923.876	13951
923.984	14115
924.092	14005
924.201	14005
924.309	13967
924.417	13951
924.525	13967
924.633	13928
924.741	14785
924.849	13734
924.956	13883
925.064	13704
925.172	13643
925.279	13613
925.387	13624
925.494	13658
925.602	13871
925.709	13719
925.816	13441
925.924	13616
926.031	13620
926.138	13613
926.245	13521
926.352	13521
926.459	13651
926.566	13628
926.673	13472
926.779	13369
926.886	13346
926.993	13217
927.099	13236
927.206	13217
927.312	13126
927.419	13213
927.525	13240
927.631	13213
927.737	13114
927.843	12966
927.95	12905
928.056	13004
928.162	13053
928.267	13031
928.373	13677
928.479	13095
928.585	12871
928.69	12905
928.796	12962
928.901	12886
929.007	12669
929.112	12886
929.218	12863
929.323	12692
929.428	12696
929.533	12700
929.638	12646
929.743	12532
929.848	12760
929.953	12696
930.058	12547
930.163	12429
930.267	12395
930.372	12601
930.477	12323
930.581	12536
930.685	12403
930.79	12228
930.894	12300
930.998	12273
931.103	12296
931.207	11908
931.311	11946
931.415	11855
931.519	11665
931.623	11714
