Data from test_V78500241_3027.txt Node
Date: Fri Mar 25 16:02:46 CST 2022
User: usil
Spectrometer: V785-0024
Trigger mode: 0
Integration Time (sec): 4.000000E-1
Scans to average: 1
Nonlinearity correction enabled: false
Boxcar width: 0
Storing dark spectrum: false
XAxis mode: Wavelengths
Number of Pixels in Spectrum: 1024
>>>>>Begin Spectral Data<<<<<
801.071	28641
801.214	28436
801.356	28398
801.499	28341
801.641	28131
801.783	28181
801.926	28268
802.068	28059
802.211	28120
802.353	28135
802.496	27854
802.638	27819
802.78	27663
802.923	27762
803.065	27667
803.208	27770
803.35	27926
803.492	28112
803.635	28082
803.777	27880
803.919	28147
804.061	28390
804.204	28147
804.346	27895
804.488	28010
804.63	28036
804.773	28112
804.915	28135
805.057	28249
805.199	28135
805.341	28223
805.483	28280
805.626	28090
805.768	28044
805.91	28333
806.052	28318
806.194	28246
806.336	28322
806.478	28204
806.62	28177
806.762	28367
806.904	28531
807.046	28729
807.188	28630
807.33	28736
807.472	28752
807.614	28668
807.756	28885
807.898	28455
808.04	28440
808.182	28409
808.324	28611
808.465	28691
808.607	28691
808.749	28782
808.891	28946
809.033	29113
809.174	29048
809.316	28877
809.458	28984
809.6	28995
809.741	29067
809.883	29162
810.025	29162
810.166	29121
810.308	29166
810.45	29140
810.591	29246
810.733	29048
810.875	28877
811.016	28744
811.158	28744
811.299	29018
811.441	29124
811.582	29090
811.724	28976
811.865	28968
812.007	28923
812.148	28850
812.29	29094
812.431	29041
812.573	29181
812.714	29421
812.855	29486
812.997	29661
813.138	29851
813.279	29551
813.421	29368
813.562	29341
813.703	29204
813.845	29208
813.986	28862
814.127	28675
814.268	28588
814.41	28793
814.551	28493
814.692	28573
814.833	28440
814.974	28466
815.115	28592
815.256	28508
815.397	28565
815.539	28641
815.68	28390
815.821	28344
815.962	28428
816.103	28436
816.244	28314
816.385	28234
816.526	28116
816.666	28074
816.807	28006
816.948	27964
817.089	27899
817.23	27987
817.371	28025
817.512	27964
817.653	27838
817.793	27907
817.934	27892
818.075	27960
818.216	27956
818.356	27956
818.497	27926
818.638	27682
818.778	27800
818.919	27781
819.06	27823
819.2	27857
819.341	27964
819.481	27964
819.622	28169
819.762	28318
819.903	28276
820.043	28116
820.184	28162
820.324	28074
820.465	28154
820.605	28124
820.746	27907
820.886	27903
821.026	28124
821.167	28109
821.307	28177
821.447	27949
821.588	27884
821.728	27751
821.868	27450
822.008	27549
822.149	27488
822.289	27534
822.429	26948
822.569	27169
822.709	27192
822.849	26979
822.99	27005
823.13	26891
823.27	27013
823.41	26773
823.55	26674
823.69	26834
823.83	26697
823.97	26750
824.11	26583
824.25	26442
824.389	26621
824.529	26693
824.669	26484
824.809	26720
824.949	26708
825.089	26724
825.228	26514
825.368	26484
825.508	26533
825.648	26484
825.787	26469
825.927	26537
826.067	26549
826.206	26457
826.346	26522
826.485	26522
826.625	26640
826.765	26446
826.904	26522
827.044	26339
827.183	26377
827.323	26210
827.462	26225
827.601	26077
827.741	26195
827.88	26237
828.02	26024
828.159	26176
828.298	26180
828.437	26240
828.577	26081
828.716	26278
828.855	26035
828.994	25830
829.134	25852
829.273	25913
829.412	25807
829.551	25788
829.69	25856
829.829	25837
829.968	25928
830.107	25913
830.246	25811
830.385	25799
830.524	25826
830.663	25757
830.802	25605
830.941	25483
831.08	25460
831.219	25586
831.357	25597
831.496	25746
831.635	25479
831.774	25472
831.913	25377
832.051	25308
832.19	25282
832.329	25289
832.467	25289
832.606	25053
832.744	25053
832.883	25042
833.022	24951
833.16	25187
833.299	25194
833.437	25293
833.576	25282
833.714	25175
833.852	25228
833.991	25244
834.129	25194
834.267	25362
834.406	25255
834.544	25088
834.682	25240
834.821	25247
834.959	25392
835.097	25152
835.235	25236
835.373	25160
835.511	25103
835.65	25080
835.788	25084
835.926	24825
836.064	24951
836.202	24909
836.34	25088
836.478	25213
836.615	25110
836.753	25023
836.891	25091
837.029	24935
837.167	24924
837.305	24943
837.443	24951
837.58	25008
837.718	24992
837.856	24992
837.993	24817
838.131	24776
838.269	24711
838.406	24764
838.544	24654
838.681	24471
838.819	24376
838.956	24338
839.094	24327
839.231	24178
839.369	24429
839.506	24601
839.643	24578
839.781	24391
839.918	24220
840.055	24330
840.193	24125
840.33	24228
840.467	24323
840.604	24102
840.742	24566
840.879	24076
841.016	24083
841.153	24098
841.29	24304
841.427	24213
841.564	24232
841.701	24140
841.838	24190
841.975	24148
842.112	24205
842.249	24049
842.385	23958
842.522	24190
842.659	24049
842.796	23882
842.933	24087
843.069	23923
843.206	23950
843.343	24098
843.479	23950
843.616	24022
843.752	23851
843.889	23802
844.025	23920
844.162	23642
844.298	23965
844.435	23832
844.571	23676
844.708	23771
844.844	23923
844.98	23973
845.117	23836
845.253	23745
845.389	23581
845.525	23668
845.661	23752
845.798	23478
845.934	23687
846.07	23391
846.206	23535
846.342	23570
846.478	23410
846.614	23288
846.75	23140
846.886	23231
847.022	23383
847.158	23200
847.294	23216
847.429	23223
847.565	23200
847.701	23490
847.837	23033
847.972	22854
848.108	23037
848.244	22896
848.379	22854
848.515	22850
848.65	22809
848.786	22786
848.921	22736
849.057	22850
849.192	22999
849.328	22877
849.463	22710
849.598	22915
849.734	22660
849.869	22736
850.004	22615
850.14	22580
850.275	22622
850.41	22577
850.545	22542
850.68	22554
850.815	22740
850.95	22554
851.085	22611
851.22	22710
851.355	22554
851.49	22531
851.625	22516
851.76	22508
851.895	22527
852.03	22466
852.165	22618
852.299	22493
852.434	22649
852.569	22573
852.703	22523
852.838	22607
852.973	22790
853.107	22664
853.242	22504
853.376	22470
853.511	22402
853.645	22413
853.78	22554
853.914	22394
854.048	22360
854.183	22371
854.317	22443
854.451	22596
854.585	22382
854.72	22409
854.854	22512
854.988	22379
855.122	22371
855.256	22272
855.39	22481
855.524	22656
855.658	22557
855.792	22519
855.926	22398
856.06	22367
856.194	22497
856.327	22424
856.461	22398
856.595	22322
856.729	22386
856.862	22599
856.996	22481
857.13	22504
857.263	22535
857.397	22535
857.53	22398
857.664	22519
857.797	22519
857.931	22603
858.064	22318
858.197	22561
858.331	22352
858.464	22379
858.597	22371
858.731	22382
858.864	22303
858.997	22276
859.13	22360
859.263	22367
859.396	22500
859.529	22386
859.662	22436
859.795	22242
859.928	22531
860.061	22573
860.194	22626
860.327	22474
860.46	22386
860.592	22653
860.725	22592
860.858	22470
860.99	22527
861.123	22280
861.256	22375
861.388	22409
861.521	23174
861.653	22272
861.786	22143
861.918	22261
862.05	22322
862.183	22333
862.315	22291
862.447	22428
862.58	22276
862.712	22234
862.844	22112
862.976	22272
863.108	22306
863.24	22455
863.372	22090
863.504	22242
863.636	22223
863.768	22158
863.9	22010
864.032	21964
864.164	22101
864.296	22139
864.428	22234
864.559	22143
864.691	22124
864.823	22128
864.954	22147
865.086	22078
865.217	22116
865.349	21895
865.48	22090
865.612	22074
865.743	21964
865.875	22010
866.006	22006
866.137	21945
866.269	21964
866.4	22120
866.531	21941
866.662	21918
866.793	21922
866.924	21956
867.055	21953
867.186	21934
867.317	21926
867.448	21895
867.579	21854
867.71	21987
867.841	21960
867.972	21903
868.103	21835
868.233	21964
868.364	22013
868.495	22021
868.625	22185
868.756	22322
868.886	22021
869.017	22150
869.147	22226
869.278	22261
869.408	22169
869.539	22299
869.669	22276
869.799	22287
869.929	22200
870.06	22154
870.19	22599
870.32	22519
870.45	22516
870.58	22382
870.71	22615
870.84	22580
870.97	22497
871.1	22550
871.23	22748
871.36	22934
871.489	22649
871.619	22736
871.749	22900
871.879	22843
872.008	22877
872.138	22835
872.267	22752
872.397	22649
872.526	22523
872.656	22577
872.785	22584
872.915	22729
873.044	22805
873.173	22710
873.303	22828
873.432	22824
873.561	22866
873.69	22892
873.819	22790
873.948	22816
874.077	22755
874.206	22634
874.335	22740
874.464	22934
874.593	22869
874.722	22866
874.851	23094
874.979	23044
875.108	23025
875.237	23037
875.365	22869
875.494	22904
875.623	23025
875.751	23102
875.88	22957
876.008	23094
876.136	23220
876.265	23364
876.393	23630
876.521	23444
876.65	23463
876.778	23497
876.906	23326
877.034	23395
877.162	23410
877.29	23349
877.418	23307
877.546	23341
877.674	23353
877.802	23360
877.93	23322
878.058	23345
878.185	23189
878.313	23341
878.441	23296
878.568	23159
878.696	23181
878.824	23383
878.951	23414
879.079	23535
879.206	23665
879.333	23509
879.461	23330
879.588	23417
879.715	23467
879.842	23577
879.97	23433
880.097	23132
880.224	23212
880.351	23265
880.478	23113
880.605	23132
880.732	23143
880.859	23433
880.986	23326
881.112	23220
881.239	23029
881.366	23018
881.493	22725
881.619	22668
881.746	22721
881.872	22755
881.999	22809
882.125	22596
882.252	22664
882.378	22687
882.505	22889
882.631	22649
882.757	22516
882.883	22580
883.01	22485
883.136	22310
883.262	22314
883.388	22276
883.514	22344
883.64	22402
883.766	22375
883.892	22150
884.018	22223
884.143	22337
884.269	22424
884.395	22070
884.52	22017
884.646	22143
884.772	21956
884.897	21884
885.023	22051
885.148	22139
885.274	22295
885.399	22120
885.524	22002
885.65	22025
885.775	22048
885.9	21987
886.025	22139
886.15	22006
886.275	22090
886.4	21873
886.525	22017
886.65	21956
886.775	21793
886.9	21994
887.025	22287
887.149	21956
887.274	21827
887.399	21827
887.523	21869
887.648	21724
887.773	21637
887.897	21861
888.021	21876
888.146	21720
888.27	21922
888.395	21842
888.519	21800
888.643	21797
888.767	21926
888.891	21808
889.015	21576
889.139	21629
889.263	21675
889.387	21629
889.511	21759
889.635	21781
889.759	21572
889.883	21447
890.006	21603
890.13	21720
890.254	21466
890.377	21329
890.501	21310
890.624	21294
890.748	21382
890.871	21287
890.995	21089
891.118	21100
891.241	21135
891.364	21135
891.488	21256
891.611	21104
891.734	21146
891.857	21093
891.98	21188
892.103	21104
892.226	21104
892.349	21081
892.471	20990
892.594	21085
892.717	21108
892.839	20994
892.962	21112
893.085	21123
893.207	21085
893.33	20918
893.452	20979
893.575	21066
893.697	21047
893.819	21203
893.941	21279
894.064	21028
894.186	20929
894.308	20971
894.43	21074
894.552	21100
894.674	21108
894.796	20963
894.918	20948
895.04	20971
895.161	21077
895.283	20960
895.405	20853
895.526	20906
895.648	20853
895.769	20975
895.891	20944
896.012	21093
896.134	21005
896.255	20979
896.376	21020
896.498	20998
896.619	21066
896.74	20952
896.861	21070
896.982	21252
897.103	21447
897.224	21329
897.345	21085
897.466	21119
897.587	21195
897.708	21283
897.828	21241
897.949	21241
898.07	21036
898.19	21161
898.311	21287
898.431	21161
898.552	21237
898.672	21306
898.792	21306
898.913	21176
899.033	21066
899.153	21043
899.273	20834
899.393	20952
899.513	20861
899.633	21005
899.753	21081
899.873	20792
899.993	20998
900.113	20967
900.232	20876
900.352	20868
900.472	20686
900.591	20644
900.711	20701
900.83	20735
900.95	20990
901.069	20781
901.189	20530
901.308	20370
901.427	20294
901.546	20237
901.665	20301
901.784	20290
901.904	20119
902.023	20107
902.141	19909
902.26	19860
902.379	19849
902.498	19883
902.617	19826
902.735	19811
902.854	19799
902.973	19666
903.091	19483
903.21	19430
903.328	19476
903.446	19350
903.565	19194
903.683	19266
903.801	19072
903.919	19175
904.038	19255
904.156	19015
904.274	19141
904.392	18856
904.51	18890
904.627	18970
904.745	18989
904.863	19004
904.981	18844
905.098	18654
905.216	18810
905.334	18681
905.451	18696
905.569	18658
905.686	18604
905.803	18692
905.921	18414
906.038	18517
906.155	18448
906.272	18380
906.389	18350
906.506	18243
906.623	18235
906.74	18190
906.857	18125
906.974	18087
907.091	18220
907.208	18308
907.324	18194
907.441	18102
907.557	17904
907.674	18030
907.79	17840
907.907	17935
908.023	17992
908.139	18072
908.256	17866
908.372	17821
908.488	17786
908.604	17573
908.72	17680
908.836	17642
908.952	17604
909.068	17695
909.184	17733
909.3	17604
909.415	17649
909.531	17551
909.647	17421
909.762	17299
909.878	17277
909.993	17395
910.108	17231
910.224	17273
910.339	17273
910.454	17193
910.57	17056
910.685	17079
910.8	17364
910.915	17292
911.03	17067
911.145	16965
911.259	16862
911.374	16965
911.489	16831
911.604	16702
911.718	16626
911.833	16622
911.947	16538
912.062	16504
912.176	16649
912.291	16713
912.405	16603
912.519	16820
912.633	16889
912.748	16527
912.862	16573
912.976	16481
913.09	16360
913.204	16322
913.318	16500
913.431	16546
913.545	16421
913.659	16584
913.772	16421
913.886	16223
914	16173
914.113	16234
914.226	16417
914.34	16215
914.453	16177
914.566	16192
914.68	16074
914.793	16105
914.906	15880
915.019	15892
915.132	15701
915.245	15823
915.358	15793
915.47	15800
915.583	15743
915.696	15838
915.809	15937
915.921	15918
916.034	15808
916.146	15743
916.259	15755
916.371	15736
916.483	15732
916.595	15656
916.708	15663
916.82	15545
916.932	15545
917.044	15587
917.156	15568
917.268	15492
917.38	15473
917.491	15496
917.603	15492
917.715	15576
917.826	15545
917.938	15359
918.049	15233
918.161	15367
918.272	15515
918.384	15492
918.495	15378
918.606	15211
918.717	15104
918.828	15294
918.939	15195
919.05	15119
919.161	15051
919.272	15001
919.383	14971
919.494	15230
919.604	15389
919.715	15112
919.826	15161
919.936	15138
920.047	15169
920.157	15097
920.267	15245
920.378	15100
920.488	15123
920.598	15325
920.708	15469
920.818	15272
920.928	15321
921.038	15378
921.148	15355
921.258	15218
921.368	15024
921.477	14834
921.587	14849
921.697	14811
921.806	14826
921.916	14629
922.025	14545
922.134	14522
922.244	14503
922.353	14514
922.462	14423
922.571	14320
922.68	14199
922.789	14092
922.898	14134
923.007	14046
923.116	14195
923.224	14107
923.333	14153
923.442	14039
923.55	14050
923.659	13852
923.767	14073
923.876	13837
923.984	13917
924.092	13913
924.201	13932
924.309	13799
924.417	13765
924.525	13788
924.633	13841
924.741	14594
924.849	13556
924.956	13769
925.064	13537
925.172	13514
925.279	13453
925.387	13518
925.494	13521
925.602	13605
925.709	13502
925.816	13422
925.924	13472
926.031	13533
926.138	13518
926.245	13441
926.352	13354
926.459	13563
926.566	13434
926.673	13407
926.779	13175
926.886	13236
926.993	13145
927.099	13015
927.206	13019
927.312	12981
927.419	13084
927.525	13091
927.631	13053
927.737	12951
927.843	12901
927.95	12844
928.056	12837
928.162	12913
928.267	12935
928.373	13556
928.479	12924
928.585	12719
928.69	12810
928.796	12821
928.901	12760
929.007	12502
929.112	12707
929.218	12703
929.323	12593
929.428	12585
929.533	12627
929.638	12540
929.743	12486
929.848	12631
929.953	12517
930.058	12410
930.163	12327
930.267	12209
930.372	12338
930.477	12205
930.581	12532
930.685	12330
930.79	12171
930.894	12155
930.998	12015
931.103	12315
931.207	11843
931.311	11813
931.415	11668
931.519	11490
931.623	11512
