Data from test_V78500241_1242.txt Node
Date: Fri Mar 25 15:50:24 CST 2022
User: usil
Spectrometer: V785-0024
Trigger mode: 0
Integration Time (sec): 4.000000E-1
Scans to average: 1
Nonlinearity correction enabled: false
Boxcar width: 0
Storing dark spectrum: false
XAxis mode: Wavelengths
Number of Pixels in Spectrum: 1024
>>>>>Begin Spectral Data<<<<<
801.071	28820
801.214	28664
801.356	28611
801.499	28413
801.641	28432
801.783	28432
801.926	28485
802.068	28314
802.211	28284
802.353	28344
802.496	27911
802.638	28074
802.78	28090
802.923	27945
803.065	27876
803.208	27895
803.35	28166
803.492	28204
803.635	28284
803.777	28185
803.919	28291
804.061	28683
804.204	28299
804.346	28394
804.488	28219
804.63	28223
804.773	28173
804.915	28337
805.057	28481
805.199	28367
805.341	28485
805.483	28497
805.626	28470
805.768	28500
805.91	28481
806.052	28455
806.194	28436
806.336	28645
806.478	28557
806.62	28428
806.762	28637
806.904	28801
807.046	28987
807.188	28984
807.33	29037
807.472	28984
807.614	28866
807.756	28972
807.898	28934
808.04	28637
808.182	28672
808.324	28862
808.465	28850
808.607	29033
808.749	29109
808.891	29242
809.033	29414
809.174	29231
809.316	29140
809.458	29136
809.6	29143
809.741	29356
809.883	29162
810.025	29383
810.166	29444
810.308	29459
810.45	29402
810.591	29356
810.733	29212
810.875	29273
811.016	29075
811.158	28999
811.299	29368
811.441	29356
811.582	29360
811.724	29208
811.865	29143
812.007	29383
812.148	29212
812.29	29387
812.431	29311
812.573	29497
812.714	29707
812.855	29767
812.997	29862
813.138	29878
813.279	29847
813.421	29843
813.562	29589
813.703	29657
813.845	29395
813.986	29227
814.127	29094
814.268	28953
814.41	29098
814.551	28812
814.692	28919
814.833	28946
814.974	28873
815.115	28930
815.256	28698
815.397	28755
815.539	28908
815.68	28843
815.821	28759
815.962	28752
816.103	28812
816.244	28630
816.385	28455
816.526	28485
816.666	28375
816.807	28139
816.948	28371
817.089	28329
817.23	28215
817.371	28272
817.512	28211
817.653	28124
817.793	28169
817.934	28215
818.075	28265
818.216	28322
818.356	28131
818.497	28051
818.638	27953
818.778	27968
818.919	27949
819.06	28070
819.2	28287
819.341	28291
819.481	28325
819.622	28344
819.762	28710
819.903	28637
820.043	28405
820.184	28344
820.324	28542
820.465	28421
820.605	28379
820.746	28356
820.886	28261
821.026	28409
821.167	28390
821.307	28382
821.447	28249
821.588	28166
821.728	27953
821.868	27964
822.008	27846
822.149	27789
822.289	27759
822.429	27405
822.569	27382
822.709	27519
822.849	27249
822.99	27310
823.13	27382
823.27	27226
823.41	27058
823.55	27070
823.69	27081
823.83	27089
823.97	27017
824.11	26887
824.25	26910
824.389	26864
824.529	27058
824.669	26937
824.809	27032
824.949	27001
825.089	26952
825.228	26963
825.368	26697
825.508	26758
825.648	26739
825.787	26906
825.927	26826
826.067	26754
826.206	26819
826.346	26777
826.485	26762
826.625	26819
826.765	26990
826.904	26792
827.044	26492
827.183	26488
827.323	26438
827.462	26560
827.601	26499
827.741	26579
827.88	26484
828.02	26442
828.159	26484
828.298	26648
828.437	26480
828.577	26457
828.716	26587
828.855	26488
828.994	26115
829.134	26161
829.273	26221
829.412	26092
829.551	26164
829.69	26187
829.829	26320
829.968	26199
830.107	26286
830.246	26062
830.385	26020
830.524	26012
830.663	25936
830.802	25860
830.941	25921
831.08	25788
831.219	25925
831.357	25925
831.496	26024
831.635	25917
831.774	25875
831.913	25738
832.051	25499
832.19	25521
832.329	25563
832.467	25548
832.606	25373
832.744	25381
832.883	25597
833.022	25457
833.16	25502
833.299	25441
833.437	25601
833.576	25609
833.714	25571
833.852	25499
833.991	25464
834.129	25510
834.267	25441
834.406	25491
834.544	25521
834.682	25578
834.821	25495
834.959	25712
835.097	25449
835.235	25445
835.373	25457
835.511	25502
835.65	25403
835.788	25400
835.926	25278
836.064	25122
836.202	25118
836.34	25209
836.478	25510
836.615	25259
836.753	25259
836.891	25396
837.029	25316
837.167	25175
837.305	25217
837.443	25308
837.58	25171
837.718	25110
837.856	25301
837.993	25206
838.131	25103
838.269	25122
838.406	25072
838.544	25004
838.681	24745
838.819	24837
838.956	24570
839.094	24597
839.231	24658
839.369	24764
839.506	25008
839.643	24871
839.781	24570
839.918	24509
840.055	24673
840.193	24437
840.33	24601
840.467	24627
840.604	24601
840.742	24821
840.879	24372
841.016	24399
841.153	24433
841.29	24696
841.427	24536
841.564	24582
841.701	24494
841.838	24353
841.975	24452
842.112	24445
842.249	24422
842.385	24304
842.522	24372
842.659	24365
842.796	24171
842.933	24270
843.069	24228
843.206	24239
843.343	24304
843.479	24254
843.616	24228
843.752	24102
843.889	24022
844.025	24038
844.162	24038
844.298	24083
844.435	23954
844.571	23958
844.708	24049
844.844	24254
844.98	24015
845.117	24064
845.253	24030
845.389	23980
845.525	23935
845.661	23783
845.798	23836
845.934	23779
846.07	23748
846.206	23882
846.342	23912
846.478	23779
846.614	23585
846.75	23531
846.886	23577
847.022	23551
847.158	23566
847.294	23512
847.429	23512
847.565	23486
847.701	23779
847.837	23208
847.972	23178
848.108	23307
848.244	23269
848.379	23014
848.515	23132
848.65	23052
848.786	23056
848.921	23071
849.057	23200
849.192	23075
849.328	23086
849.463	23056
849.598	23162
849.734	23025
849.869	22923
850.004	22752
850.14	22797
850.275	22919
850.41	22793
850.545	22839
850.68	22915
850.815	22877
850.95	22900
851.085	23025
851.22	22961
851.355	22809
851.49	22649
851.625	22835
851.76	22717
851.895	22801
852.03	22748
852.165	22915
852.299	22930
852.434	22873
852.569	22797
852.703	22873
852.838	22946
852.973	23071
853.107	22896
853.242	22637
853.376	22615
853.511	22565
853.645	22641
853.78	22873
853.914	22634
854.048	22611
854.183	22698
854.317	22645
854.451	22812
854.585	22694
854.72	22805
854.854	22805
854.988	22592
855.122	22588
855.256	22774
855.39	22668
855.524	22740
855.658	22748
855.792	22649
855.926	22664
856.06	22645
856.194	22759
856.327	22694
856.461	22588
856.595	22645
856.729	22592
856.862	22904
856.996	22771
857.13	22725
857.263	22729
857.397	22733
857.53	22577
857.664	22801
857.797	22672
857.931	22752
858.064	22774
858.197	22847
858.331	22805
858.464	22660
858.597	22538
858.731	22577
858.864	22672
858.997	22630
859.13	22691
859.263	22672
859.396	22748
859.529	22649
859.662	22626
859.795	22656
859.928	22615
860.061	22847
860.194	22801
860.327	22698
860.46	22592
860.592	22839
860.725	22854
860.858	22854
860.99	22759
861.123	22535
861.256	22466
861.388	22687
861.521	23334
861.653	22527
861.786	22375
861.918	22531
862.05	22561
862.183	22557
862.315	22622
862.447	22630
862.58	22565
862.712	22333
862.844	22394
862.976	22432
863.108	22413
863.24	22759
863.372	22344
863.504	22314
863.636	22386
863.768	22424
863.9	22363
864.032	22337
864.164	22268
864.296	22390
864.428	22428
864.559	22440
864.691	22386
864.823	22337
864.954	22253
865.086	22360
865.217	22249
865.349	22253
865.48	22097
865.612	22173
865.743	22382
865.875	22188
866.006	22238
866.137	22333
866.269	22344
866.4	22188
866.531	22276
866.662	22124
866.793	22234
866.924	22196
867.055	22352
867.186	22242
867.317	22101
867.448	22154
867.579	22204
867.71	22082
867.841	22143
867.972	22284
868.103	22276
868.233	22223
868.364	22303
868.495	22242
868.625	22257
868.756	22466
868.886	22405
869.017	22371
869.147	22451
869.278	22516
869.408	22318
869.539	22409
869.669	22535
869.799	22447
869.929	22478
870.06	22546
870.19	22725
870.32	22858
870.45	22862
870.58	22740
870.71	22942
870.84	22968
870.97	22774
871.1	22862
871.23	22866
871.36	23071
871.489	22927
871.619	22961
871.749	23029
871.879	22991
872.008	23067
872.138	22927
872.267	22984
872.397	22790
872.526	22892
872.656	22862
872.785	22809
872.915	23044
873.044	23079
873.173	23083
873.303	23086
873.432	22961
873.561	23086
873.69	23048
873.819	23086
873.948	23113
874.077	23079
874.206	22984
874.335	23113
874.464	23109
874.593	23181
874.722	23189
874.851	23231
874.979	23318
875.108	23280
875.237	23197
875.365	23193
875.494	23079
875.623	23303
875.751	23102
875.88	23185
876.008	23387
876.136	23398
876.265	23630
876.393	23710
876.521	23630
876.65	23767
876.778	23627
876.906	23573
877.034	23493
877.162	23551
877.29	23478
877.418	23459
877.546	23554
877.674	23497
877.802	23531
877.93	23512
878.058	23429
878.185	23467
878.313	23535
878.441	23554
878.568	23509
878.696	23600
878.824	23615
878.951	23707
879.079	23718
879.206	23908
879.333	23707
879.461	23611
879.588	23672
879.715	23794
879.842	23840
879.97	23596
880.097	23493
880.224	23398
880.351	23543
880.478	23429
880.605	23395
880.732	23471
880.859	23672
880.986	23440
881.112	23452
881.239	23261
881.366	23166
881.493	22965
881.619	22957
881.746	22976
881.872	23048
881.999	22961
882.125	22809
882.252	22930
882.378	22949
882.505	22995
882.631	22854
882.757	22683
882.883	22656
883.01	22584
883.136	22519
883.262	22440
883.388	22455
883.514	22675
883.64	22698
883.766	22523
883.892	22390
884.018	22440
884.143	22546
884.269	22668
884.395	22291
884.52	22234
884.646	22265
884.772	22173
884.897	22048
885.023	22280
885.148	22246
885.274	22409
885.399	22280
885.524	22215
885.65	22257
885.775	22223
885.9	22261
886.025	22322
886.15	22325
886.275	22207
886.4	22086
886.525	22169
886.65	22032
886.775	22139
886.9	22196
887.025	22295
887.149	22207
887.274	22044
887.399	22040
887.523	22036
887.648	21941
887.773	22006
887.897	22082
888.021	22025
888.146	22040
888.27	22040
888.395	22158
888.519	22078
888.643	22040
888.767	22219
888.891	21960
889.015	21842
889.139	21895
889.263	21736
889.387	21899
889.511	22017
889.635	21846
889.759	21781
889.883	21755
890.006	21892
890.13	21819
890.254	21736
890.377	21667
890.501	21515
890.624	21542
890.748	21587
890.871	21386
890.995	21260
891.118	21222
891.241	21264
891.364	21294
891.488	21450
891.611	21336
891.734	21306
891.857	21256
891.98	21431
892.103	21302
892.226	21351
892.349	21241
892.471	21112
892.594	21180
892.717	21241
892.839	21173
892.962	21173
893.085	21237
893.207	21218
893.33	21119
893.452	21154
893.575	21374
893.697	21237
893.819	21294
893.941	21332
894.064	21317
894.186	21150
894.308	21165
894.43	21203
894.552	21363
894.674	21325
894.796	21123
894.918	21180
895.04	21192
895.161	21237
895.283	21249
895.405	21070
895.526	21096
895.648	21157
895.769	21332
895.891	21222
896.012	21230
896.134	21264
896.255	21108
896.376	21150
896.498	21233
896.619	21374
896.74	21161
896.861	21226
896.982	21477
897.103	21679
897.224	21462
897.345	21473
897.466	21370
897.587	21447
897.708	21530
897.828	21405
897.949	21306
898.07	21260
898.19	21329
898.311	21389
898.431	21408
898.552	21294
898.672	21340
898.792	21466
898.913	21336
899.033	21283
899.153	21173
899.273	20979
899.393	21127
899.513	21119
899.633	21116
899.753	21146
899.873	21066
899.993	21233
900.113	21070
900.232	21161
900.352	21089
900.472	20929
900.591	20906
900.711	20899
900.83	20788
900.95	20967
901.069	21032
901.189	20651
901.308	20590
901.427	20473
901.546	20461
901.665	20434
901.784	20484
901.904	20336
902.023	20278
902.141	20035
902.26	20008
902.379	20100
902.498	19894
902.617	19921
902.735	19959
902.854	19925
902.973	19841
903.091	19742
903.21	19609
903.328	19597
903.446	19487
903.565	19518
903.683	19521
903.801	19304
903.919	19297
904.038	19388
904.156	19221
904.274	19240
904.392	19122
904.51	19084
904.627	19141
904.745	19213
904.863	19160
904.981	18817
905.098	18814
905.216	18817
905.334	18935
905.451	18802
905.569	18768
905.686	18810
905.803	18776
905.921	18616
906.038	18665
906.155	18707
906.272	18566
906.389	18502
906.506	18391
906.623	18437
906.74	18376
906.857	18167
906.974	18334
907.091	18350
907.208	18456
907.324	18388
907.441	18254
907.557	18194
907.674	18015
907.79	17965
907.907	17988
908.023	18064
908.139	18102
908.256	17977
908.372	17874
908.488	17946
908.604	17813
908.72	17638
908.836	17737
908.952	17771
909.068	17775
909.184	17870
909.3	17653
909.415	17870
909.531	17779
909.647	17512
909.762	17406
909.878	17554
909.993	17383
910.108	17421
910.224	17471
910.339	17444
910.454	17337
910.57	17265
910.685	17250
910.8	17429
910.915	17402
911.03	17220
911.145	17105
911.259	17056
911.374	17033
911.489	17029
911.604	16919
911.718	16858
911.833	16828
911.947	16733
912.062	16698
912.176	16805
912.291	16869
912.405	16767
912.519	16965
912.633	16968
912.748	16698
912.862	16691
912.976	16660
913.09	16417
913.204	16584
913.318	16596
913.431	16565
913.545	16603
913.659	16733
913.772	16421
913.886	16508
914	16329
914.113	16584
914.226	16451
914.34	16497
914.453	16272
914.566	16363
914.68	16253
914.793	16276
914.906	16063
915.019	15895
915.132	15854
915.245	15903
915.358	15968
915.47	15915
915.583	15915
915.696	15941
915.809	16025
915.921	16036
916.034	15850
916.146	15827
916.259	15819
916.371	15941
916.483	15865
916.595	15865
916.708	15785
916.82	15762
916.932	15743
917.044	15732
917.156	15610
917.268	15606
917.38	15618
917.491	15591
917.603	15557
917.715	15568
917.826	15682
917.938	15530
918.049	15367
918.161	15530
918.272	15690
918.384	15682
918.495	15568
918.606	15344
918.717	15306
918.828	15374
918.939	15283
919.05	15173
919.161	15321
919.272	15112
919.383	15127
919.494	15317
919.604	15401
919.715	15329
919.826	15272
919.936	15230
920.047	15351
920.157	15340
920.267	15488
920.378	15370
920.488	15252
920.598	15447
920.708	15447
920.818	15447
920.928	15420
921.038	15530
921.148	15469
921.258	15230
921.368	15146
921.477	15074
921.587	15176
921.697	14746
921.806	15074
921.916	14883
922.025	14632
922.134	14594
922.244	14549
922.353	14674
922.462	14499
922.571	14427
922.68	14210
922.789	14271
922.898	14309
923.007	14180
923.116	14332
923.224	14218
923.333	14157
923.442	14050
923.55	14096
923.659	14050
923.767	14172
923.876	13978
923.984	14054
924.092	13879
924.201	13986
924.309	14043
924.417	13917
924.525	13830
924.633	13913
924.741	14876
924.849	13769
924.956	13742
925.064	13624
925.172	13620
925.279	13647
925.387	13689
925.494	13685
925.602	13769
925.709	13647
925.816	13590
925.924	13594
926.031	13651
926.138	13594
926.245	13613
926.352	13529
926.459	13609
926.566	13620
926.673	13468
926.779	13403
926.886	13365
926.993	13187
927.099	13202
927.206	13179
927.312	13137
927.419	13149
927.525	13095
927.631	13282
927.737	13061
927.843	13084
927.95	12932
928.056	13004
928.162	13091
928.267	13008
928.373	13689
928.479	13042
928.585	12810
928.69	12924
928.796	13080
928.901	12844
929.007	12658
929.112	12802
929.218	12817
929.323	12757
929.428	12722
929.533	12738
929.638	12604
929.743	12642
929.848	12582
929.953	12719
930.058	12563
930.163	12353
930.267	12407
930.372	12570
930.477	12308
930.581	12593
930.685	12399
930.79	12232
930.894	12346
930.998	12216
931.103	12407
931.207	11939
931.311	11859
931.415	11802
931.519	11505
931.623	11558
