Data from test_V78500241_522.txt Node
Date: Fri Mar 25 15:45:25 CST 2022
User: usil
Spectrometer: V785-0024
Trigger mode: 0
Integration Time (sec): 4.000000E-1
Scans to average: 1
Nonlinearity correction enabled: false
Boxcar width: 0
Storing dark spectrum: false
XAxis mode: Wavelengths
Number of Pixels in Spectrum: 1024
>>>>>Begin Spectral Data<<<<<
801.071	27785
801.214	27637
801.356	27435
801.499	27363
801.641	27374
801.783	27386
801.926	27519
802.068	27355
802.211	27214
802.353	27157
802.496	26956
802.638	26861
802.78	26910
802.923	27036
803.065	26811
803.208	26902
803.35	26998
803.492	27001
803.635	27116
803.777	26990
803.919	27028
804.061	27477
804.204	27184
804.346	27058
804.488	27039
804.63	26982
804.773	27127
804.915	27001
805.057	27306
805.199	27127
805.341	27169
805.483	27214
805.626	27291
805.768	27211
805.91	27165
806.052	27252
806.194	27138
806.336	27283
806.478	27195
806.62	27245
806.762	27329
806.904	27374
807.046	27778
807.188	27614
807.33	27743
807.472	27808
807.614	27656
807.756	27705
807.898	27561
808.04	27405
808.182	27625
808.324	27523
808.465	27481
808.607	27728
808.749	27827
808.891	27945
809.033	28131
809.174	28093
809.316	27895
809.458	27937
809.6	27850
809.741	28055
809.883	28150
810.025	28101
810.166	28150
810.308	28242
810.45	28154
810.591	28063
810.733	27709
810.875	27914
811.016	27857
811.158	27827
811.299	28070
811.441	28116
811.582	28063
811.724	27892
811.865	27869
812.007	27975
812.148	27781
812.29	27922
812.431	27998
812.573	28169
812.714	28360
812.855	28413
812.997	28531
813.138	28622
813.279	28466
813.421	28382
813.562	28352
813.703	28150
813.845	28021
813.986	27739
814.127	27603
814.268	27603
814.41	27534
814.551	27667
814.692	27523
814.833	27458
814.974	27610
815.115	27618
815.256	27367
815.397	27397
815.539	27583
815.68	27408
815.821	27195
815.962	27329
816.103	27431
816.244	27294
816.385	27184
816.526	27169
816.666	27135
816.807	26914
816.948	27093
817.089	26994
817.23	26933
817.371	26906
817.512	26838
817.653	26785
817.793	26712
817.934	26743
818.075	26887
818.216	26834
818.356	26880
818.497	26754
818.638	26636
818.778	26735
818.919	26606
819.06	26765
819.2	26674
819.341	26830
819.481	26754
819.622	26895
819.762	27051
819.903	26952
820.043	27093
820.184	26975
820.324	27001
820.465	26971
820.605	26994
820.746	26937
820.886	26754
821.026	26864
821.167	26914
821.307	27039
821.447	26765
821.588	26716
821.728	26617
821.868	26476
822.008	26305
822.149	26320
822.289	26199
822.429	26077
822.569	25887
822.709	25997
822.849	25993
822.99	25837
823.13	25799
823.27	25746
823.41	25578
823.55	25468
823.69	25575
823.83	25635
823.97	25537
824.11	25460
824.25	25453
824.389	25449
824.529	25510
824.669	25540
824.809	25582
824.949	25468
825.089	25533
825.228	25491
825.368	25304
825.508	25232
825.648	25343
825.787	25411
825.927	25354
826.067	25289
826.206	25240
826.346	25369
826.485	25308
826.625	25247
826.765	25400
826.904	25426
827.044	25114
827.183	25285
827.323	25095
827.462	25015
827.601	25008
827.741	25050
827.88	25004
828.02	24856
828.159	25027
828.298	24932
828.437	25145
828.577	25019
828.716	25088
828.855	24985
828.994	24703
829.134	24711
829.273	24703
829.412	24688
829.551	24627
829.69	24810
829.829	24696
829.968	24798
830.107	24802
830.246	24612
830.385	24627
830.524	24513
830.663	24532
830.802	24525
830.941	24403
831.08	24464
831.219	24365
831.357	24361
831.496	24582
831.635	24399
831.774	24117
831.913	24308
832.051	24292
832.19	24136
832.329	24144
832.467	23984
832.606	24106
832.744	23893
832.883	23908
833.022	23984
833.16	23977
833.299	24003
833.437	24030
833.576	24095
833.714	24011
833.852	24205
833.991	24209
834.129	24106
834.267	24152
834.406	24129
834.544	24076
834.682	24114
834.821	24079
834.959	24125
835.097	23996
835.235	24041
835.373	24152
835.511	24011
835.65	23958
835.788	23843
835.926	23745
836.064	23760
836.202	23745
836.34	23923
836.478	24076
836.615	23798
836.753	23958
836.891	23843
837.029	23954
837.167	23863
837.305	23672
837.443	23775
837.58	23722
837.718	23737
837.856	23786
837.993	23642
838.131	23676
838.269	23509
838.406	23596
838.544	23455
838.681	23337
838.819	23356
838.956	23155
839.094	23162
839.231	23212
839.369	23341
839.506	23531
839.643	23372
839.781	23121
839.918	22991
840.055	23132
840.193	23083
840.33	23223
840.467	23189
840.604	23227
840.742	23512
840.879	23033
841.016	23037
841.153	23014
841.29	23090
841.427	23041
841.564	23075
841.701	23174
841.838	22930
841.975	22869
842.112	22911
842.249	22938
842.385	22881
842.522	23060
842.659	22915
842.796	22713
842.933	22854
843.069	22809
843.206	22630
843.343	22957
843.479	22782
843.616	22866
843.752	22653
843.889	22592
844.025	22797
844.162	22596
844.298	22577
844.435	22607
844.571	22626
844.708	22683
844.844	22828
844.98	22889
845.117	22672
845.253	22580
845.389	22542
845.525	22508
845.661	22455
845.798	22432
845.934	22409
846.07	22367
846.206	22508
846.342	22474
846.478	22348
846.614	22150
846.75	22093
846.886	22147
847.022	22166
847.158	22086
847.294	22169
847.429	22032
847.565	22036
847.701	22344
847.837	21842
847.972	21827
848.108	21812
848.244	21911
848.379	21694
848.515	21538
848.65	21675
848.786	21720
848.921	21720
849.057	21793
849.192	21720
849.328	21739
849.463	21694
849.598	21660
849.734	21580
849.869	21538
850.004	21564
850.14	21481
850.275	21454
850.41	21359
850.545	21435
850.68	21382
850.815	21363
850.95	21408
851.085	21538
851.22	21500
851.355	21389
851.49	21412
851.625	21458
851.76	21466
851.895	21279
852.03	21302
852.165	21466
852.299	21542
852.434	21580
852.569	21408
852.703	21447
852.838	21492
852.973	21603
853.107	21515
853.242	21469
853.376	21317
853.511	21070
853.645	21256
853.78	21412
853.914	21264
854.048	21336
854.183	21161
854.317	21287
854.451	21458
854.585	21233
854.72	21302
854.854	21386
854.988	21214
855.122	21260
855.256	21180
855.39	21226
855.524	21363
855.658	21321
855.792	21287
855.926	21340
856.06	21264
856.194	21298
856.327	21268
856.461	21176
856.595	21195
856.729	21348
856.862	21321
856.996	21310
857.13	21249
857.263	21408
857.397	21363
857.53	21214
857.664	21340
857.797	21370
857.931	21355
858.064	21313
858.197	21378
858.331	21165
858.464	21252
858.597	21184
858.731	21211
858.864	21279
858.997	21184
859.13	21260
859.263	21321
859.396	21294
859.529	21135
859.662	21283
859.795	21222
859.928	21306
860.061	21466
860.194	21344
860.327	21142
860.46	21325
860.592	21313
860.725	21530
860.858	21420
860.99	21256
861.123	21226
861.256	21302
861.388	21348
861.521	21918
861.653	21180
861.786	20952
861.918	21108
862.05	21165
862.183	21203
862.315	21252
862.447	21317
862.58	21252
862.712	20960
862.844	20975
862.976	21013
863.108	21077
863.24	21595
863.372	20918
863.504	20971
863.636	21085
863.768	21047
863.9	20914
864.032	20864
864.164	20990
864.296	21043
864.428	21051
864.559	21047
864.691	20979
864.823	21013
864.954	20891
865.086	20876
865.217	20842
865.349	20876
865.48	20906
865.612	20853
865.743	20941
865.875	20975
866.006	20746
866.137	20906
866.269	20830
866.4	20712
866.531	20765
866.662	20674
866.793	20769
866.924	20830
867.055	20895
867.186	20845
867.317	20663
867.448	20682
867.579	20731
867.71	20758
867.841	20701
867.972	20731
868.103	20769
868.233	20769
868.364	20765
868.495	20845
868.625	20990
868.756	21089
868.886	21047
869.017	21081
869.147	21062
869.278	21173
869.408	21055
869.539	20986
869.669	21184
869.799	21093
869.929	21245
870.06	21214
870.19	21348
870.32	21367
870.45	21382
870.58	21458
870.71	21603
870.84	21488
870.97	21545
871.1	21344
871.23	21606
871.36	21637
871.489	21504
871.619	21671
871.749	21698
871.879	21728
872.008	21720
872.138	21564
872.267	21656
872.397	21564
872.526	21462
872.656	21477
872.785	21367
872.915	21603
873.044	21778
873.173	21580
873.303	21675
873.432	21751
873.561	21667
873.69	21751
873.819	21785
873.948	21728
874.077	21732
874.206	21637
874.335	21671
874.464	21774
874.593	21907
874.722	21880
874.851	21949
874.979	22025
875.108	21991
875.237	21884
875.365	21812
875.494	21812
875.623	21915
875.751	21831
875.88	21918
876.008	22090
876.136	22131
876.265	22329
876.393	22409
876.521	22386
876.65	22394
876.778	22417
876.906	22226
877.034	22135
877.162	22162
877.29	22249
877.418	22375
877.546	22310
877.674	22200
877.802	22234
877.93	22226
878.058	22158
878.185	22246
878.313	22173
878.441	22310
878.568	22131
878.696	22253
878.824	22207
878.951	22405
879.079	22466
879.206	22561
879.333	22436
879.461	22196
879.588	22478
879.715	22459
879.842	22561
879.97	22325
880.097	22013
880.224	22093
880.351	22025
880.478	22048
880.605	22070
880.732	22112
880.859	22333
880.986	22192
881.112	22116
881.239	21907
881.366	21838
881.493	21789
881.619	21599
881.746	21686
881.872	21629
881.999	21568
882.125	21614
882.252	21698
882.378	21705
882.505	21724
882.631	21488
882.757	21397
882.883	21466
883.01	21416
883.136	21176
883.262	21085
883.388	21146
883.514	21351
883.64	21294
883.766	21226
883.892	21135
884.018	21161
884.143	21252
884.269	21370
884.395	20975
884.52	20998
884.646	20982
884.772	20994
884.897	20910
885.023	20948
885.148	21024
885.274	21051
885.399	21123
885.524	21039
885.65	21051
885.775	21032
885.9	20986
886.025	21100
886.15	21036
886.275	20975
886.4	20811
886.525	20967
886.65	20887
886.775	20918
886.9	21116
887.025	21150
887.149	20891
887.274	20739
887.399	20800
887.523	20716
887.648	20773
887.773	20655
887.897	20857
888.021	20853
888.146	20659
888.27	20830
888.395	20975
888.519	20819
888.643	20853
888.767	20800
888.891	20705
889.015	20629
889.139	20644
889.263	20495
889.387	20667
889.511	20781
889.635	20682
889.759	20541
889.883	20587
890.006	20518
890.13	20541
890.254	20381
890.377	20469
890.501	20290
890.624	20317
890.748	20355
890.871	20149
890.995	20107
891.118	19989
891.241	20263
891.364	20164
891.488	20214
891.611	20172
891.734	20195
891.857	20073
891.98	20157
892.103	20187
892.226	19989
892.349	20107
892.471	20001
892.594	19978
892.717	20107
892.839	20050
892.962	20183
893.085	20016
893.207	20046
893.33	20062
893.452	20054
893.575	20122
893.697	19989
893.819	20191
893.941	20115
894.064	20153
894.186	19963
894.308	19963
894.43	20016
894.552	20183
894.674	20092
894.796	20035
894.918	19963
895.04	20008
895.161	19997
895.283	20103
895.405	20016
895.526	20111
895.648	19913
895.769	20031
895.891	20088
896.012	20081
896.134	20046
896.255	20122
896.376	20012
896.498	19967
896.619	20183
896.74	20024
896.861	20233
896.982	20351
897.103	20495
897.224	20278
897.345	20343
897.466	20176
897.587	20336
897.708	20476
897.828	20332
897.949	20218
898.07	20210
898.19	20183
898.311	20282
898.431	20172
898.552	20199
898.672	20320
898.792	20408
898.913	20240
899.033	20233
899.153	20073
899.273	19890
899.393	20039
899.513	20062
899.633	20020
899.753	20001
899.873	19978
899.993	19993
900.113	20035
900.232	19909
900.352	19936
900.472	19833
900.591	19845
900.711	19734
900.83	19738
900.95	20012
901.069	19906
901.189	19677
901.308	19460
901.427	19350
901.546	19422
901.665	19491
901.784	19457
901.904	19236
902.023	19080
902.141	18989
902.26	18935
902.379	19046
902.498	18970
902.617	18878
902.735	18798
902.854	18840
902.973	18882
903.091	18696
903.21	18547
903.328	18589
903.446	18559
903.565	18346
903.683	18365
903.801	18311
903.919	18319
904.038	18194
904.156	18098
904.274	18213
904.392	18144
904.51	18117
904.627	18117
904.745	18076
904.863	18129
904.981	17885
905.098	17863
905.216	17840
905.334	17737
905.451	17802
905.569	17771
905.686	17783
905.803	17767
905.921	17596
906.038	17718
906.155	17661
906.272	17482
906.389	17425
906.506	17391
906.623	17417
906.74	17223
906.857	17292
906.974	17299
907.091	17368
907.208	17512
907.324	17356
907.441	17193
907.557	17029
907.674	17071
907.79	16972
907.907	17098
908.023	17098
908.139	16991
908.256	16991
908.372	16892
908.488	16889
908.604	16812
908.72	16713
908.836	16763
908.952	16839
909.068	16873
909.184	16896
909.3	16664
909.415	16866
909.531	16706
909.647	16558
909.762	16504
909.878	16382
909.993	16512
910.108	16508
910.224	16390
910.339	16409
910.454	16257
910.57	16314
910.685	16249
910.8	16519
910.915	16440
911.03	16303
911.145	16105
911.259	16109
911.374	16124
911.489	15994
911.604	15953
911.718	15934
911.833	15808
911.947	15838
912.062	15713
912.176	15884
912.291	15854
912.405	15800
912.519	16162
912.633	16032
912.748	15831
912.862	15747
912.976	15652
913.09	15507
913.204	15599
913.318	15610
913.431	15766
913.545	15701
913.659	15804
913.772	15652
913.886	15458
914	15420
914.113	15473
914.226	15671
914.34	15454
914.453	15351
914.566	15431
914.68	15466
914.793	15241
914.906	15135
915.019	15039
915.132	15005
915.245	15028
915.358	15169
915.47	15138
915.583	14967
915.696	15013
915.809	15100
915.921	15104
916.034	14918
916.146	14986
916.259	15020
916.371	14998
916.483	15085
916.595	14880
916.708	14868
916.82	14861
916.932	14853
917.044	14902
917.156	14785
917.268	14712
917.38	14792
917.491	14727
917.603	14735
917.715	14750
917.826	14777
917.938	14598
918.049	14484
918.161	14682
918.272	14857
918.384	14697
918.495	14682
918.606	14533
918.717	14549
918.828	14507
918.939	14514
919.05	14320
919.161	14507
919.272	14233
919.383	14263
919.494	14438
919.604	14708
919.715	14427
919.826	14366
919.936	14438
920.047	14549
920.157	14408
920.267	14556
920.378	14473
920.488	14431
920.598	14606
920.708	14754
920.818	14537
920.928	14492
921.038	14636
921.148	14663
921.258	14366
921.368	14305
921.477	14180
921.587	14244
921.697	13993
921.806	14199
921.916	13944
922.025	13932
922.134	13696
922.244	13742
922.353	13913
922.462	13696
922.571	13685
922.68	13502
922.789	13502
922.898	13316
923.007	13388
923.116	13487
923.224	13430
923.333	13464
923.442	13316
923.55	13213
923.659	13289
923.767	13324
923.876	13160
923.984	13259
924.092	13225
924.201	13285
924.309	13152
924.417	13228
924.525	13145
924.633	13225
924.741	13784
924.849	13091
924.956	13076
925.064	12913
925.172	12783
925.279	12852
925.387	12840
925.494	12821
925.602	13015
925.709	12833
925.816	12745
925.924	12901
926.031	12985
926.138	12814
926.245	12859
926.352	12749
926.459	12878
926.566	12897
926.673	12757
926.779	12703
926.886	12642
926.993	12403
927.099	12376
927.206	12410
927.312	12426
927.419	12547
927.525	12467
927.631	12471
927.737	12376
927.843	12296
927.95	12163
928.056	12273
928.162	12251
928.267	12323
928.373	12920
928.479	12289
928.585	12079
928.69	12197
928.796	12216
928.901	12136
929.007	11954
929.112	12140
929.218	12068
929.323	11988
929.428	12026
929.533	12133
929.638	11977
929.743	11935
929.848	11942
929.953	11969
930.058	11851
930.163	11672
930.267	11649
930.372	11851
930.477	11661
930.581	11855
930.685	11714
930.79	11573
930.894	11589
930.998	11535
931.103	11604
931.207	11349
931.311	11189
931.415	11155
931.519	10980
931.623	10885
