Data from test_V78500241_3002.txt Node
Date: Fri Mar 25 16:02:35 CST 2022
User: usil
Spectrometer: V785-0024
Trigger mode: 0
Integration Time (sec): 4.000000E-1
Scans to average: 1
Nonlinearity correction enabled: false
Boxcar width: 0
Storing dark spectrum: false
XAxis mode: Wavelengths
Number of Pixels in Spectrum: 1024
>>>>>Begin Spectral Data<<<<<
801.071	28725
801.214	28653
801.356	28497
801.499	28443
801.641	28348
801.783	28230
801.926	28322
802.068	28318
802.211	28299
802.353	28131
802.496	28169
802.638	28082
802.78	28078
802.923	27987
803.065	27930
803.208	28013
803.35	28013
803.492	28147
803.635	28276
803.777	28226
803.919	28177
804.061	28516
804.204	28489
804.346	28200
804.488	28276
804.63	28177
804.773	28287
804.915	28382
805.057	28493
805.199	28306
805.341	28371
805.483	28466
805.626	28485
805.768	28287
805.91	28459
806.052	28470
806.194	28401
806.336	28721
806.478	28394
806.62	28291
806.762	28554
806.904	28687
807.046	28991
807.188	28968
807.33	28850
807.472	28847
807.614	28930
807.756	28923
807.898	28713
808.04	28668
808.182	28668
808.324	28778
808.465	28858
808.607	28995
808.749	29197
808.891	29140
809.033	29227
809.174	29250
809.316	29166
809.458	29079
809.6	29094
809.741	29117
809.883	29216
810.025	29509
810.166	29551
810.308	29585
810.45	29448
810.591	29227
810.733	29189
810.875	29239
811.016	29136
811.158	29128
811.299	29296
811.441	29345
811.582	29326
811.724	29044
811.865	29189
812.007	29189
812.148	29022
812.29	29254
812.431	29299
812.573	29417
812.714	29600
812.855	29756
812.997	29870
813.138	29840
813.279	29733
813.421	29687
813.562	29619
813.703	29570
813.845	29379
813.986	28942
814.127	29041
814.268	28908
814.41	28923
814.551	28801
814.692	28942
814.833	28782
814.974	28721
815.115	28877
815.256	28599
815.397	28607
815.539	28687
815.68	28729
815.821	28603
815.962	28675
816.103	28691
816.244	28557
816.385	28409
816.526	28512
816.666	28341
816.807	28230
816.948	28158
817.089	28261
817.23	28287
817.371	28158
817.512	28261
817.653	28166
817.793	28177
817.934	28090
818.075	28230
818.216	28131
818.356	28181
818.497	28059
818.638	28002
818.778	27972
818.919	27987
819.06	28017
819.2	28048
819.341	28200
819.481	28249
819.622	28223
819.762	28535
819.903	28493
820.043	28348
820.184	28265
820.324	28310
820.465	28428
820.605	28303
820.746	28268
820.886	28185
821.026	28329
821.167	28139
821.307	28287
821.447	28207
821.588	28131
821.728	27998
821.868	27774
822.008	27705
822.149	27778
822.289	27671
822.429	27481
822.569	27393
822.709	27279
822.849	27157
822.99	27211
823.13	27146
823.27	27028
823.41	27028
823.55	27005
823.69	27062
823.83	26979
823.97	26956
824.11	26712
824.25	26769
824.389	26811
824.529	26986
824.669	26796
824.809	26891
824.949	26876
825.089	26883
825.228	26998
825.368	26693
825.508	26712
825.648	26701
825.787	26727
825.927	26834
826.067	26663
826.206	26777
826.346	26762
826.485	26864
826.625	26644
826.765	26876
826.904	26739
827.044	26484
827.183	26465
827.323	26480
827.462	26541
827.601	26514
827.741	26412
827.88	26438
828.02	26362
828.159	26351
828.298	26473
828.437	26389
828.577	26404
828.716	26511
828.855	26370
828.994	26084
829.134	26149
829.273	26252
829.412	25986
829.551	26046
829.69	26092
829.829	26073
829.968	26259
830.107	26214
830.246	26084
830.385	26043
830.524	26035
830.663	25928
830.802	25860
830.941	25795
831.08	25746
831.219	25841
831.357	25727
831.496	25940
831.635	25753
831.774	25620
831.913	25601
832.051	25544
832.19	25514
832.329	25495
832.467	25445
832.606	25312
832.744	25312
832.883	25346
833.022	25438
833.16	25472
833.299	25396
833.437	25521
833.576	25430
833.714	25312
833.852	25449
833.991	25419
834.129	25643
834.267	25476
834.406	25537
834.544	25358
834.682	25502
834.821	25400
834.959	25666
835.097	25434
835.235	25510
835.373	25460
835.511	25506
835.65	25209
835.788	25365
835.926	25232
836.064	25053
836.202	25148
836.34	25164
836.478	25335
836.615	25213
836.753	25354
836.891	25335
837.029	25362
837.167	25278
837.305	25251
837.443	25194
837.58	25217
837.718	25110
837.856	25179
837.993	25110
838.131	25088
838.269	24996
838.406	24977
838.544	24837
838.681	24700
838.819	24642
838.956	24555
839.094	24608
839.231	24574
839.369	24814
839.506	24966
839.643	24890
839.781	24646
839.918	24502
840.055	24635
840.193	24391
840.33	24540
840.467	24486
840.604	24490
840.742	24722
840.879	24384
841.016	24426
841.153	24407
841.29	24509
841.427	24517
841.564	24448
841.701	24376
841.838	24509
841.975	24315
842.112	24441
842.249	24365
842.385	24205
842.522	24585
842.659	24308
842.796	24216
842.933	24350
843.069	24106
843.206	24228
843.343	24285
843.479	24247
843.616	24247
843.752	23973
843.889	24030
844.025	24152
844.162	24087
844.298	24068
844.435	24030
844.571	24034
844.708	24076
844.844	24171
844.98	24213
845.117	24068
845.253	23912
845.389	23889
845.525	23961
845.661	23859
845.798	23786
845.934	23665
846.07	23794
846.206	23722
846.342	23824
846.478	23695
846.614	23649
846.75	23425
846.886	23497
847.022	23524
847.158	23509
847.294	23531
847.429	23436
847.565	23509
847.701	23676
847.837	23311
847.972	23200
848.108	23322
848.244	23299
848.379	23189
848.515	23098
848.65	22915
848.786	23018
848.921	23102
849.057	23273
849.192	23113
849.328	23064
849.463	23025
849.598	23098
849.734	23064
849.869	22949
850.004	22873
850.14	22908
850.275	22858
850.41	22744
850.545	22713
850.68	22790
850.815	22744
850.95	22854
851.085	22953
851.22	22923
851.355	22862
851.49	22881
851.625	22710
851.76	22660
851.895	22782
852.03	22850
852.165	22854
852.299	22816
852.434	23022
852.569	22843
852.703	22713
852.838	22843
852.973	22923
853.107	22862
853.242	22801
853.376	22656
853.511	22569
853.645	22641
853.78	22660
853.914	22584
854.048	22546
854.183	22470
854.317	22782
854.451	22812
854.585	22702
854.72	22664
854.854	22691
854.988	22596
855.122	22694
855.256	22542
855.39	22653
855.524	22645
855.658	22774
855.792	22653
855.926	22683
856.06	22672
856.194	22755
856.327	22683
856.461	22485
856.595	22771
856.729	22626
856.862	22797
856.996	22523
857.13	22694
857.263	22702
857.397	22843
857.53	22717
857.664	22763
857.797	22729
857.931	22713
858.064	22713
858.197	22744
858.331	22580
858.464	22577
858.597	22531
858.731	22588
858.864	22596
858.997	22809
859.13	22440
859.263	22763
859.396	22672
859.529	22637
859.662	22645
859.795	22542
859.928	22702
860.061	22854
860.194	22793
860.327	22736
860.46	22573
860.592	22763
860.725	22885
860.858	22839
860.99	22717
861.123	22413
861.256	22607
861.388	22645
861.521	23383
861.653	22561
861.786	22459
861.918	22519
862.05	22557
862.183	22485
862.315	22489
862.447	22580
862.58	22588
862.712	22344
862.844	22261
862.976	22428
863.108	22398
863.24	22702
863.372	22379
863.504	22348
863.636	22382
863.768	22344
863.9	22405
864.032	22207
864.164	22272
864.296	22421
864.428	22432
864.559	22413
864.691	22402
864.823	22325
864.954	22276
865.086	22314
865.217	22303
865.349	22257
865.48	22173
865.612	22306
865.743	22405
865.875	22238
866.006	22234
866.137	22276
866.269	22295
866.4	22192
866.531	22211
866.662	22124
866.793	22177
866.924	22246
867.055	22044
867.186	22109
867.317	22082
867.448	22067
867.579	22116
867.71	22181
867.841	22067
867.972	22166
868.103	22162
868.233	22032
868.364	22143
868.495	22371
868.625	22363
868.756	22573
868.886	22360
869.017	22295
869.147	22470
869.278	22519
869.408	22447
869.539	22325
869.669	22390
869.799	22470
869.929	22500
870.06	22455
870.19	22580
870.32	22679
870.45	22668
870.58	22778
870.71	22915
870.84	22816
870.97	22801
871.1	22774
871.23	22927
871.36	23098
871.489	22881
871.619	22949
871.749	22965
871.879	23090
872.008	23132
872.138	23064
872.267	22972
872.397	22938
872.526	22771
872.656	22805
872.785	22793
872.915	23048
873.044	23025
873.173	23178
873.303	23105
873.432	23151
873.561	23113
873.69	23113
873.819	23029
873.948	23083
874.077	23041
874.206	22908
874.335	23014
874.464	23113
874.593	23254
874.722	23337
874.851	23265
874.979	23216
875.108	23227
875.237	23307
875.365	23037
875.494	23208
875.623	23216
875.751	23223
875.88	23269
876.008	23242
876.136	23379
876.265	23596
876.393	23745
876.521	23630
876.65	23764
876.778	23687
876.906	23585
877.034	23539
877.162	23531
877.29	23509
877.418	23729
877.546	23535
877.674	23505
877.802	23528
877.93	23596
878.058	23554
878.185	23379
878.313	23459
878.441	23467
878.568	23269
878.696	23562
878.824	23501
878.951	23672
879.079	23760
879.206	23851
879.333	23589
879.461	23535
879.588	23741
879.715	23611
879.842	23847
879.97	23703
880.097	23429
880.224	23296
880.351	23433
880.478	23406
880.605	23425
880.732	23322
880.859	23661
880.986	23292
881.112	23353
881.239	23307
881.366	23128
881.493	23105
881.619	22923
881.746	23010
881.872	22972
881.999	22835
882.125	22786
882.252	22854
882.378	22843
882.505	23037
882.631	22744
882.757	22664
882.883	22767
883.01	22698
883.136	22630
883.262	22546
883.388	22470
883.514	22615
883.64	22767
883.766	22660
883.892	22413
884.018	22280
884.143	22584
884.269	22641
884.395	22291
884.52	22223
884.646	22371
884.772	22299
884.897	22105
885.023	22314
885.148	22318
885.274	22417
885.399	22249
885.524	22333
885.65	22097
885.775	22196
885.9	22280
886.025	22459
886.15	22382
886.275	22158
886.4	22158
886.525	22219
886.65	22139
886.775	22105
886.9	22375
887.025	22424
887.149	22154
887.274	22147
887.399	22029
887.523	21953
887.648	22029
887.773	21964
887.897	22006
888.021	22200
888.146	21937
888.27	22074
888.395	22150
888.519	21979
888.643	22021
888.767	22154
888.891	21835
889.015	21865
889.139	21918
889.263	21762
889.387	21812
889.511	22040
889.635	21915
889.759	21652
889.883	21869
890.006	21732
890.13	21861
890.254	21694
890.377	21854
890.501	21519
890.624	21545
890.748	21572
890.871	21477
890.995	21382
891.118	21302
891.241	21294
891.364	21294
891.488	21481
891.611	21291
891.734	21359
891.857	21428
891.98	21370
892.103	21370
892.226	21249
892.349	21321
892.471	21230
892.594	21283
892.717	21344
892.839	21176
892.962	21127
893.085	21287
893.207	21230
893.33	21249
893.452	21157
893.575	21150
893.697	21233
893.819	21359
893.941	21340
894.064	21233
894.186	21108
894.308	21272
894.43	21302
894.552	21336
894.674	21245
894.796	21077
894.918	21173
895.04	21142
895.161	21291
895.283	21222
895.405	21116
895.526	21176
895.648	21161
895.769	21233
895.891	21138
896.012	21275
896.134	21351
896.255	21230
896.376	21165
896.498	21135
896.619	21195
896.74	21329
896.861	21173
896.982	21553
897.103	21576
897.224	21420
897.345	21340
897.466	21336
897.587	21367
897.708	21511
897.828	21466
897.949	21294
898.07	21283
898.19	21378
898.311	21572
898.431	21291
898.552	21428
898.672	21389
898.792	21458
898.913	21351
899.033	21127
899.153	21260
899.273	21047
899.393	21081
899.513	21138
899.633	21039
899.753	21138
899.873	21024
899.993	21382
900.113	21096
900.232	21043
900.352	21017
900.472	20948
900.591	20929
900.711	20891
900.83	20952
900.95	20971
901.069	21005
901.189	20743
901.308	20598
901.427	20556
901.546	20526
901.665	20400
901.784	20454
901.904	20267
902.023	20282
902.141	20103
902.26	19909
902.379	20069
902.498	19989
902.617	19986
902.735	19982
902.854	19963
902.973	19803
903.091	19670
903.21	19643
903.328	19624
903.446	19510
903.565	19411
903.683	19419
903.801	19365
903.919	19464
904.038	19384
904.156	19221
904.274	19221
904.392	19156
904.51	19126
904.627	19179
904.745	19198
904.863	19221
904.981	18989
905.098	18772
905.216	18867
905.334	18951
905.451	18875
905.569	18825
905.686	18939
905.803	18863
905.921	18616
906.038	18760
906.155	18642
906.272	18574
906.389	18486
906.506	18429
906.623	18460
906.74	18399
906.857	18201
906.974	18258
907.091	18441
907.208	18490
907.324	18334
907.441	18163
907.557	18163
907.674	18095
907.79	18060
907.907	18083
908.023	18053
908.139	18083
908.256	18060
908.372	17942
908.488	17961
908.604	17817
908.72	17859
908.836	17817
908.952	17748
909.068	17927
909.184	17855
909.3	17779
909.415	17802
909.531	17714
909.647	17505
909.762	17562
909.878	17436
909.993	17482
910.108	17444
910.224	17406
910.339	17410
910.454	17280
910.57	17307
910.685	17208
910.8	17471
910.915	17452
911.03	17220
911.145	17162
911.259	17117
911.374	17159
911.489	16965
911.604	16835
911.718	16873
911.833	16816
911.947	16771
912.062	16767
912.176	16706
912.291	16976
912.405	16744
912.519	17006
912.633	17022
912.748	16862
912.862	16900
912.976	16584
913.09	16489
913.204	16519
913.318	16569
913.431	16675
913.545	16668
913.659	16653
913.772	16474
913.886	16516
914	16261
914.113	16474
914.226	16630
914.34	16413
914.453	16196
914.566	16436
914.68	16291
914.793	16284
914.906	16154
915.019	16112
915.132	15968
915.245	16090
915.358	15987
915.47	16021
915.583	16006
915.696	15960
915.809	15975
915.921	16036
916.034	15979
916.146	15869
916.259	15911
916.371	15930
916.483	15956
916.595	15865
916.708	15789
916.82	15804
916.932	15698
917.044	15724
917.156	15774
917.268	15622
917.38	15625
917.491	15606
917.603	15610
917.715	15679
917.826	15732
917.938	15466
918.049	15420
918.161	15473
918.272	15667
918.384	15663
918.495	15515
918.606	15325
918.717	15325
918.828	15252
918.939	15340
919.05	15237
919.161	15348
919.272	15184
919.383	15138
919.494	15287
919.604	15542
919.715	15272
919.826	15188
919.936	15203
920.047	15412
920.157	15249
920.267	15492
920.378	15260
920.488	15310
920.598	15462
920.708	15553
920.818	15298
920.928	15370
921.038	15591
921.148	15576
921.258	15249
921.368	15055
921.477	15020
921.587	15017
921.697	14849
921.806	14956
921.916	14815
922.025	14716
922.134	14670
922.244	14537
922.353	14667
922.462	14503
922.571	14396
922.68	14389
922.789	14290
922.898	14336
923.007	14301
923.116	14218
923.224	14309
923.333	14290
923.442	14096
923.55	14096
923.659	14172
923.767	14210
923.876	13982
923.984	14065
924.092	14012
924.201	14027
924.309	14039
924.417	13951
924.525	13845
924.633	13967
924.741	14689
924.849	13738
924.956	13902
925.064	13696
925.172	13571
925.279	13689
925.387	13746
925.494	13677
925.602	13791
925.709	13681
925.816	13571
925.924	13628
926.031	13666
926.138	13651
926.245	13685
926.352	13510
926.459	13704
926.566	13662
926.673	13491
926.779	13396
926.886	13453
926.993	13244
927.099	13297
927.206	13099
927.312	13156
927.419	13206
927.525	13187
927.631	13274
927.737	13213
927.843	13034
927.95	12890
928.056	13031
928.162	12973
928.267	13031
928.373	13620
928.479	13065
928.585	12825
928.69	12916
928.796	12962
928.901	12882
929.007	12760
929.112	12863
929.218	12722
929.323	12692
929.428	12654
929.533	12863
929.638	12646
929.743	12665
929.848	12730
929.953	12738
930.058	12513
930.163	12338
930.267	12346
930.372	12486
930.477	12376
930.581	12521
930.685	12384
930.79	12228
930.894	12163
930.998	12194
931.103	12361
931.207	11969
931.311	11935
931.415	11832
931.519	11646
931.623	11672
