Data from test_V78500241_3189.txt Node
Date: Fri Mar 25 16:03:53 CST 2022
User: usil
Spectrometer: V785-0024
Trigger mode: 0
Integration Time (sec): 4.000000E-1
Scans to average: 1
Nonlinearity correction enabled: false
Boxcar width: 0
Storing dark spectrum: false
XAxis mode: Wavelengths
Number of Pixels in Spectrum: 1024
>>>>>Begin Spectral Data<<<<<
801.071	28626
801.214	28341
801.356	28150
801.499	28162
801.641	28070
801.783	28097
801.926	28124
802.068	27934
802.211	27945
802.353	27888
802.496	27876
802.638	27732
802.78	27720
802.923	27576
803.065	27481
803.208	27606
803.35	27599
803.492	27865
803.635	27914
803.777	27819
803.919	27892
804.061	28226
804.204	28086
804.346	27926
804.488	27972
804.63	27888
804.773	27823
804.915	28173
805.057	28097
805.199	28002
805.341	28044
805.483	28158
805.626	27975
805.768	27956
805.91	28093
806.052	28067
806.194	28025
806.336	28173
806.478	28070
806.62	28036
806.762	28295
806.904	28413
807.046	28653
807.188	28557
807.33	28641
807.472	28755
807.614	28409
807.756	28436
807.898	28527
808.04	28234
808.182	28371
808.324	28295
808.465	28432
808.607	28641
808.749	28748
808.891	28812
809.033	28809
809.174	28713
809.316	28812
809.458	28759
809.6	28782
809.741	28888
809.883	28854
810.025	28927
810.166	29067
810.308	29094
810.45	28980
810.591	28862
810.733	28850
810.875	28812
811.016	28698
811.158	28649
811.299	28949
811.441	28919
811.582	28908
811.724	28683
811.865	28820
812.007	28763
812.148	28843
812.29	28843
812.431	28942
812.573	29147
812.714	29178
812.855	29254
812.997	29387
813.138	29558
813.279	29330
813.421	29204
813.562	29280
813.703	29044
813.845	28900
813.986	28733
814.127	28512
814.268	28401
814.41	28421
814.551	28265
814.692	28611
814.833	28226
814.974	28329
815.115	28428
815.256	28478
815.397	28310
815.539	28500
815.68	28238
815.821	28238
815.962	28337
816.103	28112
816.244	28192
816.385	28150
816.526	28010
816.666	27842
816.807	27709
816.948	27865
817.089	27922
817.23	27736
817.371	27831
817.512	27732
817.653	27819
817.793	27793
817.934	27778
818.075	27823
818.216	27705
818.356	27812
818.497	27667
818.638	27485
818.778	27488
818.919	27515
819.06	27618
819.2	27549
819.341	27865
819.481	27774
819.622	27857
819.762	28124
819.903	28101
820.043	28150
820.184	27945
820.324	27960
820.465	27964
820.605	27778
820.746	27964
820.886	27762
821.026	27861
821.167	27873
821.307	27926
821.447	27865
821.588	27648
821.728	27606
821.868	27435
822.008	27329
822.149	27294
822.289	27211
822.429	26948
822.569	26960
822.709	26929
822.849	26743
822.99	26982
823.13	26781
823.27	26701
823.41	26549
823.55	26492
823.69	26655
823.83	26629
823.97	26629
824.11	26377
824.25	26275
824.389	26206
824.529	26518
824.669	26419
824.809	26549
824.949	26549
825.089	26438
825.228	26442
825.368	26336
825.508	26267
825.648	26362
825.787	26271
825.927	26530
826.067	26305
826.206	26263
826.346	26332
826.485	26271
826.625	26263
826.765	26275
826.904	26366
827.044	26111
827.183	26039
827.323	25894
827.462	25944
827.601	26024
827.741	26092
827.88	25974
828.02	25978
828.159	25989
828.298	25944
828.437	25932
828.577	25925
828.716	26043
828.855	25955
828.994	25731
829.134	25830
829.273	25761
829.412	25651
829.551	25639
829.69	25658
829.829	25620
829.968	25799
830.107	25689
830.246	25628
830.385	25616
830.524	25750
830.663	25502
830.802	25384
830.941	25221
831.08	25247
831.219	25453
831.357	25449
831.496	25495
831.635	25282
831.774	25282
831.913	25080
832.051	24992
832.19	25114
832.329	25156
832.467	25103
832.606	25038
832.744	24924
832.883	24848
833.022	25050
833.16	24913
833.299	25065
833.437	24954
833.576	25084
833.714	24962
833.852	25145
833.991	24970
834.129	25194
834.267	25164
834.406	25091
834.544	25080
834.682	25008
834.821	25004
834.959	25183
835.097	24848
835.235	25046
835.373	25000
835.511	25012
835.65	25015
835.788	24890
835.926	24665
836.064	24673
836.202	24661
836.34	24856
836.478	24913
836.615	24928
836.753	24852
836.891	24814
837.029	24867
837.167	24894
837.305	24867
837.443	24764
837.58	24719
837.718	24719
837.856	24715
837.993	24730
838.131	24696
838.269	24601
838.406	24658
838.544	24589
838.681	24251
838.819	24213
838.956	24121
839.094	24171
839.231	24216
839.369	24296
839.506	24494
839.643	24369
839.781	24148
839.918	24079
840.055	24159
840.193	24015
840.33	23965
840.467	24106
840.604	24045
840.742	24285
840.879	23809
841.016	24064
841.153	23992
841.29	24030
841.427	24121
841.564	24079
841.701	24117
841.838	24114
841.975	23977
842.112	23961
842.249	23908
842.385	23828
842.522	24171
842.659	23859
842.796	23767
842.933	23946
843.069	23767
843.206	23851
843.343	23859
843.479	23939
843.616	23817
843.752	23615
843.889	23718
844.025	23771
844.162	23627
844.298	23585
844.435	23676
844.571	23566
844.708	23589
844.844	23737
844.98	23847
845.117	23737
845.253	23493
845.389	23490
845.525	23539
845.661	23444
845.798	23322
845.934	23307
846.07	23299
846.206	23372
846.342	23482
846.478	23242
846.614	23083
846.75	23075
846.886	23086
847.022	23064
847.158	23117
847.294	23254
847.429	23003
847.565	23102
847.701	23147
847.837	22778
847.972	22736
848.108	22957
848.244	22828
848.379	22755
848.515	22713
848.65	22569
848.786	22786
848.921	22653
849.057	22672
849.192	22812
849.328	22656
849.463	22679
849.598	22538
849.734	22592
849.869	22466
850.004	22356
850.14	22348
850.275	22447
850.41	22382
850.545	22306
850.68	22325
850.815	22497
850.95	22333
851.085	22569
851.22	22603
851.355	22478
851.49	22348
851.625	22344
851.76	22428
851.895	22386
852.03	22405
852.165	22462
852.299	22462
852.434	22485
852.569	22527
852.703	22421
852.838	22402
852.973	22500
853.107	22493
853.242	22329
853.376	22299
853.511	22109
853.645	22150
853.78	22394
853.914	22295
854.048	22249
854.183	22234
854.317	22287
854.451	22386
854.585	22261
854.72	22284
854.854	22318
854.988	22139
855.122	22303
855.256	22044
855.39	22287
855.524	22440
855.658	22360
855.792	22204
855.926	22276
856.06	22246
856.194	22287
856.327	22310
856.461	22261
856.595	22268
856.729	22173
856.862	22367
856.996	22333
857.13	22371
857.263	22402
857.397	22299
857.53	22226
857.664	22474
857.797	22276
857.931	22284
858.064	22169
858.197	22352
858.331	22204
858.464	22101
858.597	22082
858.731	22169
858.864	22246
858.997	22131
859.13	22314
859.263	22287
859.396	22333
859.529	22166
859.662	22162
859.795	22299
859.928	22211
860.061	22398
860.194	22371
860.327	22131
860.46	22223
860.592	22204
860.725	22417
860.858	22295
860.99	22257
861.123	22192
861.256	22059
861.388	22169
861.521	23029
861.653	22101
861.786	21975
861.918	22128
862.05	22177
862.183	22181
862.315	22112
862.447	22192
862.58	22109
862.712	22013
862.844	21956
862.976	22013
863.108	22048
863.24	22284
863.372	21918
863.504	21880
863.636	22002
863.768	21915
863.9	21960
864.032	21861
864.164	21850
864.296	21895
864.428	22002
864.559	22063
864.691	22017
864.823	21895
864.954	21983
865.086	21922
865.217	21857
865.349	21743
865.48	21922
865.612	21819
865.743	21945
865.875	21857
866.006	21739
866.137	21766
866.269	21857
866.4	21789
866.531	21789
866.662	21804
866.793	21717
866.924	21846
867.055	21835
867.186	21743
867.317	21724
867.448	21698
867.579	21751
867.71	21709
867.841	21747
867.972	21660
868.103	21857
868.233	21926
868.364	21739
868.495	21876
868.625	21987
868.756	22025
868.886	21895
869.017	22013
869.147	21994
869.278	22051
869.408	21972
869.539	22124
869.669	22055
869.799	21998
869.929	22086
870.06	22032
870.19	22325
870.32	22329
870.45	22299
870.58	22474
870.71	22451
870.84	22443
870.97	22417
871.1	22409
871.23	22736
871.36	22554
871.489	22421
871.619	22596
871.749	22550
871.879	22573
872.008	22645
872.138	22630
872.267	22645
872.397	22474
872.526	22402
872.656	22360
872.785	22402
872.915	22660
873.044	22675
873.173	22660
873.303	22611
873.432	22736
873.561	22645
873.69	22706
873.819	22538
873.948	22713
874.077	22588
874.206	22626
874.335	22603
874.464	22755
874.593	22850
874.722	22790
874.851	23003
874.979	22885
875.108	22824
875.237	22755
875.365	22691
875.494	22828
875.623	22892
875.751	22767
875.88	22866
876.008	22908
876.136	23124
876.265	23280
876.393	23284
876.521	23326
876.65	23273
876.778	23299
876.906	23284
877.034	23132
877.162	23174
877.29	23124
877.418	23242
877.546	23208
877.674	23208
877.802	23220
877.93	23086
878.058	23140
878.185	22995
878.313	23124
878.441	23143
878.568	23029
878.696	23044
878.824	23079
878.951	23185
879.079	23303
879.206	23547
879.333	23398
879.461	23143
879.588	23269
879.715	23326
879.842	23463
879.97	23379
880.097	23041
880.224	23044
880.351	22949
880.478	23029
880.605	22930
880.732	22995
880.859	23174
880.986	22946
881.112	23041
881.239	22805
881.366	22706
881.493	22653
881.619	22607
881.746	22561
881.872	22504
881.999	22500
882.125	22607
882.252	22550
882.378	22603
882.505	22611
882.631	22303
882.757	22181
882.883	22394
883.01	22306
883.136	22185
883.262	22162
883.388	22029
883.514	22344
883.64	22211
883.766	22177
883.892	22040
884.018	22101
884.143	22207
884.269	22230
884.395	22051
884.52	21857
884.646	21934
884.772	21732
884.897	21739
885.023	21842
885.148	21975
885.274	22048
885.399	21949
885.524	21895
885.65	21827
885.775	21869
885.9	21895
886.025	21812
886.15	21873
886.275	21888
886.4	21865
886.525	21869
886.65	21705
886.775	21789
886.9	21991
887.025	22086
887.149	21892
887.274	21679
887.399	21591
887.523	21606
887.648	21542
887.773	21587
887.897	21660
888.021	21648
888.146	21682
888.27	21698
888.395	21705
888.519	21747
888.643	21625
888.767	21701
888.891	21557
889.015	21595
889.139	21405
889.263	21481
889.387	21485
889.511	21656
889.635	21637
889.759	21443
889.883	21389
890.006	21393
890.13	21458
890.254	21287
890.377	21393
890.501	21157
890.624	21192
890.748	21249
890.871	21104
890.995	20960
891.118	21066
891.241	20979
891.364	21017
891.488	21100
891.611	20986
891.734	20857
891.857	21089
891.98	20994
892.103	21013
892.226	20921
892.349	20960
892.471	20823
892.594	20937
892.717	20979
892.839	20861
892.962	20948
893.085	20910
893.207	20735
893.33	20686
893.452	20830
893.575	20880
893.697	20811
893.819	21135
893.941	21028
894.064	21028
894.186	20762
894.308	20834
894.43	20941
894.552	21058
894.674	20895
894.796	20785
894.918	20807
895.04	20925
895.161	20933
895.283	20872
895.405	20788
895.526	20887
895.648	20815
895.769	20899
895.891	20910
896.012	20960
896.134	20998
896.255	20777
896.376	20781
896.498	20842
896.619	20944
896.74	20838
896.861	20979
896.982	21093
897.103	21332
897.224	21161
897.345	21005
897.466	21001
897.587	21032
897.708	21180
897.828	21070
897.949	21013
898.07	20899
898.19	21028
898.311	21214
898.431	20963
898.552	21192
898.672	21096
898.792	21074
898.913	20982
899.033	20902
899.153	20891
899.273	20765
899.393	20861
899.513	20834
899.633	20807
899.753	20788
899.873	20575
899.993	20830
900.113	20731
900.232	20777
900.352	20655
900.472	20613
900.591	20446
900.711	20655
900.83	20522
900.95	20598
901.069	20674
901.189	20507
901.308	20210
901.427	20191
901.546	20134
901.665	20161
901.784	20199
901.904	19890
902.023	19902
902.141	19780
902.26	19674
902.379	19723
902.498	19658
902.617	19590
902.735	19788
902.854	19666
902.973	19533
903.091	19350
903.21	19392
903.328	19293
903.446	19263
903.565	19103
903.683	19061
903.801	19042
903.919	19023
904.038	19069
904.156	18958
904.274	18943
904.392	18897
904.51	18779
904.627	18939
904.745	18962
904.863	18863
904.981	18635
905.098	18597
905.216	18479
905.334	18570
905.451	18582
905.569	18486
905.686	18593
905.803	18544
905.921	18292
906.038	18247
906.155	18315
906.272	18186
906.389	18243
906.506	18117
906.623	18057
906.74	18102
906.857	17939
906.974	17999
907.091	18072
907.208	18102
907.324	18083
907.441	17866
907.557	17756
907.674	17745
907.79	17779
907.907	17699
908.023	17851
908.139	17767
908.256	17668
908.372	17642
908.488	17600
908.604	17634
908.72	17474
908.836	17410
908.952	17448
909.068	17589
909.184	17577
909.3	17562
909.415	17566
909.531	17505
909.647	17265
909.762	17303
909.878	17041
909.993	17220
910.108	17189
910.224	17090
910.339	17128
910.454	16915
910.57	16972
910.685	16873
910.8	17124
910.915	17083
911.03	16915
911.145	16858
911.259	16698
911.374	16710
911.489	16702
911.604	16660
911.718	16554
911.833	16375
911.947	16474
912.062	16276
912.176	16485
912.291	16573
912.405	16504
912.519	16691
912.633	16611
912.748	16558
912.862	16455
912.976	16314
913.09	16238
913.204	16303
913.318	16268
913.431	16382
913.545	16459
913.659	16348
913.772	16272
913.886	16124
914	16215
914.113	16192
914.226	16284
914.34	16215
914.453	16055
914.566	16173
914.68	16048
914.793	15892
914.906	15804
915.019	15743
915.132	15724
915.245	15637
915.358	15686
915.47	15698
915.583	15618
915.696	15660
915.809	15728
915.921	15808
916.034	15648
916.146	15507
916.259	15526
916.371	15671
916.483	15572
916.595	15511
916.708	15553
916.82	15557
916.932	15542
917.044	15454
917.156	15439
917.268	15298
917.38	15317
917.491	15325
917.603	15306
917.715	15439
917.826	15447
917.938	15268
918.049	15093
918.161	15199
918.272	15374
918.384	15424
918.495	15252
918.606	15112
918.717	15097
918.828	15017
918.939	15047
919.05	14971
919.161	15089
919.272	14857
919.383	14849
919.494	15089
919.604	15279
919.715	15017
919.826	14982
919.936	15020
920.047	15161
920.157	15036
920.267	15207
920.378	15039
920.488	14975
920.598	15116
920.708	15317
920.818	15013
920.928	15154
921.038	15256
921.148	15214
921.258	14902
921.368	14895
921.477	14697
921.587	14773
921.697	14663
921.806	14765
921.916	14644
922.025	14473
922.134	14412
922.244	14393
922.353	14355
922.462	14339
922.571	14199
922.68	14092
922.789	14081
922.898	14100
923.007	13970
923.116	14050
923.224	14107
923.333	13970
923.442	13849
923.55	13928
923.659	13898
923.767	13928
923.876	13841
923.984	13890
924.092	13761
924.201	13826
924.309	13822
924.417	13784
924.525	13609
924.633	13628
924.741	14446
924.849	13559
924.956	13685
925.064	13483
925.172	13422
925.279	13369
925.387	13548
925.494	13449
925.602	13620
925.709	13476
925.816	13285
925.924	13339
926.031	13518
926.138	13358
926.245	13377
926.352	13228
926.459	13430
926.566	13419
926.673	13297
926.779	13107
926.886	13190
926.993	12977
927.099	12928
927.206	12932
927.312	12935
927.419	12989
927.525	12993
927.631	13088
927.737	12875
927.843	12825
927.95	12711
928.056	12749
928.162	12707
928.267	12859
928.373	13270
928.479	12833
928.585	12574
928.69	12688
928.796	12768
928.901	12612
929.007	12460
929.112	12677
929.218	12574
929.323	12525
929.428	12475
929.533	12563
929.638	12384
929.743	12338
929.848	12559
929.953	12483
930.058	12399
930.163	12175
930.267	12163
930.372	12266
930.477	12125
930.581	12414
930.685	12270
930.79	12095
930.894	12117
930.998	12015
931.103	12163
931.207	11855
931.311	11684
931.415	11585
931.519	11455
931.623	11410
