Data from test_V78500241_2142.txt Node
Date: Fri Mar 25 15:56:38 CST 2022
User: usil
Spectrometer: V785-0024
Trigger mode: 0
Integration Time (sec): 4.000000E-1
Scans to average: 1
Nonlinearity correction enabled: false
Boxcar width: 0
Storing dark spectrum: false
XAxis mode: Wavelengths
Number of Pixels in Spectrum: 1024
>>>>>Begin Spectral Data<<<<<
801.071	29022
801.214	29037
801.356	28729
801.499	28805
801.641	28668
801.783	28565
801.926	28622
802.068	28702
802.211	28443
802.353	28443
802.496	28310
802.638	28363
802.78	28287
802.923	28234
803.065	28059
803.208	28067
803.35	28337
803.492	28432
803.635	28626
803.777	28409
803.919	28516
804.061	28866
804.204	28702
804.346	28500
804.488	28516
804.63	28607
804.773	28424
804.915	28573
805.057	28691
805.199	28523
805.341	28523
805.483	28698
805.626	28733
805.768	28603
805.91	28615
806.052	28748
806.194	28554
806.336	28816
806.478	28786
806.62	28710
806.762	28850
806.904	29010
807.046	29242
807.188	29170
807.33	29208
807.472	29273
807.614	29022
807.756	29083
807.898	29098
808.04	28938
808.182	29075
808.324	28919
808.465	29094
808.607	29311
808.749	29356
808.891	29551
809.033	29676
809.174	29372
809.316	29406
809.458	29493
809.6	29383
809.741	29478
809.883	29547
810.025	29745
810.166	29623
810.308	29748
810.45	29741
810.591	29581
810.733	29558
810.875	29356
811.016	29235
811.158	29425
811.299	29341
811.441	29722
811.582	29573
811.724	29486
811.865	29535
812.007	29284
812.148	29474
812.29	29570
812.431	29642
812.573	29813
812.714	29771
812.855	30038
812.997	30201
813.138	30076
813.279	30095
813.421	29988
813.562	29870
813.703	29779
813.845	29570
813.986	29539
814.127	29311
814.268	29086
814.41	29303
814.551	29193
814.692	29254
814.833	29197
814.974	29189
815.115	29299
815.256	29010
815.397	29041
815.539	29044
815.68	28957
815.821	28873
815.962	29056
816.103	29025
816.244	28949
816.385	28759
816.526	28725
816.666	28474
816.807	28409
816.948	28592
817.089	28516
817.23	28615
817.371	28542
817.512	28497
817.653	28421
817.793	28375
817.934	28523
818.075	28436
818.216	28535
818.356	28386
818.497	28318
818.638	28086
818.778	28257
818.919	28246
819.06	28219
819.2	28485
819.341	28493
819.481	28398
819.622	28443
819.762	28744
819.903	28675
820.043	28675
820.184	28740
820.324	28653
820.465	28679
820.605	28710
820.746	28618
820.886	28409
821.026	28535
821.167	28577
821.307	28702
821.447	28474
821.588	28455
821.728	28257
821.868	28188
822.008	27937
822.149	27979
822.289	27880
822.429	27781
822.569	27774
822.709	27599
822.849	27450
822.99	27557
823.13	27462
823.27	27382
823.41	27348
823.55	27150
823.69	27367
823.83	27367
823.97	27279
824.11	27165
824.25	27104
824.389	27214
824.529	27062
824.669	27085
824.809	27211
824.949	27241
825.089	27074
825.228	27199
825.368	27203
825.508	27100
825.648	26842
825.787	27051
825.927	27157
826.067	26948
826.206	27051
826.346	27074
826.485	27195
826.625	27017
826.765	26940
826.904	26986
827.044	26842
827.183	26746
827.323	26769
827.462	26872
827.601	26887
827.741	26781
827.88	26689
828.02	26526
828.159	26739
828.298	26697
828.437	26785
828.577	26708
828.716	26853
828.855	26587
828.994	26461
829.134	26438
829.273	26636
829.412	26404
829.551	26366
829.69	26396
829.829	26476
829.968	26434
830.107	26442
830.246	26457
830.385	26328
830.524	26187
830.663	26229
830.802	26161
830.941	25940
831.08	26001
831.219	26081
831.357	26134
831.496	26267
831.635	26126
831.774	25951
831.913	25906
832.051	25864
832.19	25742
832.329	25887
832.467	25628
832.606	25563
832.744	25719
832.883	25605
833.022	25681
833.16	25674
833.299	25674
833.437	25662
833.576	25814
833.714	25674
833.852	25795
833.991	25814
834.129	25795
834.267	25693
834.406	25799
834.544	25772
834.682	25841
834.821	25594
834.959	25799
835.097	25571
835.235	25860
835.373	25772
835.511	25647
835.65	25597
835.788	25567
835.926	25544
836.064	25358
836.202	25434
836.34	25597
836.478	25662
836.615	25567
836.753	25529
836.891	25742
837.029	25708
837.167	25594
837.305	25491
837.443	25327
837.58	25460
837.718	25426
837.856	25479
837.993	25441
838.131	25331
838.269	25278
838.406	25369
838.544	25156
838.681	25065
838.819	24951
838.956	24840
839.094	25023
839.231	24867
839.369	25091
839.506	25168
839.643	25114
839.781	24875
839.918	24810
840.055	24954
840.193	24871
840.33	24677
840.467	24696
840.604	24867
840.742	25126
840.879	24783
841.016	24821
841.153	24563
841.29	24726
841.427	24791
841.564	24703
841.701	24669
841.838	24753
841.975	24696
842.112	24703
842.249	24517
842.385	24521
842.522	24730
842.659	24582
842.796	24521
842.933	24551
843.069	24574
843.206	24452
843.343	24593
843.479	24490
843.616	24585
843.752	24232
843.889	24429
844.025	24380
844.162	24220
844.298	24426
844.435	24300
844.571	24213
844.708	24258
844.844	24445
844.98	24498
845.117	24395
845.253	24239
845.389	24106
845.525	24277
845.661	24155
845.798	24018
845.934	24060
846.07	24038
846.206	24186
846.342	24057
846.478	23980
846.614	23794
846.75	23714
846.886	23756
847.022	23828
847.158	23760
847.294	23623
847.429	23710
847.565	23771
847.701	23996
847.837	23414
847.972	23478
848.108	23665
848.244	23539
848.379	23379
848.515	23299
848.65	23345
848.786	23326
848.921	23322
849.057	23467
849.192	23455
849.328	23356
849.463	23227
849.598	23254
849.734	23189
849.869	23124
850.004	23037
850.14	23140
850.275	22995
850.41	22999
850.545	23071
850.68	23102
850.815	23235
850.95	23147
851.085	23193
851.22	23193
851.355	23064
851.49	23025
851.625	23083
851.76	23044
851.895	22995
852.03	22881
852.165	23136
852.299	23083
852.434	23204
852.569	23109
852.703	23102
852.838	23094
852.973	23246
853.107	23132
853.242	23041
853.376	22911
853.511	22675
853.645	22919
853.78	23094
853.914	22995
854.048	22702
854.183	22892
854.317	22984
854.451	23132
854.585	22835
854.72	22904
854.854	22987
854.988	22908
855.122	22976
855.256	22740
855.39	22850
855.524	22930
855.658	22995
855.792	22873
855.926	23014
856.06	22843
856.194	23044
856.327	22911
856.461	22831
856.595	22809
856.729	22786
856.862	22976
856.996	22904
857.13	22896
857.263	23014
857.397	22847
857.53	22778
857.664	22957
857.797	22904
857.931	23003
858.064	22889
858.197	23022
858.331	22835
858.464	22767
858.597	22923
858.731	22805
858.864	22885
858.997	22790
859.13	22873
859.263	22889
859.396	22980
859.529	23006
859.662	22824
859.795	22824
859.928	22885
860.061	22972
860.194	22927
860.327	23060
860.46	22968
860.592	23075
860.725	23071
860.858	22984
860.99	22812
861.123	22858
861.256	22812
861.388	22987
861.521	23486
861.653	22683
861.786	22649
861.918	22824
862.05	22850
862.183	22679
862.315	22805
862.447	22854
862.58	22706
862.712	22573
862.844	22470
862.976	22577
863.108	22755
863.24	23071
863.372	22485
863.504	22542
863.636	22622
863.768	22744
863.9	22592
864.032	22580
864.164	22592
864.296	22565
864.428	22664
864.559	22599
864.691	22702
864.823	22535
864.954	22653
865.086	22573
865.217	22436
865.349	22394
865.48	22596
865.612	22481
865.743	22744
865.875	22462
866.006	22474
866.137	22440
866.269	22500
866.4	22382
866.531	22299
866.662	22329
866.793	22459
866.924	22379
867.055	22341
867.186	22284
867.317	22440
867.448	22398
867.579	22417
867.71	22291
867.841	22322
867.972	22459
868.103	22398
868.233	22417
868.364	22402
868.495	22424
868.625	22599
868.756	22596
868.886	22474
869.017	22637
869.147	22725
869.278	22831
869.408	22763
869.539	22641
869.669	22622
869.799	22744
869.929	22755
870.06	22839
870.19	23052
870.32	22991
870.45	23006
870.58	23022
870.71	23090
870.84	23094
870.97	23147
871.1	22900
871.23	23227
871.36	23273
871.489	23242
871.619	23189
871.749	23227
871.879	23402
872.008	23471
872.138	23265
872.267	23193
872.397	23170
872.526	23044
872.656	23090
872.785	23014
872.915	23277
873.044	23448
873.173	23212
873.303	23227
873.432	23391
873.561	23372
873.69	23337
873.819	23254
873.948	23383
874.077	23383
874.206	23159
874.335	23261
874.464	23421
874.593	23372
874.722	23474
874.851	23592
874.979	23512
875.108	23592
875.237	23425
875.365	23303
875.494	23509
875.623	23592
875.751	23459
875.88	23497
876.008	23493
876.136	23592
876.265	23771
876.393	23916
876.521	23958
876.65	23950
876.778	23946
876.906	23653
877.034	23870
877.162	23832
877.29	23779
877.418	23874
877.546	23798
877.674	23824
877.802	23767
877.93	23771
878.058	23752
878.185	23657
878.313	23589
878.441	23752
878.568	23627
878.696	23695
878.824	23843
878.951	23836
879.079	24038
879.206	24159
879.333	23908
879.461	23836
879.588	24034
879.715	23931
879.842	24114
879.97	23988
880.097	23623
880.224	23627
880.351	23733
880.478	23604
880.605	23653
880.732	23646
880.859	23832
880.986	23611
881.112	23551
881.239	23570
881.366	23433
881.493	23261
881.619	23212
881.746	23159
881.872	23208
881.999	23181
882.125	23155
882.252	23250
882.378	23216
882.505	23212
882.631	22957
882.757	22934
882.883	22995
883.01	22900
883.136	22908
883.262	22759
883.388	22683
883.514	22816
883.64	22850
883.766	22736
883.892	22721
884.018	22694
884.143	22706
884.269	22858
884.395	22599
884.52	22508
884.646	22493
884.772	22451
884.897	22379
885.023	22538
885.148	22485
885.274	22607
885.399	22489
885.524	22455
885.65	22497
885.775	22481
885.9	22504
886.025	22588
886.15	22516
886.275	22405
886.4	22451
886.525	22527
886.65	22436
886.775	22360
886.9	22645
887.025	22672
887.149	22462
887.274	22333
887.399	22257
887.523	22265
887.648	22200
887.773	22162
887.897	22322
888.021	22219
888.146	22109
888.27	22375
888.395	22371
888.519	22204
888.643	22284
888.767	22303
888.891	22143
889.015	22036
889.139	22135
889.263	22010
889.387	22112
889.511	22143
889.635	22105
889.759	22048
889.883	22006
890.006	22154
890.13	22116
890.254	21895
890.377	21975
890.501	21827
890.624	21675
890.748	21793
890.871	21747
890.995	21641
891.118	21644
891.241	21641
891.364	21660
891.488	21785
891.611	21564
891.734	21701
891.857	21698
891.98	21625
892.103	21580
892.226	21557
892.349	21549
892.471	21485
892.594	21496
892.717	21473
892.839	21431
892.962	21458
893.085	21473
893.207	21447
893.33	21363
893.452	21466
893.575	21534
893.697	21367
893.819	21564
893.941	21686
894.064	21534
894.186	21302
894.308	21294
894.43	21469
894.552	21633
894.674	21610
894.796	21439
894.918	21344
895.04	21386
895.161	21481
895.283	21370
895.405	21310
895.526	21325
895.648	21481
895.769	21488
895.891	21420
896.012	21500
896.134	21485
896.255	21386
896.376	21313
896.498	21420
896.619	21408
896.74	21279
896.861	21595
896.982	21812
897.103	21823
897.224	21675
897.345	21739
897.466	21591
897.587	21679
897.708	21694
897.828	21618
897.949	21553
898.07	21534
898.19	21625
898.311	21663
898.431	21507
898.552	21618
898.672	21603
898.792	21717
898.913	21606
899.033	21466
899.153	21340
899.273	21226
899.393	21450
899.513	21329
899.633	21386
899.753	21348
899.873	21188
899.993	21435
900.113	21154
900.232	21306
900.352	21203
900.472	21241
900.591	21062
900.711	21161
900.83	21051
900.95	21135
901.069	21211
901.189	21024
901.308	20724
901.427	20648
901.546	20674
901.665	20629
901.784	20682
901.904	20537
902.023	20396
902.141	20332
902.26	20119
902.379	20278
902.498	20107
902.617	20100
902.735	20263
902.854	20142
902.973	20180
903.091	19890
903.21	19807
903.328	19769
903.446	19769
903.565	19769
903.683	19643
903.801	19556
903.919	19525
904.038	19483
904.156	19304
904.274	19472
904.392	19301
904.51	19354
904.627	19350
904.745	19285
904.863	19445
904.981	19148
905.098	19084
905.216	18989
905.334	19031
905.451	18935
905.569	18966
905.686	19084
905.803	19046
905.921	18920
906.038	18867
906.155	18772
906.272	18692
906.389	18627
906.506	18627
906.623	18574
906.74	18620
906.857	18437
906.974	18452
907.091	18673
907.208	18635
907.324	18635
907.441	18399
907.557	18407
907.674	18285
907.79	18186
907.907	18296
908.023	18239
908.139	18311
908.256	18232
908.372	18087
908.488	18068
908.604	17999
908.72	17973
908.836	18022
908.952	18022
909.068	18030
909.184	18015
909.3	17988
909.415	17923
909.531	17942
909.647	17714
909.762	17676
909.878	17718
909.993	17638
910.108	17775
910.224	17592
910.339	17623
910.454	17459
910.57	17459
910.685	17417
910.8	17573
910.915	17604
911.03	17493
911.145	17261
911.259	17159
911.374	17151
911.489	17220
911.604	17022
911.718	17041
911.833	17029
911.947	16938
912.062	16858
912.176	16900
912.291	16896
912.405	16976
912.519	17159
912.633	17067
912.748	17022
912.862	16995
912.976	16782
913.09	16691
913.204	16694
913.318	16771
913.431	16858
913.545	16831
913.659	16915
913.772	16733
913.886	16630
914	16459
914.113	16698
914.226	16668
914.34	16645
914.453	16436
914.566	16668
914.68	16493
914.793	16424
914.906	16204
915.019	16200
915.132	16120
915.245	16078
915.358	16135
915.47	16063
915.583	16158
915.696	16150
915.809	16181
915.921	16306
916.034	16071
916.146	16032
916.259	16074
916.371	16105
916.483	16013
916.595	15922
916.708	15915
916.82	16040
916.932	15915
917.044	15899
917.156	15876
917.268	15713
917.38	15785
917.491	15728
917.603	15751
917.715	15869
917.826	15869
917.938	15709
918.049	15625
918.161	15724
918.272	15804
918.384	15785
918.495	15587
918.606	15637
918.717	15488
918.828	15568
918.939	15462
919.05	15397
919.161	15454
919.272	15157
919.383	15378
919.494	15603
919.604	15690
919.715	15519
919.826	15184
919.936	15340
920.047	15447
920.157	15500
920.267	15656
920.378	15424
920.488	15389
920.598	15622
920.708	15682
920.818	15622
920.928	15504
921.038	15667
921.148	15625
921.258	15348
921.368	15344
921.477	15260
921.587	15146
921.697	15157
921.806	15150
921.916	15017
922.025	14880
922.134	14765
922.244	14705
922.353	14811
922.462	14686
922.571	14541
922.68	14434
922.789	14396
922.898	14511
923.007	14385
923.116	14514
923.224	14370
923.333	14366
923.442	14210
923.55	14187
923.659	14191
923.767	14252
923.876	14199
923.984	14191
924.092	14248
924.201	14183
924.309	14088
924.417	14123
924.525	14088
924.633	14073
924.741	14838
924.849	13925
924.956	13989
925.064	13879
925.172	13746
925.279	13822
925.387	13799
925.494	13791
925.602	13947
925.709	13849
925.816	13750
925.924	13765
926.031	13807
926.138	13746
926.245	13830
926.352	13544
926.459	13757
926.566	13791
926.673	13655
926.779	13464
926.886	13495
926.993	13403
927.099	13316
927.206	13278
927.312	13285
927.419	13400
927.525	13316
927.631	13343
927.737	13168
927.843	13179
927.95	13019
928.056	13103
928.162	13183
928.267	13255
928.373	13742
928.479	13118
928.585	12909
928.69	13065
928.796	13149
928.901	12973
929.007	12875
929.112	12981
929.218	12943
929.323	12935
929.428	12886
929.533	12932
929.638	12753
929.743	12715
929.848	12757
929.953	12662
930.058	12646
930.163	12467
930.267	12532
930.372	12551
930.477	12429
930.581	12749
930.685	12544
930.79	12334
930.894	12380
930.998	12369
931.103	12486
931.207	12106
931.311	11984
931.415	11874
931.519	11752
931.623	11710
