Data from test_V78500241_1737.txt Node
Date: Fri Mar 25 15:53:50 CST 2022
User: usil
Spectrometer: V785-0024
Trigger mode: 0
Integration Time (sec): 4.000000E-1
Scans to average: 1
Nonlinearity correction enabled: false
Boxcar width: 0
Storing dark spectrum: false
XAxis mode: Wavelengths
Number of Pixels in Spectrum: 1024
>>>>>Begin Spectral Data<<<<<
801.071	28500
801.214	28333
801.356	28166
801.499	28238
801.641	28101
801.783	28177
801.926	28097
802.068	28093
802.211	28029
802.353	28116
802.496	27895
802.638	27800
802.78	27888
802.923	27743
803.065	27637
803.208	27705
803.35	27743
803.492	28044
803.635	27998
803.777	27850
803.919	27964
804.061	28386
804.204	28017
804.346	27941
804.488	27857
804.63	27979
804.773	27972
804.915	28070
805.057	28169
805.199	27918
805.341	28032
805.483	28112
805.626	28143
805.768	28006
805.91	28261
806.052	28162
806.194	28116
806.336	28382
806.478	28211
806.62	28230
806.762	28181
806.904	28417
807.046	28519
807.188	28554
807.33	28584
807.472	28645
807.614	28516
807.756	28413
807.898	28382
808.04	28352
808.182	28363
808.324	28443
808.465	28546
808.607	28641
808.749	28786
808.891	28896
809.033	29071
809.174	28938
809.316	28873
809.458	28782
809.6	28656
809.741	28911
809.883	28946
810.025	29231
810.166	28968
810.308	29136
810.45	28991
810.591	29029
810.733	28790
810.875	28774
811.016	28706
811.158	28713
811.299	28896
811.441	28862
811.582	28980
811.724	28759
811.865	28656
812.007	28797
812.148	28683
812.29	28771
812.431	29048
812.573	29292
812.714	29132
812.855	29258
812.997	29520
813.138	29566
813.279	29345
813.421	29277
813.562	29296
813.703	29121
813.845	29003
813.986	28721
814.127	28557
814.268	28481
814.41	28580
814.551	28466
814.692	28603
814.833	28478
814.974	28554
815.115	28580
815.256	28512
815.397	28272
815.539	28417
815.68	28223
815.821	28211
815.962	28409
816.103	28246
816.244	28078
816.385	28097
816.526	28002
816.666	27914
816.807	27675
816.948	27918
817.089	27956
817.23	27857
817.371	27720
817.512	27743
817.653	27899
817.793	27720
817.934	27690
818.075	27846
818.216	27895
818.356	27709
818.497	27709
818.638	27519
818.778	27542
818.919	27576
819.06	27633
819.2	27675
819.341	27899
819.481	27816
819.622	28105
819.762	28158
819.903	28017
820.043	28082
820.184	27956
820.324	27880
820.465	28006
820.605	27819
820.746	27857
820.886	27838
821.026	27850
821.167	27793
821.307	28025
821.447	27812
821.588	27736
821.728	27667
821.868	27443
822.008	27351
822.149	27378
822.289	27313
822.429	26918
822.569	27051
822.709	26998
822.849	26792
822.99	26819
823.13	26617
823.27	26708
823.41	26541
823.55	26366
823.69	26663
823.83	26708
823.97	26648
824.11	26446
824.25	26336
824.389	26469
824.529	26488
824.669	26476
824.809	26537
824.949	26533
825.089	26556
825.228	26533
825.368	26358
825.508	26324
825.648	26351
825.787	26309
825.927	26374
826.067	26263
826.206	26282
826.346	26157
826.485	26374
826.625	26389
826.765	26564
826.904	26412
827.044	26153
827.183	26202
827.323	25879
827.462	26062
827.601	25986
827.741	26012
827.88	26020
828.02	25917
828.159	26001
828.298	26062
828.437	26046
828.577	26005
828.716	26248
828.855	25860
828.994	25719
829.134	25620
829.273	25693
829.412	25757
829.551	25700
829.69	25746
829.829	25704
829.968	25753
830.107	25738
830.246	25647
830.385	25578
830.524	25590
830.663	25548
830.802	25441
830.941	25301
831.08	25354
831.219	25304
831.357	25464
831.496	25453
831.635	25430
831.774	25282
831.913	25179
832.051	25072
832.19	25171
832.329	25076
832.467	25072
832.606	24852
832.744	24924
832.883	25099
833.022	24897
833.16	24958
833.299	25046
833.437	24970
833.576	24928
833.714	25091
833.852	25175
833.991	24920
834.129	25137
834.267	25190
834.406	25065
834.544	25088
834.682	24973
834.821	24989
834.959	25232
835.097	24852
835.235	25061
835.373	25065
835.511	24947
835.65	24996
835.788	24897
835.926	24802
836.064	24745
836.202	24700
836.34	24817
836.478	24932
836.615	24859
836.753	24890
836.891	24939
837.029	24932
837.167	24848
837.305	24806
837.443	24848
837.58	24711
837.718	24817
837.856	24601
837.993	24665
838.131	24745
838.269	24593
838.406	24601
838.544	24532
838.681	24369
838.819	24338
838.956	24049
839.094	24087
839.231	24133
839.369	24369
839.506	24574
839.643	24422
839.781	24174
839.918	24167
840.055	24213
840.193	24171
840.33	24155
840.467	24030
840.604	24144
840.742	24262
840.879	23904
841.016	23946
841.153	23935
841.29	24076
841.427	24049
841.564	24121
841.701	24110
841.838	23992
841.975	23897
842.112	23866
842.249	23946
842.385	23756
842.522	24026
842.659	23805
842.796	23802
842.933	23843
843.069	23684
843.206	23798
843.343	23935
843.479	23726
843.616	23923
843.752	23710
843.889	23722
844.025	23638
844.162	23592
844.298	23619
844.435	23520
844.571	23524
844.708	23581
844.844	23684
844.98	23691
845.117	23684
845.253	23562
845.389	23497
845.525	23448
845.661	23402
845.798	23368
845.934	23478
846.07	23296
846.206	23334
846.342	23440
846.478	23398
846.614	23083
846.75	23029
846.886	22976
847.022	23025
847.158	23117
847.294	23094
847.429	23029
847.565	23170
847.701	23181
847.837	22763
847.972	22782
848.108	22824
848.244	22896
848.379	22790
848.515	22706
848.65	22607
848.786	22607
848.921	22706
849.057	22763
849.192	22824
849.328	22618
849.463	22550
849.598	22500
849.734	22535
849.869	22455
850.004	22382
850.14	22443
850.275	22459
850.41	22303
850.545	22188
850.68	22230
850.815	22394
850.95	22489
851.085	22618
851.22	22584
851.355	22432
851.49	22405
851.625	22428
851.76	22306
851.895	22367
852.03	22341
852.165	22432
852.299	22390
852.434	22478
852.569	22424
852.703	22459
852.838	22455
852.973	22508
853.107	22508
853.242	22314
853.376	22230
853.511	22112
853.645	22139
853.78	22417
853.914	22188
854.048	22265
854.183	22143
854.317	22249
854.451	22379
854.585	22272
854.72	22253
854.854	22284
854.988	22177
855.122	22173
855.256	22177
855.39	22120
855.524	22265
855.658	22379
855.792	22242
855.926	22219
856.06	22169
856.194	22314
856.327	22272
856.461	22177
856.595	22120
856.729	22128
856.862	22257
856.996	22325
857.13	22268
857.263	22310
857.397	22204
857.53	22135
857.664	22306
857.797	22207
857.931	22325
858.064	22226
858.197	22375
858.331	22192
858.464	22116
858.597	22078
858.731	22135
858.864	22055
858.997	22147
859.13	22234
859.263	22291
859.396	22238
859.529	22223
859.662	22219
859.795	22139
859.928	22166
860.061	22443
860.194	22417
860.327	22310
860.46	22204
860.592	22424
860.725	22375
860.858	22344
860.99	22295
861.123	22124
861.256	22017
861.388	22204
861.521	23037
861.653	22124
861.786	22105
861.918	22078
862.05	22029
862.183	22249
862.315	22185
862.447	22253
862.58	22093
862.712	21949
862.844	21888
862.976	22032
863.108	21987
863.24	22295
863.372	21892
863.504	21964
863.636	21956
863.768	21865
863.9	21949
864.032	21823
864.164	21880
864.296	21873
864.428	22048
864.559	21960
864.691	21972
864.823	21926
864.954	21869
865.086	21979
865.217	21846
865.349	21705
865.48	21808
865.612	21880
865.743	21979
865.875	21759
866.006	21682
866.137	21823
866.269	21743
866.4	21895
866.531	21587
866.662	21739
866.793	21728
866.924	21713
867.055	21717
867.186	21800
867.317	21675
867.448	21545
867.579	21648
867.71	21743
867.841	21633
867.972	21793
868.103	21808
868.233	21724
868.364	21755
868.495	21728
868.625	21861
868.756	22082
868.886	21739
869.017	22048
869.147	22055
869.278	22177
869.408	22025
869.539	21972
869.669	22010
869.799	22010
869.929	22173
870.06	22147
870.19	22287
870.32	22303
870.45	22306
870.58	22306
870.71	22577
870.84	22451
870.97	22325
871.1	22325
871.23	22455
871.36	22592
871.489	22485
871.619	22474
871.749	22573
871.879	22630
872.008	22653
872.138	22649
872.267	22637
872.397	22402
872.526	22405
872.656	22382
872.785	22428
872.915	22603
873.044	22729
873.173	22550
873.303	22630
873.432	22542
873.561	22672
873.69	22596
873.819	22603
873.948	22660
874.077	22698
874.206	22531
874.335	22584
874.464	22561
874.593	22877
874.722	22812
874.851	22885
874.979	22828
875.108	22953
875.237	22740
875.365	22774
875.494	22755
875.623	22835
875.751	22736
875.88	22809
876.008	22965
876.136	22987
876.265	23223
876.393	23239
876.521	23349
876.65	23273
876.778	23273
876.906	23208
877.034	23041
877.162	23117
877.29	23105
877.418	23185
877.546	23136
877.674	23113
877.802	23044
877.93	23151
878.058	23166
878.185	22999
878.313	23132
878.441	23204
878.568	22991
878.696	23117
878.824	23246
878.951	23239
879.079	23197
879.206	23360
879.333	23318
879.461	23246
879.588	23288
879.715	23398
879.842	23372
879.97	23185
880.097	23010
880.224	23090
880.351	23189
880.478	22896
880.605	22915
880.732	22976
880.859	23197
880.986	23083
881.112	22972
881.239	22927
881.366	22717
881.493	22637
881.619	22599
881.746	22519
881.872	22611
881.999	22481
882.125	22485
882.252	22607
882.378	22398
882.505	22702
882.631	22447
882.757	22242
882.883	22413
883.01	22101
883.136	22238
883.262	22029
883.388	22059
883.514	22173
883.64	22284
883.766	22223
883.892	21899
884.018	22101
884.143	22112
884.269	22196
884.395	21949
884.52	21743
884.646	21934
884.772	21781
884.897	21705
885.023	21850
885.148	22040
885.274	22036
885.399	21918
885.524	21797
885.65	21907
885.775	21911
885.9	21785
886.025	21930
886.15	21831
886.275	21812
886.4	21800
886.525	21774
886.65	21717
886.775	21812
886.9	21987
887.025	22055
887.149	21899
887.274	21709
887.399	21625
887.523	21538
887.648	21500
887.773	21412
887.897	21603
888.021	21667
888.146	21466
888.27	21686
888.395	21595
888.519	21496
888.643	21576
888.767	21622
888.891	21382
889.015	21466
889.139	21477
889.263	21245
889.387	21450
889.511	21580
889.635	21564
889.759	21389
889.883	21298
890.006	21420
890.13	21435
890.254	21458
890.377	21348
890.501	21203
890.624	21108
890.748	21214
890.871	20960
890.995	20906
891.118	20861
891.241	20979
891.364	20895
891.488	21146
891.611	20815
891.734	20872
891.857	20967
891.98	20933
892.103	20937
892.226	20868
892.349	20910
892.471	20716
892.594	20845
892.717	20880
892.839	20796
892.962	20872
893.085	20944
893.207	20777
893.33	20648
893.452	20777
893.575	20910
893.697	20857
893.819	20872
893.941	20994
894.064	20986
894.186	20754
894.308	20754
894.43	20933
894.552	21013
894.674	20876
894.796	20769
894.918	20845
895.04	20765
895.161	20899
895.283	20891
895.405	20781
895.526	20804
895.648	20872
895.769	20834
895.891	20960
896.012	20967
896.134	20960
896.255	20800
896.376	20872
896.498	20826
896.619	20826
896.74	20826
896.861	20781
896.982	21142
897.103	21252
897.224	20990
897.345	21017
897.466	20990
897.587	20929
897.708	21241
897.828	21112
897.949	20937
898.07	20906
898.19	21051
898.311	21184
898.431	21039
898.552	21146
898.672	21138
898.792	21173
898.913	20979
899.033	20910
899.153	20902
899.273	20796
899.393	20948
899.513	20811
899.633	20849
899.753	20731
899.873	20606
899.993	20845
900.113	20663
900.232	20746
900.352	20556
900.472	20495
900.591	20617
900.711	20602
900.83	20507
900.95	20663
901.069	20533
901.189	20412
901.308	20168
901.427	19986
901.546	20176
901.665	20142
901.784	20107
901.904	20043
902.023	19883
902.141	19788
902.26	19723
902.379	19689
902.498	19552
902.617	19544
902.735	19643
902.854	19670
902.973	19594
903.091	19346
903.21	19179
903.328	19285
903.446	19240
903.565	19236
903.683	19114
903.801	19000
903.919	19069
904.038	19076
904.156	18768
904.274	18901
904.392	18772
904.51	18894
904.627	18787
904.745	18878
904.863	18878
904.981	18582
905.098	18604
905.216	18502
905.334	18589
905.451	18509
905.569	18422
905.686	18521
905.803	18388
905.921	18315
906.038	18361
906.155	18304
906.272	18262
906.389	18174
906.506	17999
906.623	18030
906.74	18064
906.857	17897
906.974	17969
907.091	18171
907.208	18083
907.324	17946
907.441	17847
907.557	17779
907.674	17802
907.79	17691
907.907	17691
908.023	17783
908.139	17687
908.256	17646
908.372	17539
908.488	17589
908.604	17478
908.72	17551
908.836	17577
908.952	17452
909.068	17459
909.184	17528
909.3	17436
909.415	17486
909.531	17406
909.647	17254
909.762	17239
909.878	17216
909.993	17223
910.108	17124
910.224	17067
910.339	17105
910.454	17029
910.57	16869
910.685	16843
910.8	17204
910.915	17033
911.03	16991
911.145	16812
911.259	16672
911.374	16736
911.489	16626
911.604	16618
911.718	16508
911.833	16500
911.947	16394
912.062	16265
912.176	16512
912.291	16516
912.405	16516
912.519	16706
912.633	16679
912.748	16504
912.862	16474
912.976	16363
913.09	16200
913.204	16253
913.318	16299
913.431	16318
913.545	16455
913.659	16379
913.772	16158
913.886	16112
914	16040
914.113	16097
914.226	16207
914.34	16116
914.453	16006
914.566	16051
914.68	15991
914.793	15937
914.906	15736
915.019	15766
915.132	15622
915.245	15595
915.358	15709
915.47	15774
915.583	15618
915.696	15800
915.809	15720
915.921	15762
916.034	15553
916.146	15519
916.259	15496
916.371	15686
916.483	15568
916.595	15462
916.708	15561
916.82	15454
916.932	15416
917.044	15412
917.156	15416
917.268	15329
917.38	15351
917.491	15249
917.603	15268
917.715	15336
917.826	15386
917.938	15256
918.049	15199
918.161	15203
918.272	15374
918.384	15351
918.495	15332
918.606	15104
918.717	14952
918.828	15013
918.939	15119
919.05	14960
919.161	15062
919.272	14868
919.383	14910
919.494	15207
919.604	15131
919.715	15058
919.826	14887
919.936	15055
920.047	15097
920.157	14979
920.267	15192
920.378	14941
920.488	15058
920.598	15135
920.708	15264
920.818	15188
920.928	15138
921.038	15348
921.148	15173
921.258	14937
921.368	14773
921.477	14716
921.587	14708
921.697	14629
921.806	14697
921.916	14526
922.025	14499
922.134	14347
922.244	14259
922.353	14324
922.462	14286
922.571	14168
922.68	14046
922.789	13951
922.898	14005
923.007	13841
923.116	13879
923.224	13970
923.333	13970
923.442	13894
923.55	13875
923.659	13765
923.767	13940
923.876	13685
923.984	13845
924.092	13719
924.201	13719
924.309	13738
924.417	13780
924.525	13620
924.633	13727
924.741	14389
924.849	13445
924.956	13590
925.064	13411
925.172	13430
925.279	13381
925.387	13445
925.494	13384
925.602	13460
925.709	13457
925.816	13308
925.924	13308
926.031	13449
926.138	13396
926.245	13377
926.352	13209
926.459	13343
926.566	13403
926.673	13327
926.779	13019
926.886	13171
926.993	12973
927.099	12947
927.206	12947
927.312	12935
927.419	12947
927.525	12947
927.631	12989
927.737	12844
927.843	12757
927.95	12703
928.056	12795
928.162	12798
928.267	12783
928.373	13419
928.479	12863
928.585	12642
928.69	12749
928.796	12749
928.901	12585
929.007	12445
929.112	12738
929.218	12608
929.323	12426
929.428	12414
929.533	12620
929.638	12372
929.743	12399
929.848	12445
929.953	12330
930.058	12292
930.163	12133
930.267	12095
930.372	12277
930.477	12114
930.581	12277
930.685	12125
930.79	12091
930.894	12019
930.998	11992
931.103	12026
931.207	11695
931.311	11642
931.415	11627
931.519	11410
931.623	11395
