Data from test_V78500241_2254.txt Node
Date: Fri Mar 25 15:57:24 CST 2022
User: usil
Spectrometer: V785-0024
Trigger mode: 0
Integration Time (sec): 4.000000E-1
Scans to average: 1
Nonlinearity correction enabled: false
Boxcar width: 0
Storing dark spectrum: false
XAxis mode: Wavelengths
Number of Pixels in Spectrum: 1024
>>>>>Begin Spectral Data<<<<<
801.071	29231
801.214	29048
801.356	28946
801.499	28828
801.641	28793
801.783	28809
801.926	28885
802.068	28782
802.211	28763
802.353	28706
802.496	28512
802.638	28447
802.78	28459
802.923	28409
803.065	28303
803.208	28455
803.35	28489
803.492	28683
803.635	28656
803.777	28717
803.919	28672
804.061	29109
804.204	28664
804.346	28774
804.488	28721
804.63	28637
804.773	28649
804.915	28930
805.057	28824
805.199	28877
805.341	28824
805.483	28987
805.626	29052
805.768	28797
805.91	28972
806.052	29006
806.194	28850
806.336	29124
806.478	28885
806.62	28984
806.762	29105
806.904	29216
807.046	29425
807.188	29322
807.33	29406
807.472	29478
807.614	29269
807.756	29242
807.898	29239
808.04	29288
808.182	29220
808.324	29174
808.465	29277
808.607	29547
808.749	29604
808.891	29665
809.033	29821
809.174	29687
809.316	29566
809.458	29570
809.6	29570
809.741	29695
809.883	29680
810.025	29999
810.166	30007
810.308	30064
810.45	29916
810.591	29874
810.733	29771
810.875	29775
811.016	29551
811.158	29573
811.299	29649
811.441	29969
811.582	29756
811.724	29729
811.865	29592
812.007	29676
812.148	29748
812.29	29786
812.431	29969
812.573	30064
812.714	30114
812.855	30155
812.997	30258
813.138	30479
813.279	30338
813.421	30213
813.562	30159
813.703	29817
813.845	29931
813.986	29562
814.127	29471
814.268	29337
814.41	29417
814.551	29436
814.692	29436
814.833	29395
814.974	29387
815.115	29387
815.256	29250
815.397	29448
815.539	29185
815.68	29178
815.821	29102
815.962	29288
816.103	29231
816.244	29193
816.385	29025
816.526	29098
816.666	28908
816.807	28611
816.948	28797
817.089	28866
817.23	28797
817.371	28767
817.512	28653
817.653	28748
817.793	28603
817.934	28717
818.075	28641
818.216	28831
818.356	28717
818.497	28698
818.638	28485
818.778	28455
818.919	28519
819.06	28497
819.2	28599
819.341	28858
819.481	28706
819.622	28930
819.762	29018
819.903	29037
820.043	29048
820.184	28946
820.324	28755
820.465	28942
820.605	28908
820.746	28866
820.886	28634
821.026	28850
821.167	28904
821.307	28885
821.447	28835
821.588	28649
821.728	28580
821.868	28337
822.008	28162
822.149	28322
822.289	28181
822.429	28059
822.569	27911
822.709	27907
822.849	27709
822.99	27869
823.13	27637
823.27	27603
823.41	27450
823.55	27485
823.69	27526
823.83	27519
823.97	27526
824.11	27393
824.25	27321
824.389	27458
824.529	27439
824.669	27408
824.809	27481
824.949	27458
825.089	27416
825.228	27443
825.368	27192
825.508	27165
825.648	27169
825.787	27454
825.927	27408
826.067	27249
826.206	27306
826.346	27302
826.485	27321
826.625	27279
826.765	27405
826.904	27218
827.044	27104
827.183	27116
827.323	26940
827.462	27055
827.601	27036
827.741	26838
827.88	27081
828.02	26887
828.159	26883
828.298	27058
828.437	27020
828.577	27005
828.716	27150
828.855	26849
828.994	26670
829.134	26651
829.273	26720
829.412	26682
829.551	26674
829.69	26598
829.829	26769
829.968	26712
830.107	26777
830.246	26815
830.385	26438
830.524	26549
830.663	26415
830.802	26412
830.941	26202
831.08	26218
831.219	26202
831.357	26282
831.496	26431
831.635	26301
831.774	26172
831.913	26176
832.051	26081
832.19	26183
832.329	25944
832.467	26039
832.606	25868
832.744	25970
832.883	25921
833.022	25940
833.16	26046
833.299	25947
833.437	25997
833.576	25963
833.714	26073
833.852	26081
833.991	26035
834.129	26142
834.267	26149
834.406	25966
834.544	25997
834.682	26012
834.821	26016
834.959	26221
835.097	25978
835.235	26153
835.373	26001
835.511	26008
835.65	25818
835.788	25864
835.926	25761
836.064	25658
836.202	25575
836.34	25746
836.478	25864
836.615	25700
836.753	25856
836.891	25970
837.029	25712
837.167	25746
837.305	25753
837.443	25765
837.58	25639
837.718	25689
837.856	25689
837.993	25601
838.131	25605
838.269	25567
838.406	25639
838.544	25453
838.681	25358
838.819	25266
838.956	25076
839.094	25156
839.231	25187
839.369	25339
839.506	25533
839.643	25445
839.781	25179
839.918	25057
840.055	25145
840.193	25015
840.33	24996
840.467	25046
840.604	25091
840.742	25255
840.879	24814
841.016	24920
841.153	24852
841.29	25065
841.427	24962
841.564	24996
841.701	24977
841.838	24833
841.975	24878
842.112	24916
842.249	24856
842.385	24772
842.522	24909
842.659	24920
842.796	24848
842.933	24692
843.069	24658
843.206	24669
843.343	24684
843.479	24715
843.616	24753
843.752	24475
843.889	24509
844.025	24673
844.162	24563
844.298	24540
844.435	24437
844.571	24608
844.708	24563
844.844	24696
844.98	24726
845.117	24711
845.253	24460
845.389	24410
845.525	24403
845.661	24399
845.798	24041
845.934	24262
846.07	24296
846.206	24254
846.342	24357
846.478	24205
846.614	23950
846.75	23889
846.886	23988
847.022	24041
847.158	23920
847.294	24087
847.429	23912
847.565	23878
847.701	24232
847.837	23790
847.972	23756
848.108	23805
848.244	23840
848.379	23543
848.515	23490
848.65	23581
848.786	23703
848.921	23604
849.057	23710
849.192	23726
849.328	23520
849.463	23596
849.598	23630
849.734	23509
849.869	23440
850.004	23235
850.14	23364
850.275	23288
850.41	23258
850.545	23220
850.68	23174
850.815	23330
850.95	23292
851.085	23539
851.22	23417
851.355	23406
851.49	23379
851.625	23307
851.76	23326
851.895	23231
852.03	23269
852.165	23307
852.299	23311
852.434	23364
852.569	23349
852.703	23322
852.838	23444
852.973	23402
853.107	23398
853.242	23284
853.376	23113
853.511	22965
853.645	23083
853.78	23185
853.914	23136
854.048	23044
854.183	23102
854.317	23227
854.451	23364
854.585	23056
854.72	23227
854.854	23140
854.988	23109
855.122	23121
855.256	23079
855.39	23147
855.524	23341
855.658	23155
855.792	23204
855.926	23037
856.06	23212
856.194	23353
856.327	23140
856.461	23071
856.595	23067
856.729	23147
856.862	23246
856.996	23239
857.13	23181
857.263	23296
857.397	23151
857.53	23121
857.664	23170
857.797	23246
857.931	23265
858.064	23128
858.197	23220
858.331	23162
858.464	23121
858.597	23174
858.731	23124
858.864	23037
858.997	23121
859.13	23102
859.263	23140
859.396	23311
859.529	23121
859.662	23102
859.795	23086
859.928	23193
860.061	23220
860.194	23273
860.327	23170
860.46	23166
860.592	23288
860.725	23254
860.858	23235
860.99	23159
861.123	23064
861.256	23155
861.388	23147
861.521	23851
861.653	23041
861.786	22919
861.918	22942
862.05	23041
862.183	23079
862.315	23060
862.447	23067
862.58	23102
862.712	22885
862.844	22900
862.976	22942
863.108	22858
863.24	23330
863.372	22820
863.504	22831
863.636	22774
863.768	22946
863.9	22831
864.032	22793
864.164	22790
864.296	22809
864.428	23022
864.559	22904
864.691	22843
864.823	22885
864.954	22748
865.086	22752
865.217	22816
865.349	22550
865.48	22649
865.612	22778
865.743	22858
865.875	22778
866.006	22672
866.137	22702
866.269	22592
866.4	22759
866.531	22691
866.662	22500
866.793	22660
866.924	22561
867.055	22653
867.186	22565
867.317	22523
867.448	22603
867.579	22710
867.71	22546
867.841	22538
867.972	22691
868.103	22596
868.233	22660
868.364	22611
868.495	22759
868.625	22820
868.756	22968
868.886	22744
869.017	22755
869.147	22904
869.278	22976
869.408	22934
869.539	22767
869.669	22896
869.799	23025
869.929	22972
870.06	22984
870.19	23204
870.32	23109
870.45	23307
870.58	23318
870.71	23410
870.84	23387
870.97	23368
871.1	23402
871.23	23402
871.36	23471
871.489	23356
871.619	23459
871.749	23455
871.879	23490
872.008	23592
872.138	23433
872.267	23604
872.397	23444
872.526	23311
872.656	23387
872.785	23330
872.915	23463
873.044	23611
873.173	23467
873.303	23478
873.432	23524
873.561	23558
873.69	23608
873.819	23509
873.948	23585
874.077	23478
874.206	23440
874.335	23611
874.464	23531
874.593	23718
874.722	23649
874.851	23646
874.979	23760
875.108	23779
875.237	23767
875.365	23623
875.494	23714
875.623	23718
875.751	23703
875.88	23729
876.008	23764
876.136	23760
876.265	24038
876.393	24136
876.521	24239
876.65	24205
876.778	24136
876.906	24060
877.034	24041
877.162	24079
877.29	23958
877.418	24034
877.546	24121
877.674	23942
877.802	23988
877.93	23950
878.058	23973
878.185	23874
878.313	23954
878.441	23977
878.568	23874
878.696	23965
878.824	23977
878.951	24129
879.079	24121
879.206	24300
879.333	24159
879.461	24068
879.588	24125
879.715	24133
879.842	24235
879.97	24030
880.097	23988
880.224	23843
880.351	23984
880.478	23843
880.605	23824
880.732	23832
880.859	23992
880.986	23832
881.112	23745
881.239	23680
881.366	23623
881.493	23417
881.619	23478
881.746	23452
881.872	23349
881.999	23417
882.125	23204
882.252	23471
882.378	23235
882.505	23436
882.631	23079
882.757	23018
882.883	23170
883.01	23113
883.136	23052
883.262	22972
883.388	22843
883.514	23094
883.64	23033
883.766	22949
883.892	22843
884.018	22793
884.143	22995
884.269	23094
884.395	22733
884.52	22683
884.646	22729
884.772	22592
884.897	22584
885.023	22675
885.148	22797
885.274	22892
885.399	22771
885.524	22554
885.65	22622
885.775	22717
885.9	22664
886.025	22767
886.15	22759
886.275	22752
886.4	22630
886.525	22634
886.65	22706
886.775	22489
886.9	22801
887.025	22816
887.149	22489
887.274	22493
887.399	22470
887.523	22493
887.648	22523
887.773	22310
887.897	22573
888.021	22322
888.146	22379
888.27	22417
888.395	22550
888.519	22459
888.643	22462
888.767	22421
888.891	22371
889.015	22306
889.139	22230
889.263	22215
889.387	22341
889.511	22500
889.635	22253
889.759	22166
889.883	22177
890.006	22272
890.13	22325
890.254	22230
890.377	22021
890.501	21953
890.624	21880
890.748	21956
890.871	21880
890.995	21698
891.118	21717
891.241	21747
891.364	21785
891.488	21892
891.611	21732
891.734	21899
891.857	21770
891.98	21739
892.103	21800
892.226	21717
892.349	21682
892.471	21477
892.594	21500
892.717	21663
892.839	21545
892.962	21587
893.085	21751
893.207	21656
893.33	21507
893.452	21618
893.575	21648
893.697	21625
893.819	21732
893.941	21732
894.064	21732
894.186	21622
894.308	21656
894.43	21675
894.552	21759
894.674	21667
894.796	21580
894.918	21488
895.04	21542
895.161	21629
895.283	21580
895.405	21561
895.526	21610
895.648	21610
895.769	21701
895.891	21572
896.012	21606
896.134	21530
896.255	21538
896.376	21420
896.498	21492
896.619	21641
896.74	21496
896.861	21622
896.982	21846
897.103	21983
897.224	21865
897.345	21808
897.466	21800
897.587	21698
897.708	21850
897.828	21899
897.949	21785
898.07	21797
898.19	21804
898.311	21846
898.431	21656
898.552	21831
898.672	21793
898.792	21899
898.913	21789
899.033	21618
899.153	21591
899.273	21382
899.393	21477
899.513	21507
899.633	21523
899.753	21576
899.873	21443
899.993	21564
900.113	21454
900.232	21481
900.352	21355
900.472	21245
900.591	21195
900.711	21332
900.83	21268
900.95	21313
901.069	21287
901.189	21218
901.308	20819
901.427	20819
901.546	20849
901.665	20811
901.784	20727
901.904	20571
902.023	20568
902.141	20358
902.26	20469
902.379	20415
902.498	20294
902.617	20263
902.735	20351
902.854	20282
902.973	20229
903.091	19989
903.21	19974
903.328	19913
903.446	19856
903.565	19799
903.683	19826
903.801	19643
903.919	19719
904.038	19597
904.156	19499
904.274	19616
904.392	19468
904.51	19400
904.627	19476
904.745	19556
904.863	19582
904.981	19362
905.098	19293
905.216	19232
905.334	19141
905.451	19221
905.569	19148
905.686	19240
905.803	19160
905.921	19031
906.038	18932
906.155	19072
906.272	18882
906.389	18882
906.506	18760
906.623	18707
906.74	18715
906.857	18563
906.974	18711
907.091	18726
907.208	18909
907.324	18715
907.441	18642
907.557	18494
907.674	18395
907.79	18418
907.907	18289
908.023	18323
908.139	18471
908.256	18357
908.372	18308
908.488	18369
908.604	18182
908.72	18034
908.836	18174
908.952	18060
909.068	18102
909.184	18304
909.3	18121
909.415	18178
909.531	18072
909.647	17882
909.762	17745
909.878	17817
909.993	17771
910.108	17805
910.224	17718
910.339	17908
910.454	17661
910.57	17558
910.685	17596
910.8	17851
910.915	17760
911.03	17547
911.145	17436
911.259	17368
911.374	17414
911.489	17277
911.604	17318
911.718	17113
911.833	17117
911.947	17018
912.062	16942
912.176	17151
912.291	17185
912.405	17109
912.519	17254
912.633	17398
912.748	17162
912.862	17121
912.976	16953
913.09	16889
913.204	16923
913.318	16896
913.431	16984
913.545	17033
913.659	16984
913.772	16885
913.886	16809
914	16877
914.113	16778
914.226	16809
914.34	16744
914.453	16584
914.566	16668
914.68	16592
914.793	16481
914.906	16367
915.019	16325
915.132	16249
915.245	16280
915.358	16363
915.47	16268
915.583	16295
915.696	16173
915.809	16413
915.921	16451
916.034	16268
916.146	16177
916.259	16150
916.371	16234
916.483	16211
916.595	16162
916.708	16082
916.82	16109
916.932	16143
917.044	16063
917.156	15953
917.268	15854
917.38	15857
917.491	15895
917.603	15907
917.715	16006
917.826	15918
917.938	15789
918.049	15736
918.161	15759
918.272	15994
918.384	16013
918.495	15854
918.606	15698
918.717	15584
918.828	15728
918.939	15641
919.05	15538
919.161	15629
919.272	15397
919.383	15481
919.494	15770
919.604	15804
919.715	15637
919.826	15469
919.936	15595
920.047	15667
920.157	15564
920.267	15800
920.378	15599
920.488	15530
920.598	15660
920.708	15895
920.818	15610
920.928	15667
921.038	15778
921.148	15724
921.258	15481
921.368	15374
921.477	15279
921.587	15214
921.697	15119
921.806	15138
921.916	15077
922.025	14994
922.134	14845
922.244	14823
922.353	14891
922.462	14853
922.571	14670
922.68	14606
922.789	14606
922.898	14541
923.007	14412
923.116	14587
923.224	14552
923.333	14587
923.442	14434
923.55	14362
923.659	14336
923.767	14362
923.876	14271
923.984	14301
924.092	14248
924.201	14252
924.309	14271
924.417	14233
924.525	14096
924.633	14195
924.741	14842
924.849	13997
924.956	13974
925.064	13978
925.172	13761
925.279	13898
925.387	13894
925.494	13951
925.602	14001
925.709	13883
925.816	13742
925.924	13803
926.031	13906
926.138	13750
926.245	13841
926.352	13681
926.459	13879
926.566	13940
926.673	13712
926.779	13582
926.886	13594
926.993	13483
927.099	13480
927.206	13346
927.312	13278
927.419	13510
927.525	13449
927.631	13464
927.737	13346
927.843	13312
927.95	13183
928.056	13232
928.162	13187
928.267	13259
928.373	13849
928.479	13282
928.585	13061
928.69	13198
928.796	13221
928.901	13110
929.007	12913
929.112	13126
929.218	13080
929.323	13031
929.428	12962
929.533	13076
929.638	12916
929.743	12905
929.848	12962
929.953	12909
930.058	12726
930.163	12608
930.267	12620
930.372	12715
930.477	12635
930.581	12760
930.685	12658
930.79	12506
930.894	12639
930.998	12471
931.103	12646
931.207	12292
931.311	12076
931.415	12038
931.519	11771
931.623	11863
