Data from test_V78500241_857.txt Node
Date: Fri Mar 25 15:47:44 CST 2022
User: usil
Spectrometer: V785-0024
Trigger mode: 0
Integration Time (sec): 4.000000E-1
Scans to average: 1
Nonlinearity correction enabled: false
Boxcar width: 0
Storing dark spectrum: false
XAxis mode: Wavelengths
Number of Pixels in Spectrum: 1024
>>>>>Begin Spectral Data<<<<<
801.071	27937
801.214	27854
801.356	27549
801.499	27485
801.641	27393
801.783	27386
801.926	27534
802.068	27427
802.211	27367
802.353	27207
802.496	27066
802.638	27211
802.78	27089
802.923	27157
803.065	26982
803.208	27127
803.35	27146
803.492	27214
803.635	27028
803.777	27222
803.919	27325
804.061	27553
804.204	27367
804.346	27131
804.488	27108
804.63	27264
804.773	27256
804.915	27199
805.057	27412
805.199	27214
805.341	27382
805.483	27420
805.626	27306
805.768	27321
805.91	27408
806.052	27310
806.194	27340
806.336	27576
806.478	27454
806.62	27386
806.762	27374
806.904	27705
807.046	27907
807.188	27823
807.33	27789
807.472	27911
807.614	27774
807.756	27804
807.898	27682
808.04	27591
808.182	27629
808.324	27656
808.465	27778
808.607	27690
808.749	28025
808.891	28090
809.033	28105
809.174	28169
809.316	28051
809.458	27873
809.6	27972
809.741	28105
809.883	28188
810.025	28432
810.166	28375
810.308	28246
810.45	28344
810.591	28192
810.733	28055
810.875	27994
811.016	27991
811.158	28021
811.299	28219
811.441	28268
811.582	28177
811.724	28105
811.865	28074
812.007	28029
812.148	28002
812.29	28112
812.431	28238
812.573	28443
812.714	28489
812.855	28599
812.997	28778
813.138	28748
813.279	28725
813.421	28725
813.562	28462
813.703	28550
813.845	28265
813.986	27975
814.127	27892
814.268	27774
814.41	27648
814.551	27667
814.692	27914
814.833	27709
814.974	27622
815.115	27705
815.256	27641
815.397	27705
815.539	27633
815.68	27519
815.821	27317
815.962	27679
816.103	27610
816.244	27348
816.385	27393
816.526	27450
816.666	27135
816.807	26876
816.948	27017
817.089	27051
817.23	27074
817.371	27154
817.512	26971
817.653	27188
817.793	27055
817.934	27043
818.075	27127
818.216	27218
818.356	26956
818.497	26895
818.638	26838
818.778	26876
818.919	26830
819.06	26986
819.2	26918
819.341	26986
819.481	27001
819.622	27203
819.762	27313
819.903	27233
820.043	27237
820.184	27154
820.324	27096
820.465	27157
820.605	27055
820.746	27226
820.886	26921
821.026	27077
821.167	27036
821.307	27207
821.447	27036
821.588	26982
821.728	26826
821.868	26712
822.008	26678
822.149	26434
822.289	26473
822.429	26180
822.569	26199
822.709	26278
822.849	26069
822.99	26092
823.13	25966
823.27	25932
823.41	25807
823.55	25746
823.69	25864
823.83	25852
823.97	25799
824.11	25712
824.25	25601
824.389	25681
824.529	25750
824.669	25483
824.809	25791
824.949	25841
825.089	25784
825.228	25712
825.368	25540
825.508	25510
825.648	25487
825.787	25453
825.927	25575
826.067	25438
826.206	25521
826.346	25544
826.485	25662
826.625	25388
826.765	25586
826.904	25635
827.044	25426
827.183	25301
827.323	25175
827.462	25324
827.601	25297
827.741	25183
827.88	25384
828.02	25148
828.159	25198
828.298	25171
828.437	25346
828.577	25244
828.716	25369
828.855	25069
828.994	24947
829.134	24981
829.273	25004
829.412	25034
829.551	24840
829.69	24958
829.829	24973
829.968	24901
830.107	25141
830.246	25008
830.385	24856
830.524	24871
830.663	24760
830.802	24593
830.941	24521
831.08	24460
831.219	24505
831.357	24738
831.496	24772
831.635	24566
831.774	24483
831.913	24380
832.051	24353
832.19	24232
832.329	24281
832.467	24311
832.606	24167
832.744	24174
832.883	24159
833.022	24148
833.16	24308
833.299	24266
833.437	24228
833.576	24277
833.714	24232
833.852	24292
833.991	24319
834.129	24338
834.267	24372
834.406	24330
834.544	24338
834.682	24323
834.821	24224
834.959	24467
835.097	24247
835.235	24247
835.373	24201
835.511	24228
835.65	24262
835.788	24038
835.926	24072
836.064	24026
836.202	23980
836.34	24072
836.478	24213
836.615	24106
836.753	24300
836.891	24148
837.029	24083
837.167	24125
837.305	24011
837.443	24072
837.58	23859
837.718	23980
837.856	23946
837.993	23863
838.131	23889
838.269	23798
838.406	23802
838.544	23745
838.681	23505
838.819	23630
838.956	23425
839.094	23360
839.231	23471
839.369	23611
839.506	23855
839.643	23775
839.781	23520
839.918	23315
840.055	23410
840.193	23376
840.33	23379
840.467	23372
840.604	23463
840.742	23585
840.879	23155
841.016	23273
841.153	23197
841.29	23364
841.427	23322
841.564	23410
841.701	23398
841.838	23265
841.975	23246
842.112	23269
842.249	23303
842.385	23086
842.522	23231
842.659	23208
842.796	23113
842.933	23018
843.069	23105
843.206	23022
843.343	23105
843.479	23025
843.616	23022
843.752	22835
843.889	22976
844.025	22915
844.162	22831
844.298	22904
844.435	22904
844.571	22771
844.708	22828
844.844	23117
844.98	23033
845.117	22919
845.253	22816
845.389	22740
845.525	22900
845.661	22679
845.798	22493
845.934	22626
846.07	22573
846.206	22561
846.342	22767
846.478	22588
846.614	22344
846.75	22253
846.886	22249
847.022	22337
847.158	22348
847.294	22382
847.429	22268
847.565	22314
847.701	22569
847.837	22131
847.972	21991
848.108	22173
848.244	22147
848.379	21994
848.515	21972
848.65	21842
848.786	21850
848.921	21964
849.057	22048
849.192	21934
849.328	21979
849.463	21960
849.598	21835
849.734	21793
849.869	21690
850.004	21690
850.14	21690
850.275	21690
850.41	21660
850.545	21701
850.68	21724
850.815	21667
850.95	21679
851.085	21838
851.22	21785
851.355	21679
851.49	21648
851.625	21599
851.76	21682
851.895	21542
852.03	21648
852.165	21709
852.299	21854
852.434	21759
852.569	21656
852.703	21781
852.838	21690
852.973	21819
853.107	21766
853.242	21587
853.376	21561
853.511	21367
853.645	21393
853.78	21591
853.914	21466
854.048	21389
854.183	21504
854.317	21614
854.451	21671
854.585	21431
854.72	21515
854.854	21557
854.988	21405
855.122	21526
855.256	21336
855.39	21511
855.524	21576
855.658	21656
855.792	21561
855.926	21549
856.06	21496
856.194	21587
856.327	21439
856.461	21462
856.595	21545
856.729	21485
856.862	21622
856.996	21557
857.13	21686
857.263	21583
857.397	21637
857.53	21553
857.664	21412
857.797	21595
857.931	21625
858.064	21348
858.197	21572
858.331	21545
858.464	21454
858.597	21310
858.731	21401
858.864	21557
858.997	21523
859.13	21519
859.263	21458
859.396	21610
859.529	21481
859.662	21443
859.795	21355
859.928	21530
860.061	21606
860.194	21781
860.327	21515
860.46	21549
860.592	21576
860.725	21564
860.858	21633
860.99	21481
861.123	21580
861.256	21435
861.388	21504
861.521	22169
861.653	21469
861.786	21256
861.918	21401
862.05	21325
862.183	21405
862.315	21443
862.447	21637
862.58	21481
862.712	21233
862.844	21233
862.976	21336
863.108	21458
863.24	21587
863.372	21157
863.504	21279
863.636	21214
863.768	21256
863.9	21298
864.032	21184
864.164	21214
864.296	21268
864.428	21321
864.559	21344
864.691	21306
864.823	21245
864.954	21180
865.086	21173
865.217	21207
865.349	21036
865.48	21154
865.612	21131
865.743	21192
865.875	21226
866.006	21047
866.137	21154
866.269	21188
866.4	21100
866.531	21070
866.662	20967
866.793	21096
866.924	20982
867.055	21036
867.186	21047
867.317	21135
867.448	21024
867.579	21028
867.71	20933
867.841	20937
867.972	20986
868.103	20998
868.233	21074
868.364	21001
868.495	21180
868.625	21302
868.756	21260
868.886	21169
869.017	21249
869.147	21408
869.278	21408
869.408	21310
869.539	21355
869.669	21447
869.799	21264
869.929	21302
870.06	21408
870.19	21587
870.32	21538
870.45	21663
870.58	21637
870.71	21804
870.84	21755
870.97	21549
871.1	21732
871.23	21907
871.36	21876
871.489	21743
871.619	21743
871.749	21846
871.879	21865
872.008	21998
872.138	21892
872.267	21918
872.397	21667
872.526	21663
872.656	21656
872.785	21690
872.915	21812
873.044	22021
873.173	21899
873.303	22105
873.432	21922
873.561	21998
873.69	21991
873.819	21907
873.948	21945
874.077	21816
874.206	21915
874.335	21880
874.464	22124
874.593	22246
874.722	22002
874.851	22215
874.979	22105
875.108	22074
875.237	22105
875.365	21949
875.494	22082
875.623	22234
875.751	22211
875.88	22169
876.008	22147
876.136	22291
876.265	22405
876.393	22668
876.521	22637
876.65	22577
876.778	22462
876.906	22481
877.034	22409
877.162	22375
877.29	22325
877.418	22527
877.546	22455
877.674	22481
877.802	22360
877.93	22481
878.058	22413
878.185	22348
878.313	22421
878.441	22485
878.568	22272
878.696	22325
878.824	22485
878.951	22603
879.079	22603
879.206	22774
879.333	22641
879.461	22398
879.588	22588
879.715	22691
879.842	22672
879.97	22462
880.097	22314
880.224	22265
880.351	22348
880.478	22234
880.605	22181
880.732	22356
880.859	22474
880.986	22303
881.112	22352
881.239	22219
881.366	21899
881.493	21964
881.619	21918
881.746	21785
881.872	21991
881.999	21827
882.125	21781
882.252	22010
882.378	21827
882.505	21964
882.631	21648
882.757	21469
882.883	21572
883.01	21580
883.136	21473
883.262	21435
883.388	21397
883.514	21523
883.64	21682
883.766	21549
883.892	21454
884.018	21428
884.143	21416
884.269	21595
884.395	21272
884.52	21195
884.646	21184
884.772	21138
884.897	21165
885.023	21222
885.148	21317
885.274	21496
885.399	21272
885.524	21161
885.65	21279
885.775	21154
885.9	21100
886.025	21397
886.15	21199
886.275	21176
886.4	21180
886.525	21108
886.65	21150
886.775	21119
886.9	21355
887.025	21405
887.149	21161
887.274	21013
887.399	20933
887.523	20906
887.648	20849
887.773	20880
887.897	21058
888.021	21055
888.146	21039
888.27	21047
888.395	21024
888.519	21116
888.643	21089
888.767	21032
888.891	20796
889.015	20853
889.139	20800
889.263	20663
889.387	20899
889.511	20967
889.635	21047
889.759	20697
889.883	20754
890.006	20864
890.13	20937
890.254	20621
890.377	20720
890.501	20446
890.624	20476
890.748	20541
890.871	20488
890.995	20301
891.118	20347
891.241	20298
891.364	20313
891.488	20473
891.611	20396
891.734	20446
891.857	20377
891.98	20351
892.103	20476
892.226	20533
892.349	20358
892.471	20180
892.594	20320
892.717	20400
892.839	20180
892.962	20218
893.085	20324
893.207	20290
893.33	20256
893.452	20142
893.575	20286
893.697	20290
893.819	20427
893.941	20396
894.064	20377
894.186	20161
894.308	20107
894.43	20438
894.552	20415
894.674	20355
894.796	20130
894.918	20119
895.04	20282
895.161	20355
895.283	20290
895.405	20199
895.526	20408
895.648	20305
895.769	20301
895.891	20366
896.012	20377
896.134	20282
896.255	20374
896.376	20195
896.498	20320
896.619	20259
896.74	20180
896.861	20320
896.982	20617
897.103	20735
897.224	20640
897.345	20495
897.466	20343
897.587	20488
897.708	20667
897.828	20579
897.949	20434
898.07	20301
898.19	20320
898.311	20560
898.431	20362
898.552	20609
898.672	20609
898.792	20488
898.913	20454
899.033	20351
899.153	20267
899.273	20355
899.393	20191
899.513	20263
899.633	20301
899.753	20313
899.873	20252
899.993	20248
900.113	20077
900.232	20202
900.352	20096
900.472	20039
900.591	19970
900.711	19932
900.83	19921
900.95	20119
901.069	20081
901.189	19833
901.308	19693
901.427	19578
901.546	19559
901.665	19609
901.784	19552
901.904	19453
902.023	19335
902.141	19285
902.26	19168
902.379	19175
902.498	19076
902.617	19053
902.735	19175
902.854	19050
902.973	18958
903.091	18741
903.21	18593
903.328	18772
903.446	18623
903.565	18631
903.683	18544
903.801	18483
903.919	18528
904.038	18532
904.156	18395
904.274	18494
904.392	18330
904.51	18353
904.627	18289
904.745	18319
904.863	18391
904.981	18144
905.098	18019
905.216	17912
905.334	18053
905.451	18022
905.569	18003
905.686	17992
905.803	17980
905.921	17802
906.038	17980
906.155	17824
906.272	17638
906.389	17710
906.506	17630
906.623	17558
906.74	17497
906.857	17452
906.974	17474
907.091	17634
907.208	17665
907.324	17516
907.441	17493
907.557	17140
907.674	17307
907.79	17200
907.907	17216
908.023	17269
908.139	17273
908.256	17147
908.372	17075
908.488	17102
908.604	17022
908.72	16968
908.836	17083
908.952	17071
909.068	17067
909.184	17090
909.3	16946
909.415	16946
909.531	16965
909.647	16733
909.762	16729
909.878	16694
909.993	16725
910.108	16725
910.224	16565
910.339	16565
910.454	16531
910.57	16607
910.685	16436
910.8	16691
910.915	16660
911.03	16523
911.145	16291
911.259	16348
911.374	16261
911.489	16238
911.604	16200
911.718	16010
911.833	16055
911.947	15934
912.062	15934
912.176	16120
912.291	16097
912.405	15937
912.519	16177
912.633	16185
912.748	16101
912.862	15918
912.976	15854
913.09	15812
913.204	15694
913.318	15717
913.431	15869
913.545	15861
913.659	15899
913.772	15827
913.886	15618
914	15561
914.113	15720
914.226	15759
914.34	15622
914.453	15553
914.566	15682
914.68	15530
914.793	15481
914.906	15279
915.019	15226
915.132	15154
915.245	15291
915.358	15237
915.47	15256
915.583	15283
915.696	15203
915.809	15317
915.921	15382
916.034	15302
916.146	15169
916.259	15127
916.371	15211
916.483	15199
916.595	15039
916.708	15051
916.82	15154
916.932	14998
917.044	15028
917.156	15047
917.268	14769
917.38	14842
917.491	14914
917.603	14914
917.715	15013
917.826	14948
917.938	14811
918.049	14731
918.161	14724
918.272	14963
918.384	14883
918.495	14849
918.606	14724
918.717	14621
918.828	14712
918.939	14762
919.05	14552
919.161	14632
919.272	14438
919.383	14594
919.494	14621
919.604	14765
919.715	14575
919.826	14545
919.936	14636
920.047	14629
920.157	14613
920.267	14769
920.378	14545
920.488	14541
920.598	14792
920.708	14944
920.818	14693
920.928	14773
921.038	14838
921.148	14891
921.258	14625
921.368	14492
921.477	14347
921.587	14400
921.697	14267
921.806	14259
921.916	14309
922.025	14046
922.134	14039
922.244	13974
922.353	13997
922.462	13894
922.571	13833
922.68	13677
922.789	13609
922.898	13666
923.007	13563
923.116	13575
923.224	13491
923.333	13643
923.442	13472
923.55	13419
923.659	13499
923.767	13590
923.876	13441
923.984	13464
924.092	13346
924.201	13373
924.309	13362
924.417	13327
924.525	13289
924.633	13335
924.741	14240
924.849	13072
924.956	13304
925.064	13126
925.172	12954
925.279	12993
925.387	13031
925.494	13076
925.602	13209
925.709	13103
925.816	12859
925.924	12996
926.031	12977
926.138	12996
926.245	13050
926.352	12859
926.459	13065
926.566	13050
926.673	12890
926.779	12848
926.886	12772
926.993	12635
927.099	12692
927.206	12544
927.312	12544
927.419	12642
927.525	12677
927.631	12681
927.737	12452
927.843	12479
927.95	12361
928.056	12380
928.162	12403
928.267	12418
928.373	13050
928.479	12490
928.585	12247
928.69	12456
928.796	12418
928.901	12323
929.007	12125
929.112	12281
929.218	12251
929.323	12209
929.428	12102
929.533	12197
929.638	12167
929.743	12194
929.848	12057
929.953	12053
930.058	11973
930.163	11832
930.267	11847
930.372	11931
930.477	11767
930.581	12034
930.685	11912
930.79	11688
930.894	11821
930.998	11699
931.103	11802
931.207	11452
931.311	11436
931.415	11303
931.519	11151
931.623	11098
