Data from test_V78500241_1683.txt Node
Date: Fri Mar 25 15:53:27 CST 2022
User: usil
Spectrometer: V785-0024
Trigger mode: 0
Integration Time (sec): 4.000000E-1
Scans to average: 1
Nonlinearity correction enabled: false
Boxcar width: 0
Storing dark spectrum: false
XAxis mode: Wavelengths
Number of Pixels in Spectrum: 1024
>>>>>Begin Spectral Data<<<<<
801.071	28481
801.214	28405
801.356	28291
801.499	28261
801.641	27956
801.783	28032
801.926	28025
802.068	28025
802.211	28017
802.353	27922
802.496	27720
802.638	27724
802.78	27511
802.923	27595
803.065	27610
803.208	27701
803.35	27751
803.492	27812
803.635	27755
803.777	27789
803.919	27903
804.061	28166
804.204	28021
804.346	27865
804.488	27850
804.63	27975
804.773	27789
804.915	27956
805.057	28010
805.199	27930
805.341	27911
805.483	28055
805.626	28032
805.768	27903
805.91	27953
806.052	27975
806.194	28029
806.336	28173
806.478	27994
806.62	27998
806.762	28116
806.904	28154
807.046	28519
807.188	28478
807.33	28398
807.472	28626
807.614	28573
807.756	28466
807.898	28447
808.04	28238
808.182	28188
808.324	28188
808.465	28348
808.607	28626
808.749	28660
808.891	28835
809.033	28961
809.174	28862
809.316	28763
809.458	28744
809.6	28759
809.741	28934
809.883	28839
810.025	28923
810.166	28911
810.308	29060
810.45	28942
810.591	28881
810.733	28694
810.875	28706
811.016	28675
811.158	28675
811.299	28759
811.441	28790
811.582	28828
811.724	28721
811.865	28679
812.007	28653
812.148	28854
812.29	28755
812.431	28908
812.573	29079
812.714	29155
812.855	29296
812.997	29254
813.138	29444
813.279	29292
813.421	29391
813.562	29277
813.703	29086
813.845	29079
813.986	28767
814.127	28527
814.268	28440
814.41	28519
814.551	28493
814.692	28565
814.833	28166
814.974	28318
815.115	28447
815.256	28299
815.397	28268
815.539	28306
815.68	28261
815.821	28162
815.962	28162
816.103	28375
816.244	28204
816.385	27983
816.526	28143
816.666	27888
816.807	27622
816.948	27903
817.089	28002
817.23	27770
817.371	27610
817.512	27751
817.653	27728
817.793	27622
817.934	27622
818.075	27720
818.216	27698
818.356	27637
818.497	27663
818.638	27526
818.778	27496
818.919	27488
819.06	27610
819.2	27785
819.341	27816
819.481	27717
819.622	27873
819.762	28093
819.903	28036
820.043	27899
820.184	27774
820.324	27972
820.465	27941
820.605	27857
820.746	27671
820.886	27633
821.026	27842
821.167	27751
821.307	27888
821.447	27747
821.588	27614
821.728	27572
821.868	27378
822.008	27237
822.149	27256
822.289	27317
822.429	26990
822.569	26956
822.709	26861
822.849	26800
822.99	26708
823.13	26708
823.27	26716
823.41	26587
823.55	26533
823.69	26541
823.83	26495
823.97	26533
824.11	26275
824.25	26286
824.389	26389
824.529	26484
824.669	26385
824.809	26503
824.949	26632
825.089	26446
825.228	26518
825.368	26218
825.508	26092
825.648	26271
825.787	26290
825.927	26419
826.067	26328
826.206	26282
826.346	26339
826.485	26195
826.625	26244
826.765	26339
826.904	26237
827.044	26111
827.183	25970
827.323	25936
827.462	26054
827.601	26043
827.741	25921
827.88	25955
828.02	25849
828.159	25921
828.298	25917
828.437	26058
828.577	25959
828.716	26012
828.855	25845
828.994	25769
829.134	25586
829.273	25841
829.412	25464
829.551	25632
829.69	25776
829.829	25628
829.968	25715
830.107	25693
830.246	25658
830.385	25586
830.524	25499
830.663	25533
830.802	25487
830.941	25392
831.08	25209
831.219	25320
831.357	25289
831.496	25567
831.635	25388
831.774	25179
831.913	25088
832.051	24958
832.19	25133
832.329	24985
832.467	25145
832.606	25019
832.744	24935
832.883	24958
833.022	24958
833.16	24882
833.299	24943
833.437	25015
833.576	25099
833.714	24973
833.852	25129
833.991	25114
834.129	25206
834.267	25031
834.406	24985
834.544	25076
834.682	24848
834.821	24863
834.959	25148
835.097	24833
835.235	25118
835.373	24848
835.511	24951
835.65	24837
835.788	24973
835.926	24654
836.064	24608
836.202	24650
836.34	24863
836.478	24894
836.615	24760
836.753	24783
836.891	24772
837.029	24890
837.167	24753
837.305	24570
837.443	24681
837.58	24646
837.718	24620
837.856	24764
837.993	24570
838.131	24559
838.269	24490
838.406	24555
838.544	24342
838.681	24361
838.819	24384
838.956	24224
839.094	24114
839.231	24121
839.369	24369
839.506	24517
839.643	24270
839.781	24270
839.918	24076
840.055	24152
840.193	23984
840.33	24045
840.467	24068
840.604	24087
840.742	24422
840.879	23946
841.016	23969
841.153	23942
841.29	23984
841.427	24098
841.564	24072
841.701	23977
841.838	23950
841.975	24178
842.112	23958
842.249	23817
842.385	23897
842.522	24079
842.659	23843
842.796	23699
842.933	23771
843.069	23824
843.206	23802
843.343	23908
843.479	23870
843.616	23828
843.752	23604
843.889	23592
844.025	23737
844.162	23554
844.298	23707
844.435	23490
844.571	23512
844.708	23600
844.844	23661
844.98	23726
845.117	23608
845.253	23493
845.389	23421
845.525	23478
845.661	23337
845.798	23261
845.934	23402
846.07	23170
846.206	23197
846.342	23337
846.478	23193
846.614	22934
846.75	22904
846.886	22854
847.022	23025
847.158	22984
847.294	23102
847.429	23071
847.565	22984
847.701	23200
847.837	22725
847.972	22805
848.108	22820
848.244	22828
848.379	22626
848.515	22683
848.65	22607
848.786	22557
848.921	22637
849.057	22584
849.192	22710
849.328	22626
849.463	22683
849.598	22603
849.734	22405
849.869	22363
850.004	22322
850.14	22371
850.275	22268
850.41	22261
850.545	22367
850.68	22382
850.815	22371
850.95	22322
851.085	22504
851.22	22577
851.355	22424
851.49	22261
851.625	22337
851.76	22360
851.895	22257
852.03	22325
852.165	22303
852.299	22424
852.434	22398
852.569	22363
852.703	22379
852.838	22363
852.973	22440
853.107	22512
853.242	22344
853.376	22120
853.511	22109
853.645	22143
853.78	22303
853.914	22249
854.048	22169
854.183	22147
854.317	22200
854.451	22375
854.585	22188
854.72	22215
854.854	22265
854.988	22055
855.122	22200
855.256	22032
855.39	22276
855.524	22101
855.658	22242
855.792	22101
855.926	22147
856.06	22284
856.194	22230
856.327	22150
856.461	22032
856.595	22158
856.729	22173
856.862	22188
856.996	22253
857.13	22333
857.263	22295
857.397	22257
857.53	22211
857.664	22242
857.797	22215
857.931	22257
858.064	22226
858.197	22367
858.331	22204
858.464	22207
858.597	21991
858.731	22230
858.864	22093
858.997	22204
859.13	22226
859.263	22226
859.396	22242
859.529	22078
859.662	22169
859.795	22124
859.928	22120
860.061	22246
860.194	22398
860.327	22234
860.46	22169
860.592	22280
860.725	22287
860.858	22318
860.99	22230
861.123	22002
861.256	22135
861.388	22204
861.521	22828
861.653	22017
861.786	21937
861.918	21964
862.05	21994
862.183	21960
862.315	21937
862.447	22124
862.58	22051
862.712	21960
862.844	21819
862.976	21907
863.108	21941
863.24	22466
863.372	21842
863.504	21960
863.636	21915
863.768	21873
863.9	21785
864.032	21778
864.164	21819
864.296	21835
864.428	22044
864.559	21937
864.691	21930
864.823	21907
864.954	21709
865.086	21972
865.217	21622
865.349	21694
865.48	21732
865.612	21732
865.743	21918
865.875	21785
866.006	21797
866.137	21804
866.269	21698
866.4	21736
866.531	21633
866.662	21618
866.793	21732
866.924	21690
867.055	21701
867.186	21656
867.317	21846
867.448	21625
867.579	21682
867.71	21572
867.841	21728
867.972	21823
868.103	21724
868.233	21785
868.364	21667
868.495	21884
868.625	21846
868.756	22109
868.886	21781
869.017	21941
869.147	22040
869.278	22048
869.408	21945
869.539	22040
869.669	22044
869.799	21956
869.929	22017
870.06	22025
870.19	22272
870.32	22268
870.45	22200
870.58	22249
870.71	22424
870.84	22363
870.97	22287
871.1	22268
871.23	22550
871.36	22622
871.489	22504
871.619	22554
871.749	22538
871.879	22573
872.008	22748
872.138	22489
872.267	22641
872.397	22341
872.526	22360
872.656	22394
872.785	22363
872.915	22634
873.044	22557
873.173	22379
873.303	22592
873.432	22557
873.561	22573
873.69	22531
873.819	22531
873.948	22615
874.077	22535
874.206	22485
874.335	22584
874.464	22710
874.593	22801
874.722	22854
874.851	22763
874.979	22873
875.108	22839
875.237	22774
875.365	22660
875.494	22774
875.623	22858
875.751	22607
875.88	22812
876.008	22835
876.136	22908
876.265	23128
876.393	23117
876.521	23280
876.65	23204
876.778	23280
876.906	23052
877.034	23006
877.162	23121
877.29	23003
877.418	23147
877.546	22972
877.674	23143
877.802	23010
877.93	23174
878.058	23083
878.185	22946
878.313	23014
878.441	23060
878.568	22972
878.696	22961
878.824	23109
878.951	23292
879.079	23216
879.206	23516
879.333	23311
879.461	23162
879.588	23322
879.715	23227
879.842	23383
879.97	22987
880.097	22896
880.224	23010
880.351	22923
880.478	22927
880.605	22797
880.732	22881
880.859	23178
880.986	22892
881.112	22965
881.239	22797
881.366	22702
881.493	22531
881.619	22497
881.746	22557
881.872	22508
881.999	22504
882.125	22489
882.252	22489
882.378	22432
882.505	22645
882.631	22348
882.757	22124
882.883	22173
883.01	22097
883.136	22131
883.262	22090
883.388	21975
883.514	22192
883.64	22234
883.766	22063
883.892	21926
884.018	22010
884.143	22101
884.269	22173
884.395	21903
884.52	21717
884.646	21751
884.772	21652
884.897	21637
885.023	21816
885.148	21842
885.274	21922
885.399	21915
885.524	21728
885.65	21789
885.775	21747
885.9	21876
886.025	21895
886.15	22036
886.275	21739
886.4	21793
886.525	21736
886.65	21743
886.775	21778
886.9	21808
887.025	21983
887.149	21781
887.274	21686
887.399	21542
887.523	21583
887.648	21523
887.773	21492
887.897	21568
888.021	21500
888.146	21610
888.27	21580
888.395	21618
888.519	21564
888.643	21633
888.767	21660
888.891	21530
889.015	21466
889.139	21496
889.263	21492
889.387	21473
889.511	21679
889.635	21553
889.759	21401
889.883	21298
890.006	21230
890.13	21439
890.254	21310
890.377	21367
890.501	21074
890.624	20998
890.748	21119
890.871	20986
890.995	20979
891.118	20872
891.241	20921
891.364	20956
891.488	20929
891.611	20967
891.734	20986
891.857	21020
891.98	20891
892.103	20971
892.226	20944
892.349	20838
892.471	20663
892.594	20834
892.717	20982
892.839	20868
892.962	20880
893.085	20815
893.207	20876
893.33	20724
893.452	20682
893.575	20819
893.697	20887
893.819	20864
893.941	21104
894.064	21047
894.186	20781
894.308	20765
894.43	20929
894.552	20937
894.674	20914
894.796	20765
894.918	20667
895.04	20815
895.161	20876
895.283	20765
895.405	20731
895.526	20868
895.648	20788
895.769	20796
895.891	20906
896.012	20933
896.134	20883
896.255	20682
896.376	20777
896.498	20743
896.619	20815
896.74	20800
896.861	20941
896.982	21188
897.103	21260
897.224	21058
897.345	21047
897.466	20982
897.587	20986
897.708	21146
897.828	21058
897.949	20933
898.07	20864
898.19	20857
898.311	21020
898.431	20887
898.552	21001
898.672	21074
898.792	21047
898.913	21032
899.033	20899
899.153	20845
899.273	20689
899.393	20689
899.513	20667
899.633	20731
899.753	20720
899.873	20788
899.993	20644
900.113	20785
900.232	20708
900.352	20697
900.472	20442
900.591	20457
900.711	20594
900.83	20408
900.95	20590
901.069	20526
901.189	20545
901.308	20103
901.427	20122
901.546	20043
901.665	20187
901.784	20111
901.904	20005
902.023	19849
902.141	19575
902.26	19628
902.379	19639
902.498	19575
902.617	19662
902.735	19556
902.854	19537
902.973	19571
903.091	19324
903.21	19358
903.328	19259
903.446	19187
903.565	19088
903.683	19019
903.801	18913
903.919	19050
904.038	18924
904.156	18707
904.274	18951
904.392	18916
904.51	18878
904.627	18798
904.745	18859
904.863	18814
904.981	18559
905.098	18551
905.216	18479
905.334	18521
905.451	18483
905.569	18426
905.686	18566
905.803	18445
905.921	18292
906.038	18441
906.155	18357
906.272	18277
906.389	18152
906.506	17996
906.623	18053
906.74	17927
906.857	17893
906.974	17950
907.091	18098
907.208	18258
907.324	17992
907.441	17927
907.557	17760
907.674	17573
907.79	17676
907.907	17748
908.023	17691
908.139	17680
908.256	17642
908.372	17478
908.488	17623
908.604	17410
908.72	17387
908.836	17406
908.952	17505
909.068	17478
909.184	17581
909.3	17471
909.415	17486
909.531	17387
909.647	17121
909.762	17067
909.878	17121
909.993	17113
910.108	17056
910.224	17090
910.339	17117
910.454	17045
910.57	16869
910.685	16862
910.8	17223
910.915	17083
911.03	16927
911.145	16740
911.259	16759
911.374	16748
911.489	16713
911.604	16660
911.718	16531
911.833	16451
911.947	16405
912.062	16314
912.176	16417
912.291	16344
912.405	16519
912.519	16649
912.633	16683
912.748	16478
912.862	16382
912.976	16238
913.09	16188
913.204	16249
913.318	16226
913.431	16405
913.545	16333
913.659	16386
913.772	16299
913.886	16105
914	15941
914.113	16211
914.226	16166
914.34	16135
914.453	15831
914.566	16124
914.68	15960
914.793	15888
914.906	15835
915.019	15587
915.132	15580
915.245	15709
915.358	15641
915.47	15629
915.583	15610
915.696	15686
915.809	15774
915.921	15812
916.034	15595
916.146	15599
916.259	15481
916.371	15614
916.483	15629
916.595	15549
916.708	15534
916.82	15450
916.932	15424
917.044	15397
917.156	15405
917.268	15211
917.38	15325
917.491	15207
917.603	15294
917.715	15408
917.826	15317
917.938	15211
918.049	15180
918.161	15279
918.272	15435
918.384	15302
918.495	15203
918.606	15100
918.717	14910
918.828	15074
918.939	15047
919.05	14800
919.161	15047
919.272	14830
919.383	14925
919.494	15058
919.604	15241
919.715	14933
919.826	14883
919.936	15036
920.047	15055
920.157	14982
920.267	15077
920.378	14975
920.488	14876
920.598	15116
920.708	15275
920.818	15127
920.928	15119
921.038	15195
921.148	15165
921.258	14956
921.368	14785
921.477	14686
921.587	14667
921.697	14610
921.806	14731
921.916	14587
922.025	14396
922.134	14317
922.244	14267
922.353	14259
922.462	14180
922.571	14126
922.68	14043
922.789	13978
922.898	14031
923.007	13879
923.116	13947
923.224	14008
923.333	14008
923.442	13887
923.55	13849
923.659	13780
923.767	13879
923.876	13738
923.984	13890
924.092	13639
924.201	13734
924.309	13719
924.417	13609
924.525	13639
924.633	13727
924.741	14381
924.849	13407
924.956	13571
925.064	13468
925.172	13403
925.279	13362
925.387	13354
925.494	13441
925.602	13441
925.709	13392
925.816	13240
925.924	13369
926.031	13377
926.138	13301
926.245	13354
926.352	13217
926.459	13278
926.566	13365
926.673	13304
926.779	13080
926.886	13126
926.993	13027
927.099	12882
927.206	12909
927.312	12894
927.419	12901
927.525	12954
927.631	12897
927.737	12829
927.843	12817
927.95	12631
928.056	12696
928.162	12734
928.267	12791
928.373	13460
928.479	12859
928.585	12578
928.69	12749
928.796	12776
928.901	12547
929.007	12433
929.112	12551
929.218	12551
929.323	12486
929.428	12429
929.533	12593
929.638	12365
929.743	12426
929.848	12464
929.953	12342
930.058	12239
930.163	12114
930.267	12213
930.372	12262
930.477	12106
930.581	12308
930.685	12079
930.79	12007
930.894	11999
930.998	12026
931.103	11999
931.207	11821
931.311	11642
931.415	11585
931.519	11410
931.623	11402
