Data from test_V78500241_2884.txt Node
Date: Fri Mar 25 16:01:46 CST 2022
User: usil
Spectrometer: V785-0024
Trigger mode: 0
Integration Time (sec): 4.000000E-1
Scans to average: 1
Nonlinearity correction enabled: false
Boxcar width: 0
Storing dark spectrum: false
XAxis mode: Wavelengths
Number of Pixels in Spectrum: 1024
>>>>>Begin Spectral Data<<<<<
801.071	28565
801.214	28831
801.356	28375
801.499	28329
801.641	28390
801.783	28207
801.926	28276
802.068	28238
802.211	28204
802.353	27918
802.496	27987
802.638	27911
802.78	27850
802.923	27793
803.065	27895
803.208	27842
803.35	28013
803.492	28013
803.635	28223
803.777	27949
803.919	28139
804.061	28577
804.204	28200
804.346	28128
804.488	28246
804.63	28124
804.773	27854
804.915	28162
805.057	28318
805.199	28166
805.341	28169
805.483	28341
805.626	28284
805.768	28207
805.91	28318
806.052	28223
806.194	28181
806.336	28470
806.478	28253
806.62	28325
806.762	28451
806.904	28596
807.046	28839
807.188	28599
807.33	28611
807.472	28702
807.614	28736
807.756	28702
807.898	28573
808.04	28584
808.182	28573
808.324	28664
808.465	28535
808.607	28885
808.749	28980
808.891	29174
809.033	29079
809.174	29018
809.316	28968
809.458	28911
809.6	28892
809.741	29033
809.883	29143
810.025	29318
810.166	29250
810.308	29277
810.45	29254
810.591	29048
810.733	28946
810.875	28888
811.016	28900
811.158	28946
811.299	29003
811.441	29193
811.582	29197
811.724	28930
811.865	28919
812.007	28930
812.148	29064
812.29	29075
812.431	29220
812.573	29311
812.714	29372
812.855	29608
812.997	29493
813.138	29752
813.279	29497
813.421	29528
813.562	29573
813.703	29292
813.845	29280
813.986	29006
814.127	28809
814.268	28759
814.41	28801
814.551	28713
814.692	28694
814.833	28596
814.974	28580
815.115	28774
815.256	28615
815.397	28664
815.539	28706
815.68	28622
815.821	28436
815.962	28660
816.103	28470
816.244	28478
816.385	28398
816.526	28223
816.666	28131
816.807	27907
816.948	28067
817.089	28207
817.23	28025
817.371	28021
817.512	27922
817.653	27956
817.793	28063
817.934	28044
818.075	28086
818.216	27972
818.356	28029
818.497	27941
818.638	27789
818.778	27793
818.919	27865
819.06	27918
819.2	27979
819.341	28128
819.481	28017
819.622	28295
819.762	28325
819.903	28436
820.043	28257
820.184	28162
820.324	28188
820.465	28166
820.605	28299
820.746	28177
820.886	27869
821.026	27964
821.167	28063
821.307	28166
821.447	28116
821.588	28017
821.728	27873
821.868	27587
822.008	27534
822.149	27542
822.289	27515
822.429	27264
822.569	27203
822.709	27180
822.849	27081
822.99	26956
823.13	26880
823.27	26994
823.41	26830
823.55	26697
823.69	26975
823.83	26773
823.97	26899
824.11	26575
824.25	26629
824.389	26492
824.529	26899
824.669	26644
824.809	26819
824.949	26864
825.089	26716
825.228	26609
825.368	26514
825.508	26511
825.648	26613
825.787	26594
825.927	26651
826.067	26469
826.206	26613
826.346	26735
826.485	26469
826.625	26541
826.765	26545
826.904	26564
827.044	26358
827.183	26237
827.323	26218
827.462	26263
827.601	26218
827.741	26240
827.88	26218
828.02	26126
828.159	26259
828.298	26145
828.437	26237
828.577	26248
828.716	26278
828.855	26214
828.994	25944
829.134	26012
829.273	26001
829.412	25921
829.551	26058
829.69	26001
829.829	25944
829.968	26092
830.107	25974
830.246	25917
830.385	25871
830.524	25860
830.663	25818
830.802	25674
830.941	25525
831.08	25700
831.219	25567
831.357	25567
831.496	25712
831.635	25441
831.774	25483
831.913	25373
832.051	25316
832.19	25308
832.329	25232
832.467	25270
832.606	25095
832.744	25057
832.883	25209
833.022	25190
833.16	25278
833.299	25202
833.437	25297
833.576	25190
833.714	25190
833.852	25297
833.991	25343
834.129	25479
834.267	25266
834.406	25270
834.544	25293
834.682	25381
834.821	25175
834.959	25430
835.097	25202
835.235	25304
835.373	25217
835.511	25251
835.65	25133
835.788	25126
835.926	24920
836.064	24913
836.202	24905
836.34	25301
836.478	25069
836.615	25046
836.753	25133
836.891	25091
837.029	25095
837.167	24932
837.305	24973
837.443	25027
837.58	24916
837.718	24973
837.856	24875
837.993	24954
838.131	24916
838.269	24867
838.406	24703
838.544	24734
838.681	24521
838.819	24585
838.956	24357
839.094	24490
839.231	24334
839.369	24536
839.506	24764
839.643	24597
839.781	24414
839.918	24304
840.055	24346
840.193	24365
840.33	24365
840.467	24311
840.604	24273
840.742	24517
840.879	24216
841.016	24346
841.153	24133
841.29	24441
841.427	24300
841.564	24319
841.701	24300
841.838	24216
841.975	24121
842.112	24197
842.249	24171
842.385	24106
842.522	24201
842.659	24087
842.796	24003
842.933	24102
843.069	23996
843.206	23999
843.343	24041
843.479	24053
843.616	24007
843.752	23885
843.889	23863
844.025	23969
844.162	23756
844.298	23950
844.435	23832
844.571	23817
844.708	23790
844.844	23950
844.98	24045
845.117	24060
845.253	23703
845.389	23657
845.525	23775
845.661	23646
845.798	23406
845.934	23562
846.07	23497
846.206	23638
846.342	23714
846.478	23531
846.614	23315
846.75	23280
846.886	23216
847.022	23372
847.158	23402
847.294	23261
847.429	23265
847.565	23200
847.701	23448
847.837	23060
847.972	23109
848.108	23079
848.244	23155
848.379	22892
848.515	22831
848.65	22896
848.786	22999
848.921	22938
849.057	22942
849.192	22839
849.328	22930
849.463	22793
849.598	22786
849.734	22687
849.869	22831
850.004	22561
850.14	22656
850.275	22622
850.41	22634
850.545	22569
850.68	22550
850.815	22679
850.95	22596
851.085	22873
851.22	22835
851.355	22790
851.49	22664
851.625	22603
851.76	22577
851.895	22508
852.03	22615
852.165	22664
852.299	22675
852.434	22771
852.569	22626
852.703	22618
852.838	22691
852.973	22774
853.107	22721
853.242	22493
853.376	22417
853.511	22348
853.645	22451
853.78	22641
853.914	22462
854.048	22493
854.183	22455
854.317	22428
854.451	22641
854.585	22398
854.72	22542
854.854	22664
854.988	22344
855.122	22557
855.256	22398
855.39	22398
855.524	22565
855.658	22527
855.792	22436
855.926	22394
856.06	22489
856.194	22474
856.327	22432
856.461	22360
856.595	22363
856.729	22424
856.862	22497
856.996	22390
857.13	22535
857.263	22554
857.397	22573
857.53	22352
857.664	22508
857.797	22443
857.931	22668
858.064	22478
858.197	22493
858.331	22413
858.464	22447
858.597	22230
858.731	22459
858.864	22409
858.997	22474
859.13	22409
859.263	22504
859.396	22516
859.529	22299
859.662	22432
859.795	22257
859.928	22531
860.061	22637
860.194	22504
860.327	22565
860.46	22432
860.592	22497
860.725	22645
860.858	22645
860.99	22478
861.123	22398
861.256	22382
861.388	22466
861.521	23136
861.653	22272
861.786	22234
861.918	22234
862.05	22310
862.183	22573
862.315	22489
862.447	22455
862.58	22352
862.712	22143
862.844	22181
862.976	22128
863.108	22211
863.24	22584
863.372	22150
863.504	21979
863.636	22109
863.768	22063
863.9	22158
864.032	22196
864.164	22154
864.296	22207
864.428	22120
864.559	22257
864.691	22207
864.823	22078
864.954	22109
865.086	22154
865.217	21968
865.349	21945
865.48	22040
865.612	22067
865.743	22116
865.875	22105
866.006	22051
866.137	21945
866.269	22040
866.4	21945
866.531	22010
866.662	21991
866.793	21998
866.924	21991
867.055	22048
867.186	22067
867.317	21895
867.448	21884
867.579	21800
867.71	21998
867.841	21873
867.972	21960
868.103	21922
868.233	21991
868.364	21945
868.495	22135
868.625	22147
868.756	22318
868.886	22158
869.017	22284
869.147	22284
869.278	22352
869.408	22299
869.539	22219
869.669	22230
869.799	22238
869.929	22276
870.06	22253
870.19	22519
870.32	22531
870.45	22611
870.58	22622
870.71	22687
870.84	22645
870.97	22550
871.1	22698
871.23	22752
871.36	22828
871.489	22660
871.619	22752
871.749	22873
871.879	22869
872.008	22976
872.138	22683
872.267	22908
872.397	22710
872.526	22721
872.656	22660
872.785	22664
872.915	22797
873.044	22904
873.173	22767
873.303	22881
873.432	22809
873.561	22984
873.69	22790
873.819	22850
873.948	22786
874.077	22896
874.206	22828
874.335	22961
874.464	22987
874.593	23132
874.722	23189
874.851	23147
874.979	23098
875.108	23071
875.237	23075
875.365	22965
875.494	23018
875.623	23159
875.751	22843
875.88	23006
876.008	23235
876.136	23208
876.265	23520
876.393	23646
876.521	23421
876.65	23490
876.778	23486
876.906	23379
877.034	23372
877.162	23410
877.29	23349
877.418	23341
877.546	23406
877.674	23353
877.802	23429
877.93	23318
878.058	23436
878.185	23181
878.313	23254
878.441	23337
878.568	23368
878.696	23254
878.824	23440
878.951	23516
879.079	23482
879.206	23615
879.333	23471
879.461	23463
879.588	23497
879.715	23623
879.842	23585
879.97	23326
880.097	23136
880.224	23269
880.351	23140
880.478	23231
880.605	23212
880.732	23147
880.859	23512
880.986	23265
881.112	23193
881.239	23022
881.366	22831
881.493	23014
881.619	22835
881.746	22755
881.872	22782
881.999	22649
882.125	22687
882.252	22805
882.378	22573
882.505	22965
882.631	22531
882.757	22519
882.883	22523
883.01	22489
883.136	22341
883.262	22382
883.388	22333
883.514	22516
883.64	22436
883.766	22432
883.892	22280
884.018	22382
884.143	22333
884.269	22424
884.395	22234
884.52	22070
884.646	22135
884.772	22082
884.897	21934
885.023	22173
885.148	22135
885.274	22139
885.399	22109
885.524	22192
885.65	22154
885.775	22036
885.9	22101
886.025	22185
886.15	22226
886.275	22162
886.4	21975
886.525	22051
886.65	21991
886.775	21994
886.9	22078
887.025	22265
887.149	22025
887.274	21930
887.399	21850
887.523	21766
887.648	21869
887.773	21854
887.897	21945
888.021	21964
888.146	21785
888.27	21953
888.395	21930
888.519	21835
888.643	21945
888.767	21854
888.891	21717
889.015	21618
889.139	21736
889.263	21595
889.387	21751
889.511	21797
889.635	21705
889.759	21587
889.883	21545
890.006	21591
890.13	21648
890.254	21641
890.377	21660
890.501	21275
890.624	21291
890.748	21420
890.871	21291
890.995	21096
891.118	21199
891.241	21313
891.364	21089
891.488	21359
891.611	21199
891.734	21313
891.857	21241
891.98	21135
892.103	21055
892.226	21230
892.349	21028
892.471	21074
892.594	21036
892.717	20929
892.839	21024
892.962	21169
893.085	21051
893.207	21058
893.33	21032
893.452	21013
893.575	21017
893.697	21013
893.819	21176
893.941	21268
894.064	21157
894.186	20910
894.308	20948
894.43	21104
894.552	21211
894.674	21192
894.796	20937
894.918	21009
895.04	20937
895.161	21070
895.283	21119
895.405	20891
895.526	21005
895.648	21009
895.769	20971
895.891	21093
896.012	21157
896.134	21123
896.255	21218
896.376	20948
896.498	21074
896.619	21062
896.74	21001
896.861	21119
896.982	21344
897.103	21412
897.224	21294
897.345	21211
897.466	21169
897.587	21169
897.708	21313
897.828	21173
897.949	21150
898.07	21104
898.19	21123
898.311	21344
898.431	21146
898.552	21081
898.672	21389
898.792	21332
898.913	21249
899.033	21116
899.153	21058
899.273	20937
899.393	20948
899.513	20933
899.633	20975
899.753	20979
899.873	20769
899.993	21081
900.113	20948
900.232	20914
900.352	20830
900.472	20750
900.591	20667
900.711	20735
900.83	20739
900.95	20800
901.069	20705
901.189	20640
901.308	20305
901.427	20271
901.546	20278
901.665	20339
901.784	20343
901.904	20164
902.023	20145
902.141	20054
902.26	19902
902.379	19738
902.498	19723
902.617	19742
902.735	19852
902.854	19727
902.973	19613
903.091	19434
903.21	19495
903.328	19350
903.446	19346
903.565	19225
903.683	19301
903.801	19133
903.919	19179
904.038	19217
904.156	18977
904.274	19050
904.392	19034
904.51	18932
904.627	19065
904.745	19065
904.863	18932
904.981	18871
905.098	18738
905.216	18620
905.334	18772
905.451	18692
905.569	18646
905.686	18726
905.803	18719
905.921	18380
906.038	18612
906.155	18380
906.272	18334
906.389	18483
906.506	18296
906.623	18376
906.74	18171
906.857	18079
906.974	18060
907.091	18270
907.208	18300
907.324	18338
907.441	18049
907.557	18064
907.674	17824
907.79	17840
907.907	17969
908.023	17977
908.139	17889
908.256	17809
908.372	17779
908.488	17821
908.604	17665
908.72	17634
908.836	17646
908.952	17642
909.068	17718
909.184	17710
909.3	17608
909.415	17646
909.531	17676
909.647	17273
909.762	17315
909.878	17242
909.993	17341
910.108	17292
910.224	17307
910.339	17273
910.454	17200
910.57	17140
910.685	17109
910.8	17360
910.915	17273
911.03	17098
911.145	17029
911.259	16968
911.374	17025
911.489	16911
911.604	16664
911.718	16535
911.833	16744
911.947	16622
912.062	16527
912.176	16687
912.291	16786
912.405	16759
912.519	16835
912.633	16831
912.748	16850
912.862	16592
912.976	16478
913.09	16360
913.204	16497
913.318	16493
913.431	16542
913.545	16493
913.659	16569
913.772	16371
913.886	16310
914	16303
914.113	16272
914.226	16394
914.34	16386
914.453	16055
914.566	16265
914.68	16169
914.793	16086
914.906	15915
915.019	15793
915.132	15770
915.245	15759
915.358	15899
915.47	15770
915.583	15797
915.696	15945
915.809	15934
915.921	15975
916.034	15713
916.146	15759
916.259	15667
916.371	15778
916.483	15766
916.595	15709
916.708	15728
916.82	15622
916.932	15622
917.044	15580
917.156	15564
917.268	15412
917.38	15469
917.491	15367
917.603	15485
917.715	15568
917.826	15564
917.938	15458
918.049	15260
918.161	15393
918.272	15633
918.384	15492
918.495	15340
918.606	15230
918.717	15127
918.828	15256
918.939	15306
919.05	15192
919.161	15119
919.272	14982
919.383	15039
919.494	15222
919.604	15431
919.715	15154
919.826	15043
919.936	15154
920.047	15302
920.157	15211
920.267	15325
920.378	15157
920.488	15108
920.598	15310
920.708	15466
920.818	15287
920.928	15249
921.038	15401
921.148	15416
921.258	15066
921.368	15017
921.477	14891
921.587	14895
921.697	14842
921.806	14929
921.916	14826
922.025	14602
922.134	14549
922.244	14556
922.353	14613
922.462	14419
922.571	14343
922.68	14168
922.789	14229
922.898	14187
923.007	14123
923.116	14195
923.224	14271
923.333	14267
923.442	13917
923.55	13997
923.659	14012
923.767	14073
923.876	13940
923.984	14016
924.092	13833
924.201	13959
924.309	13967
924.417	13917
924.525	13856
924.633	13769
924.741	14758
924.849	13647
924.956	13734
925.064	13609
925.172	13529
925.279	13525
925.387	13552
925.494	13575
925.602	13689
925.709	13582
925.816	13369
925.924	13616
926.031	13514
926.138	13480
926.245	13609
926.352	13377
926.459	13620
926.566	13529
926.673	13518
926.779	13301
926.886	13316
926.993	13122
927.099	13099
927.206	13103
927.312	13095
927.419	13202
927.525	13171
927.631	13053
927.737	13095
927.843	12989
927.95	12844
928.056	12909
928.162	12970
928.267	13012
928.373	13590
928.479	13042
928.585	12791
928.69	12878
928.796	12943
928.901	12779
929.007	12688
929.112	12730
929.218	12779
929.323	12715
929.428	12688
929.533	12749
929.638	12646
929.743	12563
929.848	12589
929.953	12589
930.058	12509
930.163	12353
930.267	12353
930.372	12395
930.477	12353
930.581	12486
930.685	12418
930.79	12232
930.894	12182
930.998	12224
931.103	12273
931.207	11878
931.311	11817
931.415	11764
931.519	11615
931.623	11516
