Data from test_V78500241_1918.txt Node
Date: Fri Mar 25 15:55:05 CST 2022
User: usil
Spectrometer: V785-0024
Trigger mode: 0
Integration Time (sec): 4.000000E-1
Scans to average: 1
Nonlinearity correction enabled: false
Boxcar width: 0
Storing dark spectrum: false
XAxis mode: Wavelengths
Number of Pixels in Spectrum: 1024
>>>>>Begin Spectral Data<<<<<
801.071	28557
801.214	28535
801.356	28192
801.499	28379
801.641	28207
801.783	28204
801.926	28192
802.068	28268
802.211	28120
802.353	28013
802.496	28021
802.638	27869
802.78	27785
802.923	27739
803.065	27789
803.208	27770
803.35	27861
803.492	27979
803.635	27979
803.777	27930
803.919	28078
804.061	28371
804.204	28287
804.346	27960
804.488	28082
804.63	28131
804.773	28044
804.915	28147
805.057	28158
805.199	28067
805.341	28211
805.483	28188
805.626	28303
805.768	28063
805.91	28158
806.052	28284
806.194	28010
806.336	28360
806.478	28150
806.62	28261
806.762	28413
806.904	28451
807.046	28691
807.188	28664
807.33	28733
807.472	28816
807.614	28588
807.756	28752
807.898	28603
808.04	28531
808.182	28497
808.324	28584
808.465	28645
808.607	28771
808.749	28980
808.891	29067
809.033	29075
809.174	29044
809.316	28942
809.458	28987
809.6	28843
809.741	29052
809.883	28999
810.025	29178
810.166	29121
810.308	29193
810.45	29254
810.591	29075
810.733	28892
810.875	28778
811.016	28774
811.158	28721
811.299	28999
811.441	29083
811.582	29090
811.724	28888
811.865	28862
812.007	28866
812.148	28877
812.29	29151
812.431	29162
812.573	29368
812.714	29391
812.855	29395
812.997	29623
813.138	29661
813.279	29668
813.421	29440
813.562	29307
813.703	29288
813.845	29105
813.986	28930
814.127	28710
814.268	28702
814.41	28592
814.551	28656
814.692	28626
814.833	28538
814.974	28542
815.115	28584
815.256	28565
815.397	28516
815.539	28512
815.68	28474
815.821	28344
815.962	28341
816.103	28512
816.244	28291
816.385	28242
816.526	28306
816.666	28124
816.807	27876
816.948	28036
817.089	28181
817.23	27884
817.371	27979
817.512	27876
817.653	27930
817.793	27918
817.934	27880
818.075	28021
818.216	28078
818.356	28097
818.497	27956
818.638	27686
818.778	27724
818.919	27720
819.06	27873
819.2	27903
819.341	27873
819.481	27937
819.622	28093
819.762	28322
819.903	28105
820.043	28055
820.184	28048
820.324	27991
820.465	28135
820.605	28082
820.746	27926
820.886	28082
821.026	28192
821.167	27968
821.307	28154
821.447	27998
821.588	27732
821.728	27743
821.868	27519
822.008	27447
822.149	27523
822.289	27389
822.429	27230
822.569	27020
822.709	27180
822.849	26956
822.99	26994
823.13	26933
823.27	26895
823.41	26792
823.55	26640
823.69	26758
823.83	26629
823.97	26701
824.11	26499
824.25	26446
824.389	26746
824.529	26697
824.669	26621
824.809	26826
824.949	26708
825.089	26720
825.228	26484
825.368	26480
825.508	26503
825.648	26442
825.787	26507
825.927	26568
826.067	26564
826.206	26545
826.346	26499
826.485	26404
826.625	26351
826.765	26389
826.904	26560
827.044	26263
827.183	26305
827.323	26115
827.462	26423
827.601	26271
827.741	26176
827.88	26153
828.02	26043
828.159	26240
828.298	26237
828.437	26244
828.577	26016
828.716	26248
828.855	26176
828.994	25913
829.134	25928
829.273	25906
829.412	25864
829.551	25818
829.69	25791
829.829	25830
829.968	25818
830.107	25906
830.246	25818
830.385	25868
830.524	25841
830.663	25761
830.802	25658
830.941	25677
831.08	25377
831.219	25594
831.357	25506
831.496	25780
831.635	25559
831.774	25373
831.913	25312
832.051	25297
832.19	25362
832.329	25308
832.467	25293
832.606	25088
832.744	25156
832.883	25091
833.022	25050
833.16	25126
833.299	25221
833.437	25126
833.576	25232
833.714	25190
833.852	25228
833.991	25274
834.129	25274
834.267	25221
834.406	25282
834.544	25244
834.682	25179
834.821	25225
834.959	25403
835.097	25187
835.235	25263
835.373	25213
835.511	25095
835.65	25114
835.788	25114
835.926	25012
836.064	24905
836.202	24806
836.34	24989
836.478	25099
836.615	25023
836.753	24958
836.891	25027
837.029	24981
837.167	24878
837.305	24932
837.443	24882
837.58	24856
837.718	24939
837.856	24951
837.993	24772
838.131	24966
838.269	24776
838.406	24817
838.544	24673
838.681	24505
838.819	24540
838.956	24376
839.094	24296
839.231	24448
839.369	24555
839.506	24810
839.643	24620
839.781	24300
839.918	24380
840.055	24429
840.193	24334
840.33	24171
840.467	24346
840.604	24205
840.742	24426
840.879	24171
841.016	24121
841.153	23950
841.29	24327
841.427	24213
841.564	24426
841.701	24095
841.838	24228
841.975	24083
842.112	24038
842.249	24152
842.385	23958
842.522	24197
842.659	24117
842.796	23980
842.933	23988
843.069	23912
843.206	23977
843.343	23973
843.479	23946
843.616	24003
843.752	23760
843.889	23726
844.025	23901
844.162	23748
844.298	23813
844.435	23764
844.571	23699
844.708	23802
844.844	23958
844.98	23870
845.117	23870
845.253	23756
845.389	23642
845.525	23691
845.661	23661
845.798	23493
845.934	23638
846.07	23653
846.206	23493
846.342	23752
846.478	23486
846.614	23299
846.75	23121
846.886	23277
847.022	23273
847.158	23151
847.294	23417
847.429	23235
847.565	23124
847.701	23368
847.837	22885
847.972	22980
848.108	23098
848.244	22968
848.379	22904
848.515	22881
848.65	22835
848.786	22839
848.921	22873
849.057	22835
849.192	22881
849.328	22949
849.463	22854
849.598	22744
849.734	22847
849.869	22668
850.004	22656
850.14	22588
850.275	22717
850.41	22607
850.545	22462
850.68	22546
850.815	22577
850.95	22691
851.085	22869
851.22	22733
851.355	22440
851.49	22584
851.625	22447
851.76	22630
851.895	22455
852.03	22493
852.165	22622
852.299	22611
852.434	22603
852.569	22577
852.703	22584
852.838	22611
852.973	22828
853.107	22679
853.242	22542
853.376	22508
853.511	22295
853.645	22299
853.78	22432
853.914	22478
854.048	22242
854.183	22348
854.317	22314
854.451	22573
854.585	22485
854.72	22409
854.854	22333
854.988	22443
855.122	22409
855.256	22223
855.39	22344
855.524	22550
855.658	22508
855.792	22421
855.926	22516
856.06	22436
856.194	22428
856.327	22443
856.461	22379
856.595	22344
856.729	22375
856.862	22474
856.996	22398
857.13	22557
857.263	22474
857.397	22462
857.53	22413
857.664	22432
857.797	22428
857.931	22519
858.064	22371
858.197	22519
858.331	22470
858.464	22310
858.597	22207
858.731	22371
858.864	22398
858.997	22272
859.13	22466
859.263	22314
859.396	22478
859.529	22413
859.662	22356
859.795	22310
859.928	22329
860.061	22637
860.194	22588
860.327	22398
860.46	22390
860.592	22577
860.725	22596
860.858	22500
860.99	22519
861.123	22424
861.256	22325
861.388	22436
861.521	23143
861.653	22265
861.786	22325
861.918	22128
862.05	22337
862.183	22481
862.315	22367
862.447	22394
862.58	22363
862.712	21972
862.844	22055
862.976	22295
863.108	22284
863.24	22538
863.372	22036
863.504	22086
863.636	22093
863.768	22177
863.9	22200
864.032	22150
864.164	22070
864.296	22223
864.428	22166
864.559	22063
864.691	22246
864.823	22082
864.954	22032
865.086	22109
865.217	22010
865.349	21816
865.48	21998
865.612	21994
865.743	22150
865.875	21968
866.006	22013
866.137	21918
866.269	22048
866.4	21915
866.531	21895
866.662	21781
866.793	21823
866.924	21789
867.055	21994
867.186	22025
867.317	21869
867.448	21873
867.579	21956
867.71	21884
867.841	21743
867.972	21934
868.103	21892
868.233	22025
868.364	21838
868.495	21979
868.625	22059
868.756	22223
868.886	22048
869.017	22158
869.147	22238
869.278	22158
869.408	22211
869.539	22147
869.669	22158
869.799	22124
869.929	22257
870.06	22116
870.19	22500
870.32	22344
870.45	22436
870.58	22470
870.71	22771
870.84	22478
870.97	22424
871.1	22607
871.23	22717
871.36	22668
871.489	22596
871.619	22691
871.749	22694
871.879	22748
872.008	22854
872.138	22809
872.267	22721
872.397	22729
872.526	22531
872.656	22607
872.785	22637
872.915	22649
873.044	22816
873.173	22835
873.303	22858
873.432	22854
873.561	22858
873.69	22812
873.819	22774
873.948	22923
874.077	22812
874.206	22759
874.335	22736
874.464	22915
874.593	22946
874.722	22965
874.851	22991
874.979	22938
875.108	22980
875.237	22797
875.365	22831
875.494	22923
875.623	22987
875.751	22927
875.88	22968
876.008	23124
876.136	23143
876.265	23277
876.393	23486
876.521	23410
876.65	23459
876.778	23387
876.906	23261
877.034	23311
877.162	23315
877.29	23356
877.418	23322
877.546	23433
877.674	23231
877.802	23273
877.93	23356
878.058	23269
878.185	23216
878.313	23231
878.441	23258
878.568	23261
878.696	23204
878.824	23250
878.951	23417
879.079	23455
879.206	23581
879.333	23444
879.461	23410
879.588	23452
879.715	23497
879.842	23501
879.97	23345
880.097	23113
880.224	23098
880.351	23162
880.478	23151
880.605	23121
880.732	23166
880.859	23303
880.986	23197
881.112	23113
881.239	22885
881.366	22744
881.493	22793
881.619	22759
881.746	22790
881.872	22691
881.999	22721
882.125	22725
882.252	22725
882.378	22641
882.505	22854
882.631	22478
882.757	22440
882.883	22382
883.01	22390
883.136	22325
883.262	22284
883.388	22185
883.514	22462
883.64	22287
883.766	22249
883.892	22120
884.018	22158
884.143	22249
884.269	22447
884.395	22147
884.52	21960
884.646	22074
884.772	21949
884.897	22055
885.023	22017
885.148	22063
885.274	22116
885.399	22093
885.524	22074
885.65	21983
885.775	22093
885.9	22070
886.025	22139
886.15	22013
886.275	22059
886.4	21812
886.525	21895
886.65	21895
886.775	21800
886.9	22097
887.025	22116
887.149	22021
887.274	21797
887.399	21808
887.523	21789
887.648	21797
887.773	21652
887.897	21884
888.021	21724
888.146	21766
888.27	21789
888.395	21835
888.519	21865
888.643	21793
888.767	21759
888.891	21549
889.015	21515
889.139	21610
889.263	21644
889.387	21759
889.511	21762
889.635	21603
889.759	21492
889.883	21553
890.006	21606
890.13	21492
890.254	21454
890.377	21454
890.501	21348
890.624	21344
890.748	21359
890.871	21165
890.995	21100
891.118	21055
891.241	21165
891.364	21135
891.488	21157
891.611	21203
891.734	21154
891.857	21127
891.98	21123
892.103	21150
892.226	21123
892.349	21150
892.471	20785
892.594	20834
892.717	21127
892.839	20998
892.962	21009
893.085	21032
893.207	21051
893.33	20853
893.452	20868
893.575	20982
893.697	20880
893.819	21131
893.941	21176
894.064	21024
894.186	20925
894.308	20842
894.43	21062
894.552	20990
894.674	21074
894.796	20998
894.918	20960
895.04	20902
895.161	21093
895.283	21074
895.405	21020
895.526	21074
895.648	20971
895.769	20986
895.891	21081
896.012	21051
896.134	21036
896.255	21051
896.376	20925
896.498	20929
896.619	20960
896.74	21055
896.861	21070
896.982	21306
897.103	21287
897.224	21131
897.345	21218
897.466	21165
897.587	21245
897.708	21306
897.828	21260
897.949	21036
898.07	21036
898.19	21180
898.311	21188
898.431	21089
898.552	21157
898.672	21207
898.792	21116
898.913	21157
899.033	21039
899.153	20960
899.273	20853
899.393	20925
899.513	20880
899.633	20796
899.753	20982
899.873	20921
899.993	20807
900.113	20777
900.232	20876
900.352	20899
900.472	20716
900.591	20773
900.711	20724
900.83	20640
900.95	20701
901.069	20785
901.189	20488
901.308	20370
901.427	20199
901.546	20317
901.665	20233
901.784	20301
901.904	20183
902.023	19967
902.141	19860
902.26	19750
902.379	19830
902.498	19761
902.617	19753
902.735	19784
902.854	19750
902.973	19696
903.091	19544
903.21	19297
903.328	19403
903.446	19320
903.565	19392
903.683	19213
903.801	19110
903.919	19228
904.038	19206
904.156	19042
904.274	19042
904.392	18909
904.51	18993
904.627	18920
904.745	18958
904.863	19042
904.981	18711
905.098	18623
905.216	18730
905.334	18627
905.451	18616
905.569	18779
905.686	18700
905.803	18597
905.921	18532
906.038	18494
906.155	18410
906.272	18300
906.389	18330
906.506	18182
906.623	18125
906.74	18163
906.857	18091
906.974	18057
907.091	18270
907.208	18209
907.324	18144
907.441	18019
907.557	17923
907.674	17824
907.79	17783
907.907	17775
908.023	17893
908.139	17874
908.256	17771
908.372	17733
908.488	17760
908.604	17600
908.72	17543
908.836	17543
908.952	17566
909.068	17638
909.184	17642
909.3	17512
909.415	17558
909.531	17611
909.647	17322
909.762	17307
909.878	17288
909.993	17162
910.108	17326
910.224	17231
910.339	17231
910.454	17052
910.57	16961
910.685	16991
910.8	17337
910.915	17216
911.03	17071
911.145	16919
911.259	16809
911.374	16873
911.489	16759
911.604	16755
911.718	16542
911.833	16535
911.947	16558
912.062	16417
912.176	16603
912.291	16523
912.405	16580
912.519	16744
912.633	16797
912.748	16634
912.862	16637
912.976	16436
913.09	16360
913.204	16443
913.318	16352
913.431	16554
913.545	16538
913.659	16508
913.772	16432
913.886	16188
914	16314
914.113	16310
914.226	16265
914.34	16348
914.453	16090
914.566	16303
914.68	15987
914.793	16147
914.906	15797
915.019	15857
915.132	15698
915.245	15789
915.358	15842
915.47	15732
915.583	15743
915.696	15781
915.809	16002
915.921	15930
916.034	15736
916.146	15762
916.259	15751
916.371	15743
916.483	15717
916.595	15545
916.708	15572
916.82	15591
916.932	15538
917.044	15519
917.156	15553
917.268	15466
917.38	15424
917.491	15431
917.603	15447
917.715	15447
917.826	15549
917.938	15325
918.049	15199
918.161	15393
918.272	15412
918.384	15462
918.495	15355
918.606	15138
918.717	15066
918.828	15180
918.939	15218
919.05	15005
919.161	15180
919.272	14937
919.383	15028
919.494	15211
919.604	15386
919.715	15138
919.826	15066
919.936	15032
920.047	15123
920.157	15108
920.267	15310
920.378	15116
920.488	15013
920.598	15218
920.708	15325
920.818	15298
920.928	15264
921.038	15405
921.148	15363
921.258	15032
921.368	14956
921.477	14819
921.587	14857
921.697	14712
921.806	14933
921.916	14678
922.025	14598
922.134	14469
922.244	14434
922.353	14484
922.462	14290
922.571	14256
922.68	14092
922.789	14145
922.898	14130
923.007	14020
923.116	14084
923.224	14035
923.333	14077
923.442	13959
923.55	13875
923.659	13917
923.767	13940
923.876	13761
923.984	13890
924.092	13822
924.201	13864
924.309	13947
924.417	13818
924.525	13757
924.633	13731
924.741	14701
924.849	13559
924.956	13658
925.064	13510
925.172	13362
925.279	13506
925.387	13578
925.494	13468
925.602	13594
925.709	13495
925.816	13369
925.924	13438
926.031	13491
926.138	13400
926.245	13476
926.352	13278
926.459	13548
926.566	13396
926.673	13331
926.779	13221
926.886	13149
926.993	13114
927.099	13053
927.206	12985
927.312	13015
927.419	13065
927.525	12958
927.631	12993
927.737	12928
927.843	12875
927.95	12749
928.056	12810
928.162	12821
928.267	12913
928.373	13548
928.479	12821
928.585	12654
928.69	12787
928.796	12844
928.901	12707
929.007	12536
929.112	12722
929.218	12627
929.323	12627
929.428	12528
929.533	12700
929.638	12467
929.743	12559
929.848	12593
929.953	12593
930.058	12483
930.163	12228
930.267	12342
930.372	12414
930.477	12144
930.581	12433
930.685	12254
930.79	12133
930.894	12129
930.998	12140
931.103	12292
931.207	11870
931.311	11832
931.415	11703
931.519	11486
931.623	11455
