Data from test_V78500241_1317.txt Node
Date: Fri Mar 25 15:50:55 CST 2022
User: usil
Spectrometer: V785-0024
Trigger mode: 0
Integration Time (sec): 4.000000E-1
Scans to average: 1
Nonlinearity correction enabled: false
Boxcar width: 0
Storing dark spectrum: false
XAxis mode: Wavelengths
Number of Pixels in Spectrum: 1024
>>>>>Begin Spectral Data<<<<<
801.071	27865
801.214	27819
801.356	27603
801.499	27507
801.641	27435
801.783	27359
801.926	27500
802.068	27424
802.211	27245
802.353	27294
802.496	27176
802.638	27112
802.78	27070
802.923	27055
803.065	27024
803.208	27032
803.35	27032
803.492	27169
803.635	27313
803.777	27203
803.919	27180
804.061	27466
804.204	27313
804.346	27195
804.488	27279
804.63	27294
804.773	27249
804.915	27214
805.057	27386
805.199	27222
805.341	27306
805.483	27355
805.626	27336
805.768	27389
805.91	27325
806.052	27496
806.194	27287
806.336	27545
806.478	27462
806.62	27351
806.762	27576
806.904	27572
807.046	27842
807.188	27644
807.33	27728
807.472	27998
807.614	27899
807.756	27884
807.898	27751
808.04	27526
808.182	27504
808.324	27606
808.465	27743
808.607	27774
808.749	28017
808.891	28048
809.033	28150
809.174	28128
809.316	28139
809.458	28097
809.6	28021
809.741	28078
809.883	28291
810.025	28356
810.166	28432
810.308	28219
810.45	28291
810.591	28303
810.733	28097
810.875	28017
811.016	27918
811.158	27922
811.299	28093
811.441	28226
811.582	28234
811.724	28040
811.865	28010
812.007	27945
812.148	27968
812.29	28063
812.431	28238
812.573	28371
812.714	28516
812.855	28474
812.997	28668
813.138	28664
813.279	28759
813.421	28599
813.562	28462
813.703	28234
813.845	28257
813.986	27979
814.127	27774
814.268	27667
814.41	27728
814.551	27701
814.692	27778
814.833	27622
814.974	27701
815.115	27781
815.256	27557
815.397	27545
815.539	27511
815.68	27576
815.821	27511
815.962	27561
816.103	27572
816.244	27306
816.385	27287
816.526	27233
816.666	27150
816.807	26967
816.948	26971
817.089	27112
817.23	27077
817.371	27051
817.512	26990
817.653	26948
817.793	26963
817.934	27013
818.075	27150
818.216	27051
818.356	26998
818.497	26792
818.638	26701
818.778	26727
818.919	26838
819.06	26727
819.2	26956
819.341	27116
819.481	26986
819.622	27173
819.762	27203
819.903	27214
820.043	27237
820.184	27150
820.324	27093
820.465	27188
820.605	27108
820.746	27142
820.886	27047
821.026	27074
821.167	27036
821.307	27154
821.447	26979
821.588	26933
821.728	26857
821.868	26644
822.008	26530
822.149	26514
822.289	26476
822.429	26282
822.569	26065
822.709	26168
822.849	26050
822.99	25978
823.13	25921
823.27	25814
823.41	25830
823.55	25795
823.69	25803
823.83	25731
823.97	25871
824.11	25594
824.25	25495
824.389	25632
824.529	25784
824.669	25731
824.809	25841
824.949	25731
825.089	25803
825.228	25582
825.368	25514
825.508	25464
825.648	25510
825.787	25460
825.927	25506
826.067	25479
826.206	25495
826.346	25537
826.485	25441
826.625	25373
826.765	25655
826.904	25616
827.044	25312
827.183	25324
827.323	25057
827.462	25259
827.601	25274
827.741	25141
827.88	25293
828.02	25076
828.159	25171
828.298	25228
828.437	25160
828.577	25107
828.716	25247
828.855	25141
828.994	25046
829.134	24882
829.273	24970
829.412	24901
829.551	24867
829.69	24840
829.829	24814
829.968	24928
830.107	24992
830.246	24833
830.385	24707
830.524	24943
830.663	24608
830.802	24601
830.941	24479
831.08	24528
831.219	24570
831.357	24673
831.496	24768
831.635	24414
831.774	24532
831.913	24304
832.051	24452
832.19	24296
832.329	24327
832.467	24243
832.606	24178
832.744	24121
832.883	24110
833.022	24243
833.16	24178
833.299	24239
833.437	24315
833.576	24243
833.714	24159
833.852	24304
833.991	24277
834.129	24338
834.267	24300
834.406	24190
834.544	24369
834.682	24201
834.821	24258
834.959	24369
835.097	24232
835.235	24399
835.373	24197
835.511	24171
835.65	24083
835.788	24041
835.926	23977
836.064	23855
836.202	23889
836.34	24064
836.478	24201
836.615	24011
836.753	24121
836.891	24041
837.029	24125
837.167	24068
837.305	23946
837.443	24003
837.58	23904
837.718	24003
837.856	23870
837.993	23866
838.131	23859
838.269	23809
838.406	23710
838.544	23741
838.681	23512
838.819	23539
838.956	23345
839.094	23417
839.231	23383
839.369	23520
839.506	23691
839.643	23729
839.781	23326
839.918	23280
840.055	23356
840.193	23410
840.33	23208
840.467	23349
840.604	23372
840.742	23520
840.879	23197
841.016	23197
841.153	23220
841.29	23372
841.427	23227
841.564	23330
841.701	23193
841.838	23200
841.975	23048
842.112	23185
842.249	23022
842.385	23037
842.522	23231
842.659	23022
842.796	23006
842.933	23102
843.069	22987
843.206	22908
843.343	22987
843.479	22995
843.616	23025
843.752	22790
843.889	22877
844.025	22968
844.162	22873
844.298	22790
844.435	22809
844.571	22793
844.708	22908
844.844	22968
844.98	23022
845.117	22869
845.253	22771
845.389	22759
845.525	22721
845.661	22664
845.798	22653
845.934	22565
846.07	22637
846.206	22550
846.342	22687
846.478	22470
846.614	22291
846.75	22310
846.886	22166
847.022	22409
847.158	22386
847.294	22261
847.429	22318
847.565	22284
847.701	22508
847.837	22070
847.972	22029
848.108	22147
848.244	22086
848.379	22032
848.515	21888
848.65	21816
848.786	21892
848.921	21880
849.057	22070
849.192	21926
849.328	21895
849.463	21770
849.598	21892
849.734	21789
849.869	21778
850.004	21736
850.14	21686
850.275	21686
850.41	21549
850.545	21526
850.68	21545
850.815	21686
850.95	21622
851.085	21850
851.22	21679
851.355	21606
851.49	21572
851.625	21568
851.76	21488
851.895	21553
852.03	21564
852.165	21660
852.299	21629
852.434	21675
852.569	21644
852.703	21637
852.838	21732
852.973	21835
853.107	21770
853.242	21622
853.376	21507
853.511	21420
853.645	21431
853.78	21580
853.914	21462
854.048	21496
854.183	21344
854.317	21488
854.451	21553
854.585	21443
854.72	21466
854.854	21633
854.988	21481
855.122	21507
855.256	21370
855.39	21462
855.524	21496
855.658	21534
855.792	21325
855.926	21485
856.06	21485
856.194	21454
856.327	21515
856.461	21424
856.595	21458
856.729	21344
856.862	21557
856.996	21473
857.13	21526
857.263	21633
857.397	21595
857.53	21553
857.664	21564
857.797	21568
857.931	21606
858.064	21469
858.197	21675
858.331	21507
858.464	21378
858.597	21382
858.731	21496
858.864	21450
858.997	21389
859.13	21496
859.263	21583
859.396	21515
859.529	21488
859.662	21386
859.795	21340
859.928	21431
860.061	21580
860.194	21637
860.327	21473
860.46	21553
860.592	21736
860.725	21614
860.858	21515
860.99	21435
861.123	21298
861.256	21310
861.388	21542
861.521	22112
861.653	21370
861.786	21226
861.918	21355
862.05	21310
862.183	21389
862.315	21420
862.447	21564
862.58	21359
862.712	21230
862.844	21230
862.976	21214
863.108	21245
863.24	21622
863.372	21135
863.504	21180
863.636	21161
863.768	21211
863.9	21256
864.032	21173
864.164	21180
864.296	21207
864.428	21302
864.559	21135
864.691	21287
864.823	21154
864.954	21161
865.086	21100
865.217	21135
865.349	21036
865.48	21127
865.612	21058
865.743	21165
865.875	21123
866.006	21066
866.137	21058
866.269	21043
866.4	21039
866.531	20944
866.662	20960
866.793	20895
866.924	21013
867.055	20956
867.186	21070
867.317	20967
867.448	20971
867.579	21005
867.71	20975
867.841	20910
867.972	21066
868.103	20975
868.233	20914
868.364	20963
868.495	21085
868.625	21146
868.756	21466
868.886	21268
869.017	21275
869.147	21408
869.278	21294
869.408	21256
869.539	21321
869.669	21302
869.799	21272
869.929	21408
870.06	21294
870.19	21660
870.32	21504
870.45	21610
870.58	21583
870.71	21728
870.84	21804
870.97	21679
871.1	21477
871.23	21827
871.36	21911
871.489	21728
871.619	21800
871.749	21903
871.879	21842
872.008	21922
872.138	21819
872.267	21785
872.397	21800
872.526	21679
872.656	21637
872.785	21686
872.915	21915
873.044	21945
873.173	21892
873.303	21930
873.432	21964
873.561	21922
873.69	21876
873.819	21960
873.948	21861
874.077	21911
874.206	21835
874.335	21937
874.464	21972
874.593	22074
874.722	22029
874.851	22246
874.979	22032
875.108	22230
875.237	21998
875.365	22010
875.494	22025
875.623	22169
875.751	22090
875.88	22074
876.008	22234
876.136	22268
876.265	22360
876.393	22523
876.521	22592
876.65	22565
876.778	22542
876.906	22386
877.034	22333
877.162	22466
877.29	22363
877.418	22360
877.546	22360
877.674	22493
877.802	22440
877.93	22466
878.058	22489
878.185	22322
878.313	22432
878.441	22390
878.568	22242
878.696	22379
878.824	22523
878.951	22459
879.079	22717
879.206	22626
879.333	22687
879.461	22516
879.588	22637
879.715	22554
879.842	22721
879.97	22459
880.097	22329
880.224	22303
880.351	22207
880.478	22367
880.605	22166
880.732	22249
880.859	22508
880.986	22284
881.112	22249
881.239	22158
881.366	22086
881.493	21934
881.619	21808
881.746	21747
881.872	21892
881.999	21846
882.125	21701
882.252	21842
882.378	21717
882.505	21983
882.631	21709
882.757	21473
882.883	21663
883.01	21523
883.136	21530
883.262	21443
883.388	21336
883.514	21587
883.64	21511
883.766	21416
883.892	21272
884.018	21332
884.143	21405
884.269	21428
884.395	21302
884.52	21138
884.646	21230
884.772	21195
884.897	21036
885.023	21272
885.148	21169
885.274	21397
885.399	21287
885.524	21165
885.65	21214
885.775	21230
885.9	21116
886.025	21214
886.15	21211
886.275	21154
886.4	21104
886.525	21154
886.65	21203
886.775	20986
886.9	21207
887.025	21370
887.149	21264
887.274	21024
887.399	20956
887.523	20872
887.648	20785
887.773	20941
887.897	21180
888.021	20990
888.146	20830
888.27	21066
888.395	20986
888.519	20998
888.643	21039
888.767	20986
888.891	20895
889.015	20758
889.139	20842
889.263	20705
889.387	20788
889.511	20864
889.635	20918
889.759	20785
889.883	20735
890.006	20769
890.13	20811
890.254	20689
890.377	20720
890.501	20552
890.624	20530
890.748	20469
890.871	20366
890.995	20267
891.118	20183
891.241	20229
891.364	20290
891.488	20480
891.611	20336
891.734	20358
891.857	20328
891.98	20332
892.103	20450
892.226	20244
892.349	20305
892.471	20058
892.594	20301
892.717	20149
892.839	20229
892.962	20256
893.085	20351
893.207	20183
893.33	20058
893.452	20195
893.575	20347
893.697	20164
893.819	20366
893.941	20396
894.064	20305
894.186	20107
894.308	20183
894.43	20324
894.552	20339
894.674	20267
894.796	20050
894.918	20248
895.04	20119
895.161	20164
895.283	20271
895.405	20168
895.526	20130
895.648	20229
895.769	20221
895.891	20237
896.012	20183
896.134	20248
896.255	20168
896.376	20214
896.498	20278
896.619	20290
896.74	20130
896.861	20229
896.982	20442
897.103	20602
897.224	20465
897.345	20476
897.466	20343
897.587	20423
897.708	20636
897.828	20454
897.949	20351
898.07	20278
898.19	20377
898.311	20484
898.431	20492
898.552	20412
898.672	20533
898.792	20571
898.913	20541
899.033	20347
899.153	20408
899.273	20111
899.393	20130
899.513	20317
899.633	20149
899.753	20164
899.873	20027
899.993	20214
900.113	20187
900.232	20240
900.352	20149
900.472	19959
900.591	20035
900.711	19978
900.83	19925
900.95	20031
901.069	19997
901.189	19902
901.308	19590
901.427	19616
901.546	19521
901.665	19582
901.784	19605
901.904	19392
902.023	19266
902.141	19171
902.26	19084
902.379	19110
902.498	19240
902.617	18989
902.735	19057
902.854	19057
902.973	18981
903.091	18760
903.21	18669
903.328	18760
903.446	18563
903.565	18635
903.683	18540
903.801	18323
903.919	18471
904.038	18414
904.156	18243
904.274	18452
904.392	18407
904.51	18251
904.627	18270
904.745	18296
904.863	18414
904.981	18072
905.098	17942
905.216	17977
905.334	18095
905.451	17973
905.569	18053
905.686	18068
905.803	18060
905.921	17786
906.038	17897
906.155	17760
906.272	17649
906.389	17684
906.506	17516
906.623	17509
906.74	17520
906.857	17334
906.974	17444
907.091	17532
907.208	17539
907.324	17493
907.441	17364
907.557	17311
907.674	17227
907.79	17246
907.907	17075
908.023	17200
908.139	17296
908.256	17143
908.372	17060
908.488	17102
908.604	16953
908.72	16881
908.836	16915
908.952	16911
909.068	16972
909.184	16987
909.3	16949
909.415	16976
909.531	16934
909.647	16683
909.762	16622
909.878	16523
909.993	16675
910.108	16607
910.224	16561
910.339	16649
910.454	16485
910.57	16459
910.685	16303
910.8	16618
910.915	16580
911.03	16481
911.145	16242
911.259	16207
911.374	16291
911.489	16181
911.604	16051
911.718	16017
911.833	16044
911.947	15808
912.062	15892
912.176	15983
912.291	15975
912.405	16017
912.519	16188
912.633	16192
912.748	15964
912.862	15850
912.976	15892
913.09	15713
913.204	15698
913.318	15823
913.431	15819
913.545	15819
913.659	15899
913.772	15736
913.886	15701
914	15534
914.113	15622
914.226	15690
914.34	15656
914.453	15401
914.566	15667
914.68	15526
914.793	15485
914.906	15298
915.019	15279
915.132	15199
915.245	15146
915.358	15169
915.47	15176
915.583	15233
915.696	15157
915.809	15226
915.921	15279
916.034	15135
916.146	15100
916.259	15066
916.371	15100
916.483	15074
916.595	15036
916.708	15043
916.82	15066
916.932	15013
917.044	14975
917.156	14918
917.268	14804
917.38	14872
917.491	14902
917.603	14792
917.715	14830
917.826	15020
917.938	14773
918.049	14701
918.161	14838
918.272	14960
918.384	14925
918.495	14762
918.606	14636
918.717	14537
918.828	14629
918.939	14632
919.05	14499
919.161	14575
919.272	14454
919.383	14393
919.494	14617
919.604	14720
919.715	14545
919.826	14499
919.936	14590
920.047	14667
920.157	14617
920.267	14735
920.378	14613
920.488	14522
920.598	14777
920.708	14758
920.818	14640
920.928	14670
921.038	14872
921.148	14887
921.258	14632
921.368	14522
921.477	14282
921.587	14328
921.697	14126
921.806	14244
921.916	14183
922.025	13982
922.134	13970
922.244	13883
922.353	13959
922.462	13849
922.571	13753
922.68	13613
922.789	13666
922.898	13578
923.007	13518
923.116	13567
923.224	13609
923.333	13559
923.442	13434
923.55	13407
923.659	13480
923.767	13460
923.876	13369
923.984	13499
924.092	13308
924.201	13392
924.309	13350
924.417	13377
924.525	13240
924.633	13266
924.741	14157
924.849	13084
924.956	13164
925.064	12966
925.172	12913
925.279	12970
925.387	13019
925.494	13031
925.602	13160
925.709	13103
925.816	12966
925.924	12924
926.031	13000
926.138	12981
926.245	13008
926.352	12795
926.459	13004
926.566	12916
926.673	12882
926.779	12772
926.886	12730
926.993	12601
927.099	12620
927.206	12585
927.312	12479
927.419	12555
927.525	12483
927.631	12544
927.737	12445
927.843	12456
927.95	12380
928.056	12361
928.162	12429
928.267	12578
928.373	13027
928.479	12521
928.585	12171
928.69	12353
928.796	12407
928.901	12220
929.007	12117
929.112	12182
929.218	12224
929.323	12243
929.428	12098
929.533	12228
929.638	12178
929.743	12091
929.848	12163
929.953	12049
930.058	11882
930.163	11726
930.267	11684
930.372	11946
930.477	11623
930.581	12068
930.685	11851
930.79	11691
930.894	11642
930.998	11722
931.103	11802
931.207	11383
931.311	11311
931.415	11269
931.519	11075
931.623	11037
