Data from test_V78500241_297.txt Node
Date: Fri Mar 25 15:43:51 CST 2022
User: usil
Spectrometer: V785-0024
Trigger mode: 0
Integration Time (sec): 4.000000E-1
Scans to average: 1
Nonlinearity correction enabled: false
Boxcar width: 0
Storing dark spectrum: false
XAxis mode: Wavelengths
Number of Pixels in Spectrum: 1024
>>>>>Begin Spectral Data<<<<<
801.071	29474
801.214	29417
801.356	29364
801.499	29094
801.641	29102
801.783	29022
801.926	29147
802.068	28976
802.211	28896
802.353	28831
802.496	28679
802.638	28569
802.78	28611
802.923	28459
803.065	28554
803.208	28550
803.35	28767
803.492	28713
803.635	28888
803.777	28713
803.919	28702
804.061	29018
804.204	28976
804.346	28748
804.488	28634
804.63	28618
804.773	28641
804.915	28767
805.057	28927
805.199	28812
805.341	28892
805.483	28984
805.626	28919
805.768	28634
805.91	28900
806.052	29048
806.194	28755
806.336	29071
806.478	28885
806.62	28896
806.762	28999
806.904	29162
807.046	29322
807.188	29277
807.33	29417
807.472	29379
807.614	29334
807.756	29261
807.898	29212
808.04	29018
808.182	29033
808.324	29269
808.465	29109
808.607	29227
808.749	29459
808.891	29661
809.033	29783
809.174	29440
809.316	29611
809.458	29566
809.6	29539
809.741	29558
809.883	29623
810.025	29832
810.166	29722
810.308	29912
810.45	29554
810.591	29783
810.733	29623
810.875	29596
811.016	29425
811.158	29368
811.299	29684
811.441	29554
811.582	29748
811.724	29474
811.865	29425
812.007	29414
812.148	29611
812.29	29474
812.431	29604
812.573	29862
812.714	29927
812.855	30083
812.997	30095
813.138	30136
813.279	29946
813.421	30038
813.562	29965
813.703	29859
813.845	29802
813.986	29375
814.127	29208
814.268	29117
814.41	29086
814.551	29086
814.692	29220
814.833	28980
814.974	29155
815.115	29246
815.256	28957
815.397	28961
815.539	28949
815.68	28896
815.821	28816
815.962	28953
816.103	28965
816.244	28679
816.385	28748
816.526	28683
816.666	28497
816.807	28306
816.948	28306
817.089	28573
817.23	28428
817.371	28363
817.512	28360
817.653	28291
817.793	28379
817.934	28436
818.075	28318
818.216	28440
818.356	28363
818.497	28223
818.638	28044
818.778	28044
818.919	28029
819.06	28139
819.2	28200
819.341	28375
819.481	28265
819.622	28428
819.762	28725
819.903	28573
820.043	28645
820.184	28424
820.324	28401
820.465	28451
820.605	28459
820.746	28455
820.886	28352
821.026	28314
821.167	28398
821.307	28504
821.447	28405
821.588	28257
821.728	28116
821.868	27778
822.008	27732
822.149	27766
822.289	27682
822.429	27606
822.569	27420
822.709	27477
822.849	27321
822.99	27157
823.13	27184
823.27	27085
823.41	27009
823.55	26975
823.69	27009
823.83	27180
823.97	27020
824.11	26883
824.25	26689
824.389	26876
824.529	26975
824.669	26842
824.809	27020
824.949	26800
825.089	26811
825.228	26842
825.368	26689
825.508	26777
825.648	26792
825.787	26609
825.927	26773
826.067	26762
826.206	26674
826.346	26762
826.485	26727
826.625	26560
826.765	26750
826.904	26686
827.044	26511
827.183	26355
827.323	26263
827.462	26453
827.601	26320
827.741	26252
827.88	26343
828.02	26107
828.159	26355
828.298	26336
828.437	26377
828.577	26305
828.716	26473
828.855	26282
828.994	26027
829.134	26073
829.273	26145
829.412	26073
829.551	25826
829.69	25830
829.829	26221
829.968	26027
830.107	25932
830.246	26031
830.385	26092
830.524	25909
830.663	25795
830.802	25677
830.941	25632
831.08	25582
831.219	25674
831.357	25655
831.496	25845
831.635	25609
831.774	25540
831.913	25483
832.051	25343
832.19	25346
832.329	25415
832.467	25187
832.606	25297
832.744	25293
832.883	25324
833.022	25168
833.16	25103
833.299	25324
833.437	25247
833.576	25400
833.714	25259
833.852	25312
833.991	25324
834.129	25327
834.267	25331
834.406	25316
834.544	25274
834.682	25198
834.821	25274
834.959	25411
835.097	25183
835.235	25217
835.373	25289
835.511	25171
835.65	25069
835.788	25107
835.926	25015
836.064	24913
836.202	24951
836.34	25091
836.478	25099
836.615	24970
836.753	24973
836.891	25156
837.029	25213
837.167	25000
837.305	24894
837.443	24935
837.58	24821
837.718	24981
837.856	24973
837.993	24958
838.131	24905
838.269	24840
838.406	24920
838.544	24681
838.681	24601
838.819	24319
838.956	24403
839.094	24178
839.231	24323
839.369	24650
839.506	24654
839.643	24570
839.781	24391
839.918	24171
840.055	24213
840.193	24308
840.33	24148
840.467	24247
840.604	24414
840.742	24414
840.879	24163
841.016	24144
841.153	24098
841.29	24213
841.427	24152
841.564	24220
841.701	24190
841.838	24174
841.975	24038
842.112	24022
842.249	24026
842.385	24072
842.522	24152
842.659	24060
842.796	23931
842.933	23969
843.069	23889
843.206	23828
843.343	23950
843.479	23878
843.616	23821
843.752	23646
843.889	23760
844.025	23809
844.162	23668
844.298	23691
844.435	23638
844.571	23638
844.708	23733
844.844	23653
844.98	23767
845.117	23615
845.253	23539
845.389	23425
845.525	23573
845.661	23501
845.798	23482
845.934	23463
846.07	23337
846.206	23311
846.342	23318
846.478	23391
846.614	23102
846.75	23159
846.886	23102
847.022	23246
847.158	23147
847.294	23124
847.429	23124
847.565	23121
847.701	23440
847.837	22839
847.972	22820
848.108	22805
848.244	22847
848.379	22820
848.515	22778
848.65	22740
848.786	22607
848.921	22702
849.057	22675
849.192	22733
849.328	22618
849.463	22630
849.598	22493
849.734	22569
849.869	22436
850.004	22409
850.14	22516
850.275	22421
850.41	22314
850.545	22238
850.68	22333
850.815	22462
850.95	22223
851.085	22649
851.22	22493
851.355	22375
851.49	22440
851.625	22284
851.76	22322
851.895	22215
852.03	22344
852.165	22325
852.299	22409
852.434	22561
852.569	22424
852.703	22363
852.838	22371
852.973	22451
853.107	22421
853.242	22295
853.376	22177
853.511	22143
853.645	22044
853.78	22211
853.914	22131
854.048	22219
854.183	22268
854.317	22303
854.451	22348
854.585	22120
854.72	22185
854.854	22188
854.988	22074
855.122	22280
855.256	22093
855.39	22025
855.524	22299
855.658	22135
855.792	22204
855.926	22177
856.06	22204
856.194	22246
856.327	22158
856.461	22158
856.595	22070
856.729	22029
856.862	22276
856.996	22070
857.13	22249
857.263	22284
857.397	22207
857.53	22196
857.664	22128
857.797	22169
857.931	22215
858.064	22188
858.197	22211
858.331	22067
858.464	22067
858.597	22021
858.731	22082
858.864	22025
858.997	22112
859.13	22090
859.263	22154
859.396	22177
859.529	22143
859.662	22185
859.795	22093
859.928	22185
860.061	22185
860.194	22367
860.327	22230
860.46	22158
860.592	22192
860.725	22143
860.858	22299
860.99	22173
861.123	22059
861.256	22090
861.388	22211
861.521	22767
861.653	22055
861.786	21907
861.918	22093
862.05	21899
862.183	22234
862.315	22074
862.447	22185
862.58	22082
862.712	21937
862.844	21831
862.976	21880
863.108	21964
863.24	22352
863.372	21747
863.504	21785
863.636	21808
863.768	21724
863.9	21812
864.032	21755
864.164	21762
864.296	21781
864.428	21865
864.559	21854
864.691	21846
864.823	21781
864.954	21827
865.086	21823
865.217	21675
865.349	21736
865.48	21614
865.612	21743
865.743	21850
865.875	21816
866.006	21751
866.137	21724
866.269	21667
866.4	21705
866.531	21641
866.662	21523
866.793	21694
866.924	21618
867.055	21701
867.186	21648
867.317	21641
867.448	21473
867.579	21610
867.71	21553
867.841	21469
867.972	21675
868.103	21599
868.233	21599
868.364	21583
868.495	21755
868.625	21804
868.756	22017
868.886	21812
869.017	21861
869.147	21876
869.278	22074
869.408	21835
869.539	21846
869.669	21918
869.799	21960
869.929	21922
870.06	22010
870.19	22181
870.32	22147
870.45	22230
870.58	22196
870.71	22371
870.84	22352
870.97	22238
871.1	22352
871.23	22322
871.36	22272
871.489	22466
871.619	22455
871.749	22402
871.879	22398
872.008	22459
872.138	22451
872.267	22382
872.397	22356
872.526	22211
872.656	22188
872.785	22363
872.915	22375
873.044	22565
873.173	22417
873.303	22565
873.432	22527
873.561	22733
873.69	22481
873.819	22523
873.948	22637
874.077	22577
874.206	22474
874.335	22428
874.464	22535
874.593	22637
874.722	22542
874.851	22725
874.979	22824
875.108	22740
875.237	22698
875.365	22634
875.494	22580
875.623	22744
875.751	22656
875.88	22721
876.008	22736
876.136	22801
876.265	23090
876.393	23170
876.521	23197
876.65	23162
876.778	22961
876.906	22904
877.034	23048
877.162	23067
877.29	22999
877.418	23181
877.546	23067
877.674	22991
877.802	23025
877.93	22965
878.058	22972
878.185	22961
878.313	22866
878.441	22999
878.568	22904
878.696	22896
878.824	23124
878.951	23227
879.079	23124
879.206	23440
879.333	23223
879.461	23010
879.588	23151
879.715	23223
879.842	23303
879.97	23075
880.097	23010
880.224	22733
880.351	22858
880.478	22812
880.605	22854
880.732	22828
880.859	23086
880.986	22877
881.112	22885
881.239	22691
881.366	22519
881.493	22455
881.619	22421
881.746	22352
881.872	22379
881.999	22462
882.125	22504
882.252	22481
882.378	22367
882.505	22573
882.631	22280
882.757	22097
882.883	22185
883.01	22124
883.136	22082
883.262	22036
883.388	21895
883.514	22124
883.64	22223
883.766	21911
883.892	21968
884.018	21926
884.143	22067
884.269	22120
884.395	21857
884.52	21728
884.646	21770
884.772	21717
884.897	21534
885.023	21759
885.148	21808
885.274	21949
885.399	21785
885.524	21755
885.65	21641
885.775	21698
885.9	21720
886.025	21861
886.15	21816
886.275	21698
886.4	21641
886.525	21682
886.65	21766
886.775	21504
886.9	21865
887.025	21865
887.149	21739
887.274	21549
887.399	21458
887.523	21462
887.648	21485
887.773	21340
887.897	21538
888.021	21420
888.146	21519
888.27	21618
888.395	21534
888.519	21652
888.643	21549
888.767	21481
888.891	21336
889.015	21291
889.139	21458
889.263	21256
889.387	21249
889.511	21393
889.635	21408
889.759	21291
889.883	21268
890.006	21325
890.13	21397
890.254	21176
890.377	21302
890.501	21009
890.624	21009
890.748	21070
890.871	20941
890.995	20804
891.118	20849
891.241	20887
891.364	20883
891.488	20937
891.611	20876
891.734	20868
891.857	20864
891.98	20887
892.103	20868
892.226	20785
892.349	20724
892.471	20636
892.594	20777
892.717	20743
892.839	20826
892.962	20674
893.085	20826
893.207	20629
893.33	20587
893.452	20621
893.575	20792
893.697	20758
893.819	20899
893.941	20792
894.064	20937
894.186	20754
894.308	20712
894.43	20868
894.552	20933
894.674	20815
894.796	20682
894.918	20602
895.04	20720
895.161	20804
895.283	20781
895.405	20598
895.526	20815
895.648	20777
895.769	20785
895.891	20891
896.012	20868
896.134	20712
896.255	20644
896.376	20667
896.498	20750
896.619	20861
896.74	20758
896.861	20845
896.982	21138
897.103	21268
897.224	21001
897.345	20864
897.466	20921
897.587	20929
897.708	21047
897.828	21009
897.949	20986
898.07	20899
898.19	20883
898.311	20937
898.431	20857
898.552	20952
898.672	20937
898.792	20960
898.913	20941
899.033	20788
899.153	20705
899.273	20549
899.393	20750
899.513	20724
899.633	20693
899.753	20625
899.873	20564
899.993	20693
900.113	20541
900.232	20552
900.352	20602
900.472	20431
900.591	20305
900.711	20427
900.83	20385
900.95	20412
901.069	20537
901.189	20313
901.308	20069
901.427	19928
901.546	20031
901.665	20088
901.784	19887
901.904	19780
902.023	19830
902.141	19590
902.26	19514
902.379	19510
902.498	19495
902.617	19415
902.735	19582
902.854	19415
902.973	19350
903.091	19171
903.21	19202
903.328	19160
903.446	19031
903.565	18825
903.683	18890
903.801	18875
903.919	18837
904.038	18837
904.156	18692
904.274	18779
904.392	18684
904.51	18658
904.627	18661
904.745	18696
904.863	18711
904.981	18471
905.098	18410
905.216	18513
905.334	18483
905.451	18391
905.569	18315
905.686	18414
905.803	18342
905.921	18114
906.038	18285
906.155	18136
906.272	18022
906.389	18057
906.506	17904
906.623	17965
906.74	17897
906.857	17733
906.974	17847
907.091	17920
907.208	17958
907.324	17824
907.441	17790
907.557	17653
907.674	17577
907.79	17505
907.907	17478
908.023	17592
908.139	17516
908.256	17474
908.372	17455
908.488	17337
908.604	17292
908.72	17231
908.836	17376
908.952	17235
909.068	17277
909.184	17284
909.3	17231
909.415	17330
909.531	17231
909.647	17041
909.762	16949
909.878	16889
909.993	16976
910.108	17056
910.224	16873
910.339	16908
910.454	16828
910.57	16873
910.685	16713
910.8	16927
910.915	16938
911.03	16759
911.145	16596
911.259	16474
911.374	16664
911.489	16538
911.604	16421
911.718	16246
911.833	16329
911.947	16257
912.062	16234
912.176	16280
912.291	16253
912.405	16192
912.519	16497
912.633	16459
912.748	16386
912.862	16249
912.976	16105
913.09	15899
913.204	15941
913.318	16071
913.431	16196
913.545	16188
913.659	16158
913.772	16063
913.886	15949
914	15831
914.113	16040
914.226	15983
914.34	15857
914.453	15854
914.566	15854
914.68	15797
914.793	15793
914.906	15530
915.019	15530
915.132	15473
915.245	15519
915.358	15511
915.47	15458
915.583	15439
915.696	15500
915.809	15557
915.921	15488
916.034	15408
916.146	15370
916.259	15302
916.371	15389
916.483	15431
916.595	15291
916.708	15321
916.82	15226
916.932	15321
917.044	15310
917.156	15218
917.268	15089
917.38	15245
917.491	14986
917.603	15100
917.715	15157
917.826	15165
917.938	14929
918.049	14921
918.161	15039
918.272	15195
918.384	15039
918.495	14944
918.606	14880
918.717	14838
918.828	14868
918.939	14929
919.05	14731
919.161	14849
919.272	14625
919.383	14640
919.494	14842
919.604	15005
919.715	14826
919.826	14727
919.936	14819
920.047	14819
920.157	14823
920.267	14952
920.378	14720
920.488	14819
920.598	14941
920.708	15184
920.818	14891
920.928	14845
921.038	15081
921.148	15039
921.258	14743
921.368	14564
921.477	14526
921.587	14393
921.697	14305
921.806	14552
921.916	14370
922.025	14195
922.134	14142
922.244	14107
922.353	14214
922.462	14001
922.571	13970
922.68	13830
922.789	13742
922.898	13822
923.007	13784
923.116	13807
923.224	13814
923.333	13681
923.442	13590
923.55	13613
923.659	13559
923.767	13605
923.876	13601
923.984	13597
924.092	13518
924.201	13533
924.309	13563
924.417	13506
924.525	13422
924.633	13388
924.741	14347
924.849	13160
924.956	13339
925.064	13228
925.172	13133
925.279	13179
925.387	13175
925.494	13168
925.602	13274
925.709	13289
925.816	13084
925.924	13050
926.031	13179
926.138	13076
926.245	13095
926.352	13046
926.459	13183
926.566	13171
926.673	13084
926.779	12935
926.886	12935
926.993	12726
927.099	12726
927.206	12604
927.312	12642
927.419	12806
927.525	12730
927.631	12776
927.737	12589
927.843	12490
927.95	12422
928.056	12612
928.162	12563
928.267	12494
928.373	13152
928.479	12559
928.585	12319
928.69	12414
928.796	12574
928.901	12395
929.007	12273
929.112	12292
929.218	12330
929.323	12281
929.428	12292
929.533	12380
929.638	12228
929.743	12281
929.848	12186
929.953	12186
930.058	12072
930.163	11942
930.267	12015
930.372	12015
930.477	11904
930.581	12098
930.685	11942
930.79	11821
930.894	11809
930.998	11809
931.103	11920
931.207	11608
931.311	11402
931.415	11330
931.519	11162
931.623	11166
