Data from test_V78500241_3464.txt Node
Date: Fri Mar 25 16:05:47 CST 2022
User: usil
Spectrometer: V785-0024
Trigger mode: 0
Integration Time (sec): 4.000000E-1
Scans to average: 1
Nonlinearity correction enabled: false
Boxcar width: 0
Storing dark spectrum: false
XAxis mode: Wavelengths
Number of Pixels in Spectrum: 1024
>>>>>Begin Spectral Data<<<<<
801.071	29105
801.214	28908
801.356	28694
801.499	28698
801.641	28436
801.783	28554
801.926	28618
802.068	28645
802.211	28440
802.353	28405
802.496	28246
802.638	28287
802.78	28291
802.923	28192
803.065	28158
803.208	28234
803.35	28299
803.492	28459
803.635	28466
803.777	28382
803.919	28455
804.061	28843
804.204	28550
804.346	28363
804.488	28394
804.63	28649
804.773	28413
804.915	28603
805.057	28675
805.199	28489
805.341	28698
805.483	28797
805.626	28675
805.768	28622
805.91	28634
806.052	28599
806.194	28592
806.336	28949
806.478	28733
806.62	28634
806.762	28752
806.904	29025
807.046	29227
807.188	29140
807.33	29162
807.472	29223
807.614	29109
807.756	29166
807.898	28987
808.04	28793
808.182	29022
808.324	29079
808.465	28991
808.607	29315
808.749	29402
808.891	29665
809.033	29592
809.174	29330
809.316	29311
809.458	29433
809.6	29452
809.741	29539
809.883	29676
810.025	29547
810.166	29649
810.308	29676
810.45	29638
810.591	29573
810.733	29444
810.875	29512
811.016	29486
811.158	29280
811.299	29368
811.441	29615
811.582	29547
811.724	29474
811.865	29353
812.007	29402
812.148	29467
812.29	29486
812.431	29630
812.573	29695
812.714	29809
812.855	29954
812.997	29954
813.138	30239
813.279	30057
813.421	29897
813.562	29859
813.703	29726
813.845	29566
813.986	29197
814.127	29288
814.268	29265
814.41	29121
814.551	29166
814.692	29113
814.833	28968
814.974	29220
815.115	29109
815.256	28938
815.397	29003
815.539	28934
815.68	28908
815.821	28999
815.962	28938
816.103	28915
816.244	28888
816.385	28733
816.526	28740
816.666	28573
816.807	28379
816.948	28519
817.089	28569
817.23	28493
817.371	28386
817.512	28333
817.653	28325
817.793	28436
817.934	28455
818.075	28478
818.216	28519
818.356	28360
818.497	28246
818.638	28169
818.778	28143
818.919	28246
819.06	28276
819.2	28386
819.341	28565
819.481	28363
819.622	28565
819.762	28740
819.903	28713
820.043	28580
820.184	28592
820.324	28546
820.465	28778
820.605	28596
820.746	28519
820.886	28489
821.026	28554
821.167	28634
821.307	28535
821.447	28561
821.588	28371
821.728	28280
821.868	27888
822.008	28002
822.149	28010
822.289	27972
822.429	27660
822.569	27519
822.709	27591
822.849	27507
822.99	27367
823.13	27443
823.27	27397
823.41	27218
823.55	27165
823.69	27180
823.83	27382
823.97	27272
824.11	27085
824.25	27123
824.389	27123
824.529	27142
824.669	27062
824.809	27275
824.949	27116
825.089	27161
825.228	27142
825.368	27047
825.508	26971
825.648	26967
825.787	27036
825.927	27188
826.067	26960
826.206	26902
826.346	26990
826.485	27108
826.625	27013
826.765	26990
826.904	27055
827.044	26819
827.183	26887
827.323	26674
827.462	26838
827.601	26792
827.741	26602
827.88	26659
828.02	26545
828.159	26705
828.298	26598
828.437	26853
828.577	26575
828.716	26743
828.855	26564
828.994	26290
829.134	26366
829.273	26446
829.412	26404
829.551	26278
829.69	26328
829.829	26415
829.968	26355
830.107	26400
830.246	26343
830.385	26404
830.524	26240
830.663	26153
830.802	26142
830.941	25944
831.08	26043
831.219	26119
831.357	26031
831.496	26237
831.635	26058
831.774	25940
831.913	25750
832.051	25658
832.19	25666
832.329	25734
832.467	25582
832.606	25635
832.744	25544
832.883	25639
833.022	25605
833.16	25552
833.299	25674
833.437	25700
833.576	25772
833.714	25700
833.852	25925
833.991	25734
834.129	25780
834.267	25700
834.406	25696
834.544	25746
834.682	25780
834.821	25662
834.959	25997
835.097	25518
835.235	25921
835.373	25677
835.511	25651
835.65	25563
835.788	25533
835.926	25430
836.064	25331
836.202	25381
836.34	25487
836.478	25628
836.615	25476
836.753	25483
836.891	25647
837.029	25559
837.167	25468
837.305	25540
837.443	25457
837.58	25377
837.718	25384
837.856	25358
837.993	25236
838.131	25407
838.269	25255
838.406	25259
838.544	25152
838.681	24875
838.819	24932
838.956	24859
839.094	24719
839.231	24779
839.369	25122
839.506	25232
839.643	25061
839.781	24814
839.918	24821
840.055	24795
840.193	24703
840.33	24681
840.467	24916
840.604	24719
840.742	24981
840.879	24604
841.016	24719
841.153	24582
841.29	24894
841.427	24806
841.564	24726
841.701	24821
841.838	24631
841.975	24620
842.112	24448
842.249	24525
842.385	24513
842.522	24749
842.659	24635
842.796	24483
842.933	24521
843.069	24464
843.206	24502
843.343	24589
843.479	24486
843.616	24635
843.752	24254
843.889	24433
844.025	24410
844.162	24270
844.298	24384
844.435	24155
844.571	24235
844.708	24353
844.844	24410
844.98	24426
845.117	24327
845.253	24308
845.389	24243
845.525	24209
845.661	24186
845.798	24083
845.934	24064
846.07	23973
846.206	24083
846.342	24072
846.478	23996
846.614	23779
846.75	23684
846.886	23585
847.022	23847
847.158	23722
847.294	23729
847.429	23726
847.565	23680
847.701	23969
847.837	23497
847.972	23436
848.108	23516
848.244	23577
848.379	23436
848.515	23372
848.65	23239
848.786	23398
848.921	23292
849.057	23440
849.192	23528
849.328	23292
849.463	23273
849.598	23128
849.734	23189
849.869	23189
850.004	23048
850.14	23102
850.275	23018
850.41	23052
850.545	23033
850.68	22976
850.815	23143
850.95	23067
851.085	23220
851.22	23174
851.355	23094
851.49	23075
851.625	23037
851.76	22961
851.895	23048
852.03	22995
852.165	23109
852.299	23155
852.434	23170
852.569	22984
852.703	23121
852.838	23109
852.973	23254
853.107	23151
853.242	22995
853.376	22980
853.511	22847
853.645	22877
853.78	22942
853.914	22923
854.048	22908
854.183	22847
854.317	22942
854.451	23048
854.585	22858
854.72	22946
854.854	23121
854.988	22869
855.122	23018
855.256	22782
855.39	22831
855.524	22843
855.658	22904
855.792	22919
855.926	22854
856.06	22972
856.194	22877
856.327	22771
856.461	22801
856.595	22858
856.729	22866
856.862	22976
856.996	22927
857.13	23105
857.263	22976
857.397	22900
857.53	22892
857.664	22892
857.797	22980
857.931	22976
858.064	22908
858.197	22976
858.331	22911
858.464	22748
858.597	22713
858.731	22885
858.864	22771
858.997	22831
859.13	22801
859.263	22858
859.396	23025
859.529	22816
859.662	22877
859.795	22683
859.928	22889
860.061	23064
860.194	23117
860.327	22968
860.46	22987
860.592	23071
860.725	23044
860.858	22995
860.99	22809
861.123	22797
861.256	22869
861.388	22828
861.521	23630
861.653	22816
861.786	22706
861.918	22759
862.05	22733
862.183	22786
862.315	22771
862.447	22786
862.58	22793
862.712	22462
862.844	22546
862.976	22797
863.108	22645
863.24	23029
863.372	22542
863.504	22550
863.636	22573
863.768	22668
863.9	22554
864.032	22584
864.164	22691
864.296	22523
864.428	22645
864.559	22683
864.691	22596
864.823	22698
864.954	22573
865.086	22645
865.217	22459
865.349	22443
865.48	22512
865.612	22500
865.743	22546
865.875	22440
866.006	22371
866.137	22516
866.269	22356
866.4	22421
866.531	22360
866.662	22310
866.793	22382
866.924	22352
867.055	22318
867.186	22405
867.317	22379
867.448	22265
867.579	22295
867.71	22337
867.841	22329
867.972	22428
868.103	22481
868.233	22390
868.364	22481
868.495	22478
868.625	22451
868.756	22752
868.886	22546
869.017	22706
869.147	22725
869.278	22763
869.408	22596
869.539	22546
869.669	22641
869.799	22710
869.929	22698
870.06	22847
870.19	22869
870.32	22854
870.45	23022
870.58	23025
870.71	23109
870.84	23102
870.97	23071
871.1	23025
871.23	23208
871.36	23121
871.489	23113
871.619	23185
871.749	23216
871.879	23121
872.008	23311
872.138	23189
872.267	23307
872.397	23147
872.526	23140
872.656	22942
872.785	23052
872.915	23284
873.044	23284
873.173	23181
873.303	23318
873.432	23341
873.561	23284
873.69	23223
873.819	23136
873.948	23277
874.077	23318
874.206	23178
874.335	23250
874.464	23303
874.593	23421
874.722	23364
874.851	23414
874.979	23589
875.108	23512
875.237	23353
875.365	23296
875.494	23558
875.623	23463
875.751	23486
875.88	23440
876.008	23600
876.136	23585
876.265	23870
876.393	23980
876.521	23859
876.65	23973
876.778	23946
876.906	23882
877.034	23821
877.162	23790
877.29	23710
877.418	23775
877.546	23863
877.674	23783
877.802	23771
877.93	23901
878.058	23779
878.185	23703
878.313	23745
878.441	23707
878.568	23653
878.696	23722
878.824	23855
878.951	23767
879.079	23897
879.206	24007
879.333	23969
879.461	23878
879.588	23999
879.715	23855
879.842	24049
879.97	23920
880.097	23566
880.224	23623
880.351	23539
880.478	23627
880.605	23531
880.732	23649
880.859	23893
880.986	23592
881.112	23577
881.239	23455
881.366	23288
881.493	23299
881.619	23151
881.746	23231
881.872	23121
881.999	23189
882.125	23033
882.252	23193
882.378	23181
882.505	23360
882.631	23044
882.757	22812
882.883	22987
883.01	22820
883.136	22767
883.262	22862
883.388	22683
883.514	22911
883.64	22866
883.766	22782
883.892	22542
884.018	22645
884.143	22786
884.269	22892
884.395	22580
884.52	22417
884.646	22409
884.772	22474
884.897	22413
885.023	22500
885.148	22561
885.274	22672
885.399	22504
885.524	22421
885.65	22386
885.775	22489
885.9	22443
886.025	22679
886.15	22489
886.275	22398
886.4	22352
886.525	22459
886.65	22402
886.775	22382
886.9	22584
887.025	22683
887.149	22508
887.274	22249
887.399	22242
887.523	22299
887.648	22154
887.773	22226
887.897	22348
888.021	22310
888.146	22131
888.27	22352
888.395	22204
888.519	22272
888.643	22166
888.767	22284
888.891	22090
889.015	21991
889.139	22150
889.263	22101
889.387	22150
889.511	22325
889.635	22215
889.759	22059
889.883	21972
890.006	22192
890.13	22143
890.254	21895
890.377	21895
890.501	21759
890.624	21759
890.748	21827
890.871	21675
890.995	21500
891.118	21587
891.241	21534
891.364	21583
891.488	21736
891.611	21755
891.734	21667
891.857	21629
891.98	21610
892.103	21561
892.226	21481
892.349	21538
892.471	21401
892.594	21416
892.717	21583
892.839	21401
892.962	21443
893.085	21629
893.207	21477
893.33	21359
893.452	21431
893.575	21587
893.697	21523
893.819	21603
893.941	21751
894.064	21652
894.186	21469
894.308	21355
894.43	21576
894.552	21504
894.674	21504
894.796	21336
894.918	21424
895.04	21401
895.161	21568
895.283	21507
895.405	21530
895.526	21466
895.648	21469
895.769	21462
895.891	21439
896.012	21492
896.134	21466
896.255	21450
896.376	21332
896.498	21591
896.619	21507
896.74	21389
896.861	21283
896.982	21739
897.103	21835
897.224	21679
897.345	21618
897.466	21557
897.587	21504
897.708	21751
897.828	21667
897.949	21439
898.07	21466
898.19	21530
898.311	21713
898.431	21595
898.552	21618
898.672	21648
898.792	21728
898.913	21564
899.033	21496
899.153	21424
899.273	21272
899.393	21340
899.513	21249
899.633	21378
899.753	21439
899.873	21184
899.993	21477
900.113	21222
900.232	21340
900.352	21332
900.472	21119
900.591	21017
900.711	21173
900.83	21036
900.95	21275
901.069	21100
901.189	21039
901.308	20762
901.427	20667
901.546	20667
901.665	20659
901.784	20625
901.904	20587
902.023	20393
902.141	20385
902.26	20180
902.379	20187
902.498	20130
902.617	20183
902.735	20149
902.854	20119
902.973	20024
903.091	19864
903.21	19860
903.328	19871
903.446	19704
903.565	19681
903.683	19685
903.801	19495
903.919	19578
904.038	19666
904.156	19365
904.274	19487
904.392	19400
904.51	19369
904.627	19388
904.745	19419
904.863	19472
904.981	19160
905.098	19015
905.216	19091
905.334	19091
905.451	19038
905.569	18981
905.686	19061
905.803	19141
905.921	18856
906.038	18764
906.155	18798
906.272	18783
906.389	18814
906.506	18608
906.623	18551
906.74	18471
906.857	18429
906.974	18566
907.091	18578
907.208	18738
907.324	18536
907.441	18475
907.557	18346
907.674	18330
907.79	18038
907.907	18258
908.023	18285
908.139	18319
908.256	18254
908.372	18129
908.488	18110
908.604	17965
908.72	17847
908.836	18003
908.952	17866
909.068	18034
909.184	17965
909.3	17984
909.415	18095
909.531	17920
909.647	17855
909.762	17684
909.878	17646
909.993	17786
910.108	17726
910.224	17672
910.339	17604
910.454	17490
910.57	17611
910.685	17368
910.8	17707
910.915	17471
911.03	17398
911.145	17250
911.259	17235
911.374	17402
911.489	17223
911.604	17200
911.718	17003
911.833	16968
911.947	16965
912.062	16889
912.176	17102
912.291	17052
912.405	17014
912.519	17193
912.633	17113
912.748	17014
912.862	17014
912.976	16748
913.09	16717
913.204	16790
913.318	16854
913.431	16885
913.545	16885
913.659	16999
913.772	16675
913.886	16637
914	16577
914.113	16710
914.226	16702
914.34	16641
914.453	16455
914.566	16656
914.68	16493
914.793	16523
914.906	16185
915.019	16181
915.132	16093
915.245	16185
915.358	16166
915.47	16261
915.583	16226
915.696	16219
915.809	16242
915.921	16287
916.034	16135
916.146	16006
916.259	15972
916.371	16234
916.483	16090
916.595	15953
916.708	15911
916.82	15987
916.932	15945
917.044	16025
917.156	15873
917.268	15793
917.38	15759
917.491	15682
917.603	15793
917.715	15888
917.826	15911
917.938	15625
918.049	15622
918.161	15667
918.272	15762
918.384	15759
918.495	15625
918.606	15538
918.717	15416
918.828	15576
918.939	15530
919.05	15435
919.161	15405
919.272	15275
919.383	15336
919.494	15515
919.604	15652
919.715	15500
919.826	15401
919.936	15408
920.047	15515
920.157	15431
920.267	15641
920.378	15447
920.488	15534
920.598	15595
920.708	15781
920.818	15576
920.928	15656
921.038	15808
921.148	15599
921.258	15401
921.368	15370
921.477	15131
921.587	15161
921.697	15055
921.806	15176
921.916	15081
922.025	14883
922.134	14735
922.244	14606
922.353	14880
922.462	14750
922.571	14606
922.68	14427
922.789	14419
922.898	14408
923.007	14362
923.116	14473
923.224	14415
923.333	14415
923.442	14233
923.55	14256
923.659	14332
923.767	14317
923.876	14229
923.984	14256
924.092	14142
924.201	14233
924.309	14164
924.417	14161
924.525	14115
924.633	14073
924.741	14948
924.849	13967
924.956	14035
925.064	13913
925.172	13696
925.279	13818
925.387	13803
925.494	13723
925.602	13959
925.709	13826
925.816	13761
925.924	13765
926.031	13769
926.138	13715
926.245	13788
926.352	13693
926.459	13712
926.566	13746
926.673	13616
926.779	13537
926.886	13601
926.993	13381
927.099	13358
927.206	13308
927.312	13236
927.419	13316
927.525	13343
927.631	13377
927.737	13304
927.843	13133
927.95	13012
928.056	13141
928.162	13179
928.267	13152
928.373	13780
928.479	13209
928.585	13027
928.69	13004
928.796	13076
928.901	13034
929.007	12791
929.112	12962
929.218	12947
929.323	12859
929.428	12856
929.533	12993
929.638	12726
929.743	12829
929.848	12871
929.953	12753
930.058	12635
930.163	12509
930.267	12490
930.372	12646
930.477	12437
930.581	12677
930.685	12486
930.79	12433
930.894	12410
930.998	12327
931.103	12498
931.207	12110
931.311	11992
931.415	12019
931.519	11783
931.623	11760
