Data from test_V78500241_1202.txt Node
Date: Fri Mar 25 15:50:07 CST 2022
User: usil
Spectrometer: V785-0024
Trigger mode: 0
Integration Time (sec): 4.000000E-1
Scans to average: 1
Nonlinearity correction enabled: false
Boxcar width: 0
Storing dark spectrum: false
XAxis mode: Wavelengths
Number of Pixels in Spectrum: 1024
>>>>>Begin Spectral Data<<<<<
801.071	28691
801.214	28660
801.356	28306
801.499	28409
801.641	28204
801.783	28261
801.926	28284
802.068	28360
802.211	28215
802.353	28204
802.496	28010
802.638	27922
802.78	27987
802.923	27850
803.065	27945
803.208	27934
803.35	27979
803.492	28162
803.635	28261
803.777	28082
803.919	28192
804.061	28489
804.204	28135
804.346	28249
804.488	28150
804.63	28211
804.773	28093
804.915	28147
805.057	28280
805.199	28135
805.341	28401
805.483	28394
805.626	28474
805.768	28234
805.91	28310
806.052	28470
806.194	28325
806.336	28649
806.478	28360
806.62	28276
806.762	28565
806.904	28611
807.046	28896
807.188	28835
807.33	28752
807.472	28824
807.614	28664
807.756	28831
807.898	28706
808.04	28607
808.182	28660
808.324	28664
808.465	28698
808.607	28953
808.749	29181
808.891	29151
809.033	29223
809.174	29200
809.316	29052
809.458	29113
809.6	29064
809.741	29128
809.883	29277
810.025	29375
810.166	29478
810.308	29379
810.45	29387
810.591	29140
810.733	29022
810.875	29098
811.016	28999
811.158	28824
811.299	29334
811.441	29261
811.582	29254
811.724	29029
811.865	29018
812.007	29170
812.148	29200
812.29	29178
812.431	29296
812.573	29398
812.714	29444
812.855	29630
812.997	29627
813.138	29878
813.279	29767
813.421	29623
813.562	29573
813.703	29493
813.845	29334
813.986	29014
814.127	28900
814.268	28702
814.41	28976
814.551	28786
814.692	28930
814.833	28721
814.974	28797
815.115	28942
815.256	28713
815.397	28824
815.539	28607
815.68	28672
815.821	28535
815.962	28767
816.103	28485
816.244	28421
816.385	28462
816.526	28299
816.666	28124
816.807	28036
816.948	28242
817.089	28162
817.23	28128
817.371	28150
817.512	28147
817.653	28070
817.793	28048
817.934	28139
818.075	28109
818.216	28097
818.356	28116
818.497	28059
818.638	27850
818.778	27899
818.919	27850
819.06	27941
819.2	27953
819.341	28169
819.481	28135
819.622	28261
819.762	28405
819.903	28329
820.043	28314
820.184	28401
820.324	28207
820.465	28314
820.605	28131
820.746	28120
820.886	28097
821.026	28154
821.167	28143
821.307	28257
821.447	28196
821.588	27994
821.728	28112
821.868	27854
822.008	27603
822.149	27671
822.289	27675
822.429	27427
822.569	27287
822.709	27359
822.849	27287
822.99	27093
823.13	27108
823.27	27123
823.41	26963
823.55	26853
823.69	27100
823.83	26845
823.97	26956
824.11	26746
824.25	26815
824.389	26861
824.529	26796
824.669	26815
824.809	26914
824.949	26785
825.089	26792
825.228	26971
825.368	26640
825.508	26609
825.648	26667
825.787	26674
825.927	26773
826.067	26629
826.206	26686
826.346	26739
826.485	26621
826.625	26518
826.765	26674
826.904	26727
827.044	26465
827.183	26328
827.323	26469
827.462	26309
827.601	26533
827.741	26332
827.88	26412
828.02	26351
828.159	26202
828.298	26339
828.437	26396
828.577	26195
828.716	26488
828.855	26229
828.994	26077
829.134	26084
829.273	26122
829.412	26096
829.551	26001
829.69	26096
829.829	26062
829.968	26107
830.107	26149
830.246	25993
830.385	25883
830.524	26008
830.663	25951
830.802	25852
830.941	25670
831.08	25643
831.219	25693
831.357	25906
831.496	25940
831.635	25639
831.774	25578
831.913	25529
832.051	25445
832.19	25438
832.329	25499
832.467	25388
832.606	25335
832.744	25373
832.883	25236
833.022	25331
833.16	25255
833.299	25403
833.437	25392
833.576	25339
833.714	25552
833.852	25369
833.991	25476
834.129	25529
834.267	25563
834.406	25350
834.544	25438
834.682	25411
834.821	25293
834.959	25499
835.097	25209
835.235	25422
835.373	25335
835.511	25422
835.65	25209
835.788	25198
835.926	25114
836.064	25000
836.202	24973
836.34	25308
836.478	25263
836.615	25187
836.753	25244
836.891	25187
837.029	25198
837.167	25164
837.305	25194
837.443	25069
837.58	25023
837.718	25118
837.856	24989
837.993	24973
838.131	25004
838.269	24867
838.406	24897
838.544	24715
838.681	24658
838.819	24578
838.956	24669
839.094	24544
839.231	24532
839.369	24646
839.506	25000
839.643	24798
839.781	24414
839.918	24403
840.055	24544
840.193	24384
840.33	24445
840.467	24532
840.604	24494
840.742	24631
840.879	24330
841.016	24407
841.153	24247
841.29	24494
841.427	24448
841.564	24445
841.701	24452
841.838	24296
841.975	24384
842.112	24399
842.249	24243
842.385	24182
842.522	24380
842.659	24266
842.796	24201
842.933	24140
843.069	24140
843.206	24159
843.343	24155
843.479	24197
843.616	24174
843.752	23954
843.889	23863
844.025	23992
844.162	23927
844.298	23958
844.435	23916
844.571	23878
844.708	23980
844.844	24098
844.98	24117
845.117	24213
845.253	23882
845.389	23802
845.525	23859
845.661	23771
845.798	23657
845.934	23638
846.07	23539
846.206	23771
846.342	23805
846.478	23672
846.614	23558
846.75	23330
846.886	23383
847.022	23452
847.158	23425
847.294	23436
847.429	23376
847.565	23204
847.701	23665
847.837	23204
847.972	23151
848.108	23094
848.244	23162
848.379	22980
848.515	22957
848.65	23102
848.786	23033
848.921	22934
849.057	23052
849.192	22942
849.328	23006
849.463	22991
849.598	22847
849.734	22816
849.869	22839
850.004	22710
850.14	22717
850.275	22805
850.41	22691
850.545	22645
850.68	22580
850.815	22603
850.95	22668
851.085	22843
851.22	22862
851.355	22843
851.49	22702
851.625	22713
851.76	22599
851.895	22618
852.03	22675
852.165	22691
852.299	22786
852.434	22767
852.569	22927
852.703	22710
852.838	22824
852.973	22866
853.107	22774
853.242	22584
853.376	22500
853.511	22367
853.645	22474
853.78	22752
853.914	22573
854.048	22424
854.183	22584
854.317	22561
854.451	22729
854.585	22599
854.72	22508
854.854	22683
854.988	22405
855.122	22645
855.256	22363
855.39	22565
855.524	22527
855.658	22649
855.792	22508
855.926	22538
856.06	22603
856.194	22470
856.327	22455
856.461	22390
856.595	22474
856.729	22607
856.862	22653
856.996	22577
857.13	22573
857.263	22645
857.397	22706
857.53	22546
857.664	22592
857.797	22538
857.931	22702
858.064	22622
858.197	22603
858.331	22508
858.464	22470
858.597	22565
858.731	22428
858.864	22512
858.997	22512
859.13	22481
859.263	22622
859.396	22626
859.529	22668
859.662	22394
859.795	22470
859.928	22466
860.061	22649
860.194	22611
860.327	22527
860.46	22554
860.592	22599
860.725	22729
860.858	22565
860.99	22660
861.123	22478
861.256	22432
861.388	22596
861.521	23212
861.653	22485
861.786	22341
861.918	22421
862.05	22443
862.183	22356
862.315	22485
862.447	22554
862.58	22462
862.712	22207
862.844	22181
862.976	22352
863.108	22333
863.24	22672
863.372	22078
863.504	22219
863.636	22253
863.768	22204
863.9	22268
864.032	22280
864.164	22177
864.296	22192
864.428	22363
864.559	22322
864.691	22337
864.823	22280
864.954	22230
865.086	22268
865.217	22124
865.349	22090
865.48	22242
865.612	22162
865.743	22253
865.875	22223
866.006	22253
866.137	22059
866.269	22078
866.4	22139
866.531	22131
866.662	21975
866.793	22067
866.924	21987
867.055	22078
867.186	22048
867.317	22051
867.448	22067
867.579	21956
867.71	21934
867.841	21915
867.972	22074
868.103	22070
868.233	22040
868.364	21949
868.495	22109
868.625	22325
868.756	22466
868.886	22173
869.017	22223
869.147	22318
869.278	22405
869.408	22337
869.539	22318
869.669	22432
869.799	22280
869.929	22386
870.06	22352
870.19	22599
870.32	22618
870.45	22588
870.58	22698
870.71	22797
870.84	22774
870.97	22641
871.1	22611
871.23	22698
871.36	22831
871.489	22706
871.619	22957
871.749	22881
871.879	23014
872.008	22968
872.138	22946
872.267	23018
872.397	22759
872.526	22668
872.656	22713
872.785	22687
872.915	22976
873.044	22995
873.173	22991
873.303	22968
873.432	22915
873.561	22889
873.69	22904
873.819	22942
873.948	22961
874.077	22961
874.206	22847
874.335	22816
874.464	23113
874.593	23227
874.722	23060
874.851	23159
874.979	23109
875.108	23121
875.237	23128
875.365	22968
875.494	22946
875.623	23170
875.751	23102
875.88	23060
876.008	23280
876.136	23337
876.265	23501
876.393	23608
876.521	23570
876.65	23642
876.778	23516
876.906	23337
877.034	23425
877.162	23509
877.29	23334
877.418	23402
877.546	23535
877.674	23410
877.802	23433
877.93	23459
878.058	23402
878.185	23277
878.313	23337
878.441	23398
878.568	23334
878.696	23379
878.824	23364
878.951	23414
879.079	23562
879.206	23771
879.333	23657
879.461	23509
879.588	23554
879.715	23627
879.842	23680
879.97	23448
880.097	23254
880.224	23220
880.351	23292
880.478	23223
880.605	23341
880.732	23246
880.859	23440
880.986	23185
881.112	23235
881.239	23105
881.366	22987
881.493	22885
881.619	22752
881.746	22911
881.872	22881
881.999	22767
882.125	22793
882.252	22824
882.378	22653
882.505	22824
882.631	22672
882.757	22603
882.883	22546
883.01	22459
883.136	22550
883.262	22390
883.388	22409
883.514	22516
883.64	22470
883.766	22481
883.892	22261
884.018	22489
884.143	22478
884.269	22519
884.395	22280
884.52	22097
884.646	22044
884.772	22090
884.897	21991
885.023	22036
885.148	22272
885.274	22291
885.399	22268
885.524	22147
885.65	22143
885.775	22093
885.9	22025
886.025	22234
886.15	22166
886.275	22147
886.4	21949
886.525	22143
886.65	22044
886.775	22002
886.9	22116
887.025	22417
887.149	22128
887.274	21892
887.399	21972
887.523	21846
887.648	21831
887.773	21869
887.897	21983
888.021	21911
888.146	21854
888.27	21979
888.395	21972
888.519	21797
888.643	21922
888.767	22070
888.891	21671
889.015	21743
889.139	21770
889.263	21622
889.387	21717
889.511	21895
889.635	21732
889.759	21667
889.883	21610
890.006	21564
890.13	21713
890.254	21660
890.377	21530
890.501	21458
890.624	21424
890.748	21542
890.871	21469
890.995	21298
891.118	21119
891.241	21199
891.364	21249
891.488	21287
891.611	21252
891.734	21218
891.857	21302
891.98	21165
892.103	21321
892.226	21226
892.349	21230
892.471	20883
892.594	21157
892.717	21226
892.839	21100
892.962	21070
893.085	21211
893.207	21146
893.33	21043
893.452	21062
893.575	21089
893.697	21089
893.819	21226
893.941	21329
894.064	21192
894.186	21093
894.308	20990
894.43	21291
894.552	21252
894.674	21211
894.796	21066
894.918	21062
895.04	20982
895.161	21036
895.283	21264
895.405	21032
895.526	21123
895.648	21036
895.769	20986
895.891	21108
896.012	21142
896.134	21085
896.255	21089
896.376	21146
896.498	21112
896.619	21100
896.74	20975
896.861	21165
896.982	21348
897.103	21667
897.224	21439
897.345	21279
897.466	21260
897.587	21310
897.708	21450
897.828	21397
897.949	21272
898.07	21127
898.19	21169
898.311	21386
898.431	21348
898.552	21363
898.672	21378
898.792	21389
898.913	21298
899.033	21165
899.153	21089
899.273	21047
899.393	21165
899.513	21108
899.633	21074
899.753	21199
899.873	21062
899.993	21112
900.113	21066
900.232	21108
900.352	20952
900.472	20807
900.591	20857
900.711	20823
900.83	20785
900.95	20929
901.069	20975
901.189	20724
901.308	20526
901.427	20381
901.546	20454
901.665	20442
901.784	20446
901.904	20164
902.023	20210
902.141	19951
902.26	19978
902.379	19928
902.498	19982
902.617	19902
902.735	19944
902.854	19723
902.973	19765
903.091	19594
903.21	19582
903.328	19525
903.446	19460
903.565	19362
903.683	19335
903.801	19293
903.919	19247
904.038	19278
904.156	19164
904.274	19152
904.392	19183
904.51	19145
904.627	19065
904.745	19145
904.863	19141
904.981	18882
905.098	18776
905.216	18696
905.334	18764
905.451	18764
905.569	18791
905.686	18840
905.803	18764
905.921	18521
906.038	18715
906.155	18460
906.272	18479
906.389	18426
906.506	18338
906.623	18380
906.74	18330
906.857	18232
906.974	18136
907.091	18380
907.208	18292
907.324	18292
907.441	18167
907.557	18038
907.674	17954
907.79	17920
907.907	17923
908.023	18049
908.139	18079
908.256	17999
908.372	17939
908.488	17832
908.604	17710
908.72	17691
908.836	17748
908.952	17665
909.068	17783
909.184	17832
909.3	17695
909.415	17802
909.531	17722
909.647	17539
909.762	17395
909.878	17360
909.993	17379
910.108	17478
910.224	17356
910.339	17341
910.454	17334
910.57	17216
910.685	17159
910.8	17433
910.915	17273
911.03	17212
911.145	17109
911.259	16991
911.374	17052
911.489	16980
911.604	16843
911.718	16664
911.833	16843
911.947	16656
912.062	16622
912.176	16782
912.291	16801
912.405	16694
912.519	17014
912.633	16885
912.748	16713
912.862	16801
912.976	16558
913.09	16436
913.204	16478
913.318	16637
913.431	16691
913.545	16641
913.659	16592
913.772	16512
913.886	16333
914	16306
914.113	16382
914.226	16413
914.34	16386
914.453	16192
914.566	16337
914.68	16272
914.793	16177
914.906	16032
915.019	15953
915.132	15842
915.245	15937
915.358	15911
915.47	15930
915.583	15903
915.696	15873
915.809	15979
915.921	16090
916.034	15823
916.146	15831
916.259	15804
916.371	15846
916.483	15888
916.595	15759
916.708	15701
916.82	15671
916.932	15644
917.044	15781
917.156	15644
917.268	15534
917.38	15595
917.491	15477
917.603	15523
917.715	15618
917.826	15534
917.938	15363
918.049	15492
918.161	15458
918.272	15625
918.384	15584
918.495	15439
918.606	15287
918.717	15256
918.828	15287
918.939	15348
919.05	15272
919.161	15275
919.272	15051
919.383	15047
919.494	15203
919.604	15469
919.715	15393
919.826	15150
919.936	15218
920.047	15359
920.157	15283
920.267	15408
920.378	15180
920.488	15161
920.598	15393
920.708	15469
920.818	15336
920.928	15370
921.038	15469
921.148	15485
921.258	15154
921.368	15070
921.477	15024
921.587	15017
921.697	14872
921.806	14998
921.916	14883
922.025	14708
922.134	14575
922.244	14636
922.353	14556
922.462	14404
922.571	14408
922.68	14290
922.789	14252
922.898	14233
923.007	14199
923.116	14240
923.224	14248
923.333	14256
923.442	14073
923.55	14111
923.659	14115
923.767	14088
923.876	13982
923.984	14161
924.092	13841
924.201	13986
924.309	13974
924.417	14024
924.525	13967
924.633	13917
924.741	14610
924.849	13662
924.956	13830
925.064	13670
925.172	13518
925.279	13620
925.387	13609
925.494	13590
925.602	13753
925.709	13594
925.816	13537
925.924	13605
926.031	13700
926.138	13586
926.245	13582
926.352	13407
926.459	13491
926.566	13552
926.673	13388
926.779	13343
926.886	13285
926.993	13206
927.099	13228
927.206	13118
927.312	13129
927.419	13266
927.525	13137
927.631	13187
927.737	13027
927.843	12916
927.95	12825
928.056	12958
928.162	12916
928.267	13004
928.373	13685
928.479	13053
928.585	12703
928.69	12859
928.796	12993
928.901	12829
929.007	12715
929.112	12749
929.218	12760
929.323	12703
929.428	12642
929.533	12772
929.638	12623
929.743	12665
929.848	12677
929.953	12642
930.058	12509
930.163	12353
930.267	12391
930.372	12441
930.477	12338
930.581	12532
930.685	12334
930.79	12171
930.894	12209
930.998	12140
931.103	12357
931.207	11996
931.311	11904
931.415	11779
931.519	11592
931.623	11562
