Data from test_V78500241_1719.txt Node
Date: Fri Mar 25 15:53:42 CST 2022
User: usil
Spectrometer: V785-0024
Trigger mode: 0
Integration Time (sec): 4.000000E-1
Scans to average: 1
Nonlinearity correction enabled: false
Boxcar width: 0
Storing dark spectrum: false
XAxis mode: Wavelengths
Number of Pixels in Spectrum: 1024
>>>>>Begin Spectral Data<<<<<
801.071	28299
801.214	28234
801.356	28070
801.499	28074
801.641	27972
801.783	27907
801.926	27899
802.068	27831
802.211	27842
802.353	27724
802.496	27701
802.638	27568
802.78	27557
802.923	27523
803.065	27469
803.208	27507
803.35	27663
803.492	27701
803.635	27759
803.777	27690
803.919	27778
804.061	28082
804.204	27785
804.346	27751
804.488	27732
804.63	27736
804.773	27736
804.915	27819
805.057	27956
805.199	27850
805.341	27816
805.483	27869
805.626	27888
805.768	27835
805.91	27918
806.052	28006
806.194	27899
806.336	28131
806.478	28006
806.62	27945
806.762	28150
806.904	28223
807.046	28451
807.188	28215
807.33	28386
807.472	28466
807.614	28287
807.756	28443
807.898	28394
808.04	28246
808.182	28105
808.324	28314
808.465	28348
808.607	28542
808.749	28573
808.891	28660
809.033	28793
809.174	28729
809.316	28717
809.458	28531
809.6	28565
809.741	28812
809.883	28820
810.025	28824
810.166	28877
810.308	28869
810.45	28850
810.591	28790
810.733	28706
810.875	28508
811.016	28500
811.158	28542
811.299	28687
811.441	28771
811.582	28839
811.724	28717
811.865	28481
812.007	28538
812.148	28626
812.29	28691
812.431	28767
812.573	28953
812.714	29018
812.855	29044
812.997	29299
813.138	29273
813.279	29227
813.421	29174
813.562	29143
813.703	28957
813.845	28854
813.986	28523
814.127	28436
814.268	28409
814.41	28249
814.551	28246
814.692	28390
814.833	28314
814.974	28352
815.115	28360
815.256	28147
815.397	28196
815.539	28280
815.68	28150
815.821	28234
815.962	28154
816.103	28070
816.244	28067
816.385	27797
816.526	27831
816.666	27656
816.807	27637
816.948	27648
817.089	27831
817.23	27743
817.371	27698
817.512	27614
817.653	27622
817.793	27606
817.934	27568
818.075	27633
818.216	27694
818.356	27526
818.497	27469
818.638	27351
818.778	27302
818.919	27439
819.06	27454
819.2	27504
819.341	27557
819.481	27534
819.622	27720
819.762	27956
819.903	27953
820.043	27793
820.184	27819
820.324	27880
820.465	27743
820.605	27705
820.746	27778
820.886	27549
821.026	27728
821.167	27759
821.307	27739
821.447	27580
821.588	27553
821.728	27420
821.868	27176
822.008	27058
822.149	27108
822.289	27074
822.429	26956
822.569	26781
822.709	26785
822.849	26705
822.99	26556
823.13	26488
823.27	26621
823.41	26343
823.55	26343
823.69	26240
823.83	26556
823.97	26275
824.11	26324
824.25	26180
824.389	26286
824.529	26275
824.669	26263
824.809	26400
824.949	26431
825.089	26282
825.228	26221
825.368	26005
825.508	26149
825.648	26138
825.787	26119
825.927	26043
826.067	26088
826.206	26195
826.346	26164
826.485	26077
826.625	26050
826.765	26119
826.904	26210
827.044	25940
827.183	25868
827.323	25719
827.462	25849
827.601	25799
827.741	25814
827.88	25944
828.02	25871
828.159	25837
828.298	25826
828.437	25765
828.577	25807
828.716	25963
828.855	25875
828.994	25468
829.134	25559
829.273	25525
829.412	25479
829.551	25548
829.69	25510
829.829	25422
829.968	25548
830.107	25681
830.246	25533
830.385	25438
830.524	25514
830.663	25247
830.802	25251
830.941	25206
831.08	25031
831.219	25168
831.357	25118
831.496	25308
831.635	25156
831.774	25031
831.913	24973
832.051	24875
832.19	24981
832.329	24913
832.467	24772
832.606	24654
832.744	24711
832.883	24711
833.022	24696
833.16	24840
833.299	24856
833.437	24863
833.576	24901
833.714	24844
833.852	24909
833.991	24966
834.129	24989
834.267	24985
834.406	24867
834.544	24882
834.682	24916
834.821	24825
834.959	25023
835.097	24768
835.235	24840
835.373	24730
835.511	24779
835.65	24650
835.788	24741
835.926	24711
836.064	24388
836.202	24498
836.34	24642
836.478	24817
836.615	24734
836.753	24772
836.891	24719
837.029	24745
837.167	24517
837.305	24665
837.443	24517
837.58	24380
837.718	24551
837.856	24570
837.993	24623
838.131	24441
838.269	24232
838.406	24369
838.544	24403
838.681	24220
838.819	24167
838.956	24117
839.094	23992
839.231	24163
839.369	24110
839.506	24323
839.643	24178
839.781	23935
839.918	23942
840.055	23961
840.193	23969
840.33	23779
840.467	24015
840.604	24003
840.742	24060
840.879	23783
841.016	23824
841.153	23680
841.29	23969
841.427	23916
841.564	23920
841.701	23908
841.838	23859
841.975	23646
842.112	23893
842.249	23843
842.385	23630
842.522	23923
842.659	23665
842.796	23615
842.933	23562
843.069	23657
843.206	23585
843.343	23649
843.479	23638
843.616	23604
843.752	23429
843.889	23387
844.025	23528
844.162	23402
844.298	23520
844.435	23277
844.571	23433
844.708	23364
844.844	23680
844.98	23543
845.117	23520
845.253	23353
845.389	23406
845.525	23349
845.661	23322
845.798	23250
845.934	23197
846.07	23235
846.206	23239
846.342	23406
846.478	23124
846.614	22919
846.75	22839
846.886	22965
847.022	22927
847.158	22934
847.294	22862
847.429	22904
847.565	22820
847.701	23071
847.837	22599
847.972	22694
848.108	22729
848.244	22733
848.379	22500
848.515	22421
848.65	22455
848.786	22478
848.921	22519
849.057	22641
849.192	22466
849.328	22523
849.463	22390
849.598	22443
849.734	22291
849.869	22246
850.004	22234
850.14	22333
850.275	22303
850.41	22097
850.545	22109
850.68	22219
850.815	22280
850.95	22124
851.085	22390
851.22	22303
851.355	22337
851.49	22169
851.625	22173
851.76	22166
851.895	22261
852.03	22230
852.165	22280
852.299	22310
852.434	22306
852.569	22181
852.703	22105
852.838	22265
852.973	22432
853.107	22371
853.242	22200
853.376	22082
853.511	21956
853.645	21987
853.78	22010
853.914	22082
854.048	22086
854.183	21960
854.317	22097
854.451	22310
854.585	22074
854.72	22044
854.854	22185
854.988	21956
855.122	22074
855.256	21854
855.39	22067
855.524	22010
855.658	21960
855.792	22154
855.926	22048
856.06	22074
856.194	22147
856.327	22074
856.461	21873
856.595	21937
856.729	21949
856.862	22162
856.996	22112
857.13	22097
857.263	22230
857.397	22177
857.53	22070
857.664	22025
857.797	22090
857.931	22124
858.064	22124
858.197	22154
858.331	22044
858.464	21994
858.597	21983
858.731	22032
858.864	21991
858.997	21960
859.13	22002
859.263	21964
859.396	22181
859.529	22013
859.662	22078
859.795	21983
859.928	22070
860.061	22150
860.194	22234
860.327	22070
860.46	22082
860.592	22139
860.725	22177
860.858	22177
860.99	22067
861.123	21926
861.256	21934
861.388	22044
861.521	22752
861.653	21819
861.786	21888
861.918	21823
862.05	21937
862.183	21949
862.315	22029
862.447	22082
862.58	21987
862.712	21808
862.844	21713
862.976	21857
863.108	21823
863.24	22135
863.372	21663
863.504	21724
863.636	21781
863.768	21789
863.9	21770
864.032	21720
864.164	21724
864.296	21728
864.428	21720
864.559	21762
864.691	21926
864.823	21842
864.954	21747
865.086	21686
865.217	21545
865.349	21603
865.48	21671
865.612	21762
865.743	21827
865.875	21648
866.006	21599
866.137	21557
866.269	21736
866.4	21656
866.531	21583
866.662	21530
866.793	21610
866.924	21557
867.055	21500
867.186	21724
867.317	21500
867.448	21519
867.579	21583
867.71	21485
867.841	21477
867.972	21504
868.103	21500
868.233	21450
868.364	21682
868.495	21625
868.625	21861
868.756	21903
868.886	21705
869.017	21797
869.147	21953
869.278	21953
869.408	21850
869.539	21717
869.669	21827
869.799	21873
869.929	21960
870.06	22013
870.19	22124
870.32	21979
870.45	22158
870.58	22329
870.71	22341
870.84	22417
870.97	22272
871.1	22242
871.23	22344
871.36	22428
871.489	22299
871.619	22421
871.749	22394
871.879	22360
872.008	22421
872.138	22333
872.267	22428
872.397	22291
872.526	22139
872.656	22242
872.785	22166
872.915	22466
873.044	22390
873.173	22394
873.303	22367
873.432	22398
873.561	22535
873.69	22523
873.819	22390
873.948	22382
874.077	22497
874.206	22428
874.335	22478
874.464	22565
874.593	22664
874.722	22634
874.851	22622
874.979	22656
875.108	22698
875.237	22683
875.365	22538
875.494	22641
875.623	22679
875.751	22557
875.88	22656
876.008	22786
876.136	22805
876.265	22991
876.393	23083
876.521	23159
876.65	23121
876.778	23056
876.906	23033
877.034	22927
877.162	22968
877.29	22953
877.418	23044
877.546	23022
877.674	22911
877.802	23064
877.93	22984
878.058	22847
878.185	22805
878.313	22980
878.441	22915
878.568	22999
878.696	23014
878.824	22949
878.951	23041
879.079	23235
879.206	23292
879.333	23181
879.461	23071
879.588	23060
879.715	23117
879.842	23235
879.97	23140
880.097	22824
880.224	22816
880.351	22892
880.478	22790
880.605	22698
880.732	22767
880.859	23113
880.986	22805
881.112	22812
881.239	22725
881.366	22508
881.493	22409
881.619	22386
881.746	22417
881.872	22325
881.999	22386
882.125	22211
882.252	22451
882.378	22375
882.505	22565
882.631	22246
882.757	22219
882.883	22055
883.01	22166
883.136	22051
883.262	21949
883.388	21808
883.514	22109
883.64	21991
883.766	21945
883.892	21842
884.018	21736
884.143	22036
884.269	22101
884.395	21747
884.52	21732
884.646	21637
884.772	21644
884.897	21644
885.023	21709
885.148	21846
885.274	21823
885.399	21797
885.524	21762
885.65	21720
885.775	21682
885.9	21603
886.025	21724
886.15	21728
886.275	21652
886.4	21496
886.525	21648
886.65	21648
886.775	21580
886.9	21766
887.025	21899
887.149	21709
887.274	21469
887.399	21386
887.523	21469
887.648	21370
887.773	21416
887.897	21469
888.021	21408
888.146	21355
888.27	21504
888.395	21553
888.519	21485
888.643	21443
888.767	21492
888.891	21374
889.015	21313
889.139	21355
889.263	21306
889.387	21245
889.511	21458
889.635	21378
889.759	21226
889.883	21298
890.006	21188
890.13	21252
890.254	21203
890.377	21226
890.501	21005
890.624	20929
890.748	21123
890.871	20944
890.995	20785
891.118	20640
891.241	20792
891.364	20830
891.488	20845
891.611	20868
891.734	20857
891.857	20788
891.98	20796
892.103	20868
892.226	20743
892.349	20746
892.471	20590
892.594	20731
892.717	20773
892.839	20708
892.962	20731
893.085	20724
893.207	20617
893.33	20518
893.452	20659
893.575	20697
893.697	20640
893.819	20838
893.941	20857
894.064	20941
894.186	20613
894.308	20518
894.43	20792
894.552	20823
894.674	20667
894.796	20632
894.918	20697
895.04	20724
895.161	20746
895.283	20606
895.405	20552
895.526	20613
895.648	20670
895.769	20716
895.891	20655
896.012	20636
896.134	20777
896.255	20693
896.376	20712
896.498	20682
896.619	20724
896.74	20716
896.861	20636
896.982	21176
897.103	21024
897.224	20952
897.345	21001
897.466	20853
897.587	20918
897.708	21104
897.828	20838
897.949	20807
898.07	20712
898.19	20823
898.311	20853
898.431	20944
898.552	21009
898.672	20918
898.792	20910
898.913	20952
899.033	20815
899.153	20781
899.273	20503
899.393	20625
899.513	20670
899.633	20697
899.753	20571
899.873	20457
899.993	20644
900.113	20625
900.232	20629
900.352	20560
900.472	20393
900.591	20442
900.711	20507
900.83	20355
900.95	20514
901.069	20518
901.189	20256
901.308	20084
901.427	19989
901.546	19978
901.665	19982
901.784	20065
901.904	19799
902.023	19803
902.141	19639
902.26	19559
902.379	19594
902.498	19468
902.617	19419
902.735	19590
902.854	19510
902.973	19373
903.091	19164
903.21	19209
903.328	19133
903.446	19034
903.565	18882
903.683	18954
903.801	18837
903.919	18867
904.038	18840
904.156	18673
904.274	18783
904.392	18749
904.51	18722
904.627	18677
904.745	18757
904.863	18817
904.981	18631
905.098	18323
905.216	18365
905.334	18407
905.451	18460
905.569	18281
905.686	18460
905.803	18384
905.921	18266
906.038	18273
906.155	18076
906.272	18159
906.389	18140
906.506	17878
906.623	17920
906.74	17923
906.857	17805
906.974	17912
907.091	18007
907.208	17992
907.324	17836
907.441	17798
907.557	17566
907.674	17630
907.79	17592
907.907	17638
908.023	17615
908.139	17653
908.256	17600
908.372	17509
908.488	17406
908.604	17353
908.72	17204
908.836	17406
908.952	17288
909.068	17311
909.184	17376
909.3	17482
909.415	17341
909.531	17395
909.647	17151
909.762	17090
909.878	17079
909.993	17045
910.108	17056
910.224	17006
910.339	17018
910.454	16812
910.57	16866
910.685	16710
910.8	16991
910.915	16980
911.03	16801
911.145	16630
911.259	16565
911.374	16649
911.489	16478
911.604	16538
911.718	16306
911.833	16386
911.947	16306
912.062	16215
912.176	16367
912.291	16386
912.405	16306
912.519	16558
912.633	16558
912.748	16474
912.862	16303
912.976	16162
913.09	16071
913.204	16006
913.318	16166
913.431	16265
913.545	16143
913.659	16325
913.772	16120
913.886	16032
914	15972
914.113	16036
914.226	15972
914.34	16013
914.453	15717
914.566	15964
914.68	15915
914.793	15911
914.906	15622
915.019	15515
915.132	15568
915.245	15580
915.358	15526
915.47	15561
915.583	15614
915.696	15690
915.809	15717
915.921	15713
916.034	15507
916.146	15477
916.259	15420
916.371	15481
916.483	15584
916.595	15386
916.708	15416
916.82	15386
916.932	15291
917.044	15275
917.156	15298
917.268	15188
917.38	15268
917.491	15222
917.603	15173
917.715	15332
917.826	15313
917.938	15203
918.049	14937
918.161	15150
918.272	15260
918.384	15351
918.495	15066
918.606	14986
918.717	14937
918.828	15077
918.939	14971
919.05	14872
919.161	14853
919.272	14792
919.383	14804
919.494	15017
919.604	15138
919.715	14891
919.826	14861
919.936	14902
920.047	14994
920.157	14906
920.267	15218
920.378	14979
920.488	14929
920.598	15116
920.708	15184
920.818	15001
920.928	15005
921.038	15173
921.148	15169
921.258	14902
921.368	14674
921.477	14743
921.587	14636
921.697	14492
921.806	14636
921.916	14606
922.025	14389
922.134	14240
922.244	14294
922.353	14332
922.462	14195
922.571	14088
922.68	14012
922.789	13894
922.898	13993
923.007	13868
923.116	13963
923.224	13932
923.333	13811
923.442	13776
923.55	13818
923.659	13738
923.767	13830
923.876	13689
923.984	13700
924.092	13632
924.201	13693
924.309	13594
924.417	13620
924.525	13518
924.633	13491
924.741	14309
924.849	13419
924.956	13540
925.064	13411
925.172	13266
925.279	13209
925.387	13343
925.494	13270
925.602	13403
925.709	13343
925.816	13190
925.924	13289
926.031	13266
926.138	13213
926.245	13285
926.352	13225
926.459	13297
926.566	13384
926.673	13190
926.779	13046
926.886	12970
926.993	12848
927.099	12954
927.206	12817
927.312	12825
927.419	12913
927.525	12814
927.631	12863
927.737	12715
927.843	12654
927.95	12616
928.056	12703
928.162	12700
928.267	12665
928.373	13346
928.479	12768
928.585	12509
928.69	12703
928.796	12662
928.901	12517
929.007	12399
929.112	12555
929.218	12467
929.323	12410
929.428	12403
929.533	12467
929.638	12270
929.743	12342
929.848	12433
929.953	12372
930.058	12205
930.163	12041
930.267	12064
930.372	12224
930.477	12003
930.581	12262
930.685	12133
930.79	11931
930.894	11996
930.998	11878
931.103	12068
931.207	11672
931.311	11657
931.415	11570
931.519	11433
931.623	11322
