Data from test_V78500241_786.txt Node
Date: Fri Mar 25 15:47:14 CST 2022
User: usil
Spectrometer: V785-0024
Trigger mode: 0
Integration Time (sec): 4.000000E-1
Scans to average: 1
Nonlinearity correction enabled: false
Boxcar width: 0
Storing dark spectrum: false
XAxis mode: Wavelengths
Number of Pixels in Spectrum: 1024
>>>>>Begin Spectral Data<<<<<
801.071	27104
801.214	27104
801.356	26921
801.499	26842
801.641	26689
801.783	26823
801.926	26853
802.068	26613
802.211	26571
802.353	26602
802.496	26343
802.638	26389
802.78	26385
802.923	26381
803.065	26267
803.208	26248
803.35	26446
803.492	26480
803.635	26446
803.777	26453
803.919	26495
804.061	26861
804.204	26667
804.346	26434
804.488	26446
804.63	26598
804.773	26503
804.915	26503
805.057	26583
805.199	26503
805.341	26514
805.483	26686
805.626	26560
805.768	26629
805.91	26492
806.052	26571
806.194	26492
806.336	26686
806.478	26602
806.62	26705
806.762	26804
806.904	26727
807.046	27112
807.188	27055
807.33	26982
807.472	27062
807.614	27032
807.756	26960
807.898	26883
808.04	26800
808.182	26807
808.324	26921
808.465	26979
808.607	27043
808.749	27165
808.891	27310
809.033	27329
809.174	27279
809.316	27192
809.458	27279
809.6	27199
809.741	27386
809.883	27435
810.025	27504
810.166	27561
810.308	27443
810.45	27389
810.591	27439
810.733	27089
810.875	27085
811.016	27180
811.158	27081
811.299	27439
811.441	27515
811.582	27386
811.724	27203
811.865	27214
812.007	27062
812.148	27192
812.29	27207
812.431	27462
812.573	27511
812.714	27526
812.855	27698
812.997	27793
813.138	27964
813.279	27876
813.421	27713
813.562	27728
813.703	27663
813.845	27340
813.986	27070
814.127	26906
814.268	26743
814.41	26857
814.551	26689
814.692	27051
814.833	26864
814.974	26800
815.115	26804
815.256	26720
815.397	26651
815.539	26739
815.68	26644
815.821	26602
815.962	26785
816.103	26720
816.244	26545
816.385	26480
816.526	26484
816.666	26225
816.807	26172
816.948	26187
817.089	26317
817.23	26122
817.371	26096
817.512	26248
817.653	26058
817.793	26039
817.934	26263
818.075	26039
818.216	26122
818.356	26054
818.497	25890
818.638	25875
818.778	25856
818.919	25814
819.06	25811
819.2	26130
819.341	26088
819.481	26134
819.622	26301
819.762	26412
819.903	26404
820.043	26362
820.184	26100
820.324	26237
820.465	26221
820.605	26309
820.746	26187
820.886	26046
821.026	26145
821.167	26290
821.307	26225
821.447	26100
821.588	26100
821.728	25947
821.868	25769
822.008	25556
822.149	25597
822.289	25575
822.429	25354
822.569	25350
822.709	25316
822.849	25129
822.99	25206
823.13	25175
823.27	24996
823.41	24894
823.55	24882
823.69	24981
823.83	24909
823.97	24958
824.11	24627
824.25	24642
824.389	24715
824.529	24878
824.669	24673
824.809	24829
824.949	24825
825.089	24791
825.228	24795
825.368	24547
825.508	24654
825.648	24555
825.787	24677
825.927	24703
826.067	24616
826.206	24464
826.346	24646
826.485	24711
826.625	24593
826.765	24711
826.904	24654
827.044	24327
827.183	24369
827.323	24296
827.462	24338
827.601	24197
827.741	24186
827.88	24357
828.02	24281
828.159	24270
828.298	24273
828.437	24517
828.577	24228
828.716	24422
828.855	24140
828.994	24018
829.134	23961
829.273	24030
829.412	24114
829.551	23988
829.69	23958
829.829	24034
829.968	24041
830.107	24133
830.246	24015
830.385	23984
830.524	23843
830.663	23809
830.802	23828
830.941	23627
831.08	23547
831.219	23710
831.357	23668
831.496	23764
831.635	23760
831.774	23581
831.913	23505
832.051	23433
832.19	23417
832.329	23429
832.467	23220
832.606	23261
832.744	23322
832.883	23239
833.022	23307
833.16	23128
833.299	23318
833.437	23185
833.576	23341
833.714	23376
833.852	23398
833.991	23474
834.129	23452
834.267	23250
834.406	23292
834.544	23383
834.682	23356
834.821	23406
834.959	23471
835.097	23128
835.235	23261
835.373	23406
835.511	23288
835.65	23299
835.788	23216
835.926	23067
836.064	22995
836.202	23003
836.34	23250
836.478	23223
836.615	23258
836.753	23235
836.891	23303
837.029	23143
837.167	23178
837.305	23185
837.443	22995
837.58	23025
837.718	23162
837.856	23090
837.993	22965
838.131	23041
838.269	22999
838.406	22953
838.544	22736
838.681	22660
838.819	22664
838.956	22561
839.094	22481
839.231	22550
839.369	22561
839.506	22831
839.643	22744
839.781	22611
839.918	22443
840.055	22382
840.193	22577
840.33	22523
840.467	22577
840.604	22455
840.742	22713
840.879	22303
841.016	22379
841.153	22261
841.29	22474
841.427	22386
841.564	22421
841.701	22538
841.838	22421
841.975	22409
842.112	22360
842.249	22352
842.385	22211
842.522	22478
842.659	22276
842.796	22234
842.933	22101
843.069	22120
843.206	22200
843.343	22124
843.479	22207
843.616	22192
843.752	22025
843.889	22002
844.025	22234
844.162	21949
844.298	22010
844.435	21945
844.571	21903
844.708	21987
844.844	22051
844.98	22169
845.117	22040
845.253	21861
845.389	21949
845.525	21865
845.661	21838
845.798	21663
845.934	21739
846.07	21606
846.206	21720
846.342	21884
846.478	21671
846.614	21462
846.75	21378
846.886	21439
847.022	21462
847.158	21496
847.294	21466
847.429	21507
847.565	21393
847.701	21629
847.837	21135
847.972	21138
848.108	21306
848.244	21226
848.379	21154
848.515	21043
848.65	21116
848.786	21001
848.921	20941
849.057	21036
849.192	21138
849.328	21165
849.463	21001
849.598	20986
849.734	20872
849.869	20883
850.004	20777
850.14	20895
850.275	20788
850.41	20693
850.545	20807
850.68	20868
850.815	20819
850.95	20781
851.085	20960
851.22	20853
851.355	20712
851.49	20731
851.625	20743
851.76	20842
851.895	20697
852.03	20735
852.165	20785
852.299	20887
852.434	20845
852.569	20834
852.703	20762
852.838	20842
852.973	20960
853.107	20956
853.242	20804
853.376	20632
853.511	20522
853.645	20617
853.78	20716
853.914	20613
854.048	20518
854.183	20461
854.317	20663
854.451	20769
854.585	20621
854.72	20621
854.854	20731
854.988	20507
855.122	20644
855.256	20419
855.39	20583
855.524	20674
855.658	20636
855.792	20674
855.926	20609
856.06	20697
856.194	20720
856.327	20594
856.461	20602
856.595	20556
856.729	20606
856.862	20712
856.996	20648
857.13	20674
857.263	20750
857.397	20712
857.53	20514
857.664	20587
857.797	20632
857.931	20765
858.064	20590
858.197	20750
858.331	20579
858.464	20590
858.597	20526
858.731	20495
858.864	20621
858.997	20552
859.13	20583
859.263	20621
859.396	20705
859.529	20663
859.662	20480
859.795	20511
859.928	20640
860.061	20727
860.194	20899
860.327	20640
860.46	20670
860.592	20765
860.725	20834
860.858	20644
860.99	20541
861.123	20461
861.256	20602
861.388	20522
861.521	21233
861.653	20434
861.786	20343
861.918	20415
862.05	20419
862.183	20473
862.315	20617
862.447	20533
862.58	20476
862.712	20332
862.844	20320
862.976	20476
863.108	20377
863.24	20743
863.372	20183
863.504	20301
863.636	20248
863.768	20457
863.9	20408
864.032	20244
864.164	20259
864.296	20438
864.428	20454
864.559	20366
864.691	20377
864.823	20347
864.954	20415
865.086	20313
865.217	20195
865.349	20259
865.48	20286
865.612	20195
865.743	20419
865.875	20202
866.006	20324
866.137	20240
866.269	20195
866.4	20202
866.531	20081
866.662	20172
866.793	20096
866.924	20225
867.055	20180
867.186	20122
867.317	20100
867.448	20119
867.579	20294
867.71	20145
867.841	20084
867.972	20191
868.103	20237
868.233	20229
868.364	20267
868.495	20252
868.625	20396
868.756	20431
868.886	20385
869.017	20301
869.147	20503
869.278	20488
869.408	20442
869.539	20450
869.669	20533
869.799	20533
869.929	20419
870.06	20571
870.19	20735
870.32	20648
870.45	20724
870.58	20769
870.71	21047
870.84	20899
870.97	20765
871.1	20731
871.23	20975
871.36	20891
871.489	20838
871.619	21154
871.749	21066
871.879	21062
872.008	21169
872.138	21108
872.267	20986
872.397	20967
872.526	20883
872.656	20872
872.785	20880
872.915	21036
873.044	21070
873.173	21070
873.303	21127
873.432	21013
873.561	21169
873.69	21051
873.819	21070
873.948	21112
874.077	21085
874.206	21036
874.335	21005
874.464	21100
874.593	21283
874.722	21310
874.851	21306
874.979	21233
875.108	21237
875.237	21249
875.365	21313
875.494	21176
875.623	21256
875.751	21241
875.88	21268
876.008	21294
876.136	21648
876.265	21797
876.393	21739
876.521	21808
876.65	21800
876.778	21622
876.906	21766
877.034	21553
877.162	21720
877.29	21485
877.418	21652
877.546	21561
877.674	21614
877.802	21652
877.93	21610
878.058	21606
878.185	21454
878.313	21595
878.441	21644
878.568	21397
878.696	21523
878.824	21679
878.951	21686
879.079	21869
879.206	21937
879.333	21903
879.461	21713
879.588	21717
879.715	21808
879.842	21854
879.97	21694
880.097	21530
880.224	21408
880.351	21507
880.478	21420
880.605	21447
880.732	21549
880.859	21705
880.986	21492
881.112	21526
881.239	21405
881.366	21249
881.493	21047
881.619	21051
881.746	21157
881.872	21020
881.999	21112
882.125	20891
882.252	21116
882.378	21005
882.505	21199
882.631	20899
882.757	20716
882.883	20826
883.01	20758
883.136	20667
883.262	20686
883.388	20598
883.514	20868
883.64	20788
883.766	20705
883.892	20621
884.018	20609
884.143	20735
884.269	20823
884.395	20454
884.52	20248
884.646	20393
884.772	20332
884.897	20290
885.023	20374
885.148	20552
885.274	20602
885.399	20469
885.524	20427
885.65	20347
885.775	20347
885.9	20434
886.025	20404
886.15	20393
886.275	20294
886.4	20267
886.525	20408
886.65	20431
886.775	20248
886.9	20537
887.025	20495
887.149	20381
887.274	20233
887.399	20210
887.523	20240
887.648	20153
887.773	20088
887.897	20206
888.021	20187
888.146	20183
888.27	20412
888.395	20214
888.519	20218
888.643	20107
888.767	20191
888.891	20027
889.015	20016
889.139	20130
889.263	20050
889.387	20084
889.511	20294
889.635	20039
889.759	19993
889.883	19909
890.006	19970
890.13	20077
890.254	20020
890.377	19978
890.501	19742
890.624	19753
890.748	19776
890.871	19635
890.995	19556
891.118	19419
891.241	19506
891.364	19571
891.488	19658
891.611	19582
891.734	19537
891.857	19613
891.98	19502
892.103	19597
892.226	19453
892.349	19464
892.471	19339
892.594	19472
892.717	19563
892.839	19483
892.962	19514
893.085	19556
893.207	19453
893.33	19339
893.452	19369
893.575	19563
893.697	19483
893.819	19613
893.941	19734
894.064	19559
894.186	19400
894.308	19441
894.43	19510
894.552	19624
894.674	19540
894.796	19282
894.918	19411
895.04	19460
895.161	19575
895.283	19521
895.405	19407
895.526	19491
895.648	19480
895.769	19487
895.891	19575
896.012	19605
896.134	19495
896.255	19487
896.376	19449
896.498	19476
896.619	19491
896.74	19521
896.861	19563
896.982	19936
897.103	20005
897.224	19822
897.345	19674
897.466	19677
897.587	19670
897.708	19856
897.828	19769
897.949	19594
898.07	19609
898.19	19700
898.311	19841
898.431	19734
898.552	19772
898.672	19856
898.792	19894
898.913	19776
899.033	19750
899.153	19559
899.273	19415
899.393	19525
899.513	19597
899.633	19544
899.753	19472
899.873	19388
899.993	19464
900.113	19381
900.232	19514
900.352	19483
900.472	19373
900.591	19221
900.711	19392
900.83	19198
900.95	19403
901.069	19388
901.189	19198
901.308	19110
901.427	18863
901.546	18817
901.665	18909
901.784	18856
901.904	18757
902.023	18604
902.141	18467
902.26	18391
902.379	18631
902.498	18407
902.617	18441
902.735	18391
902.854	18323
902.973	18315
903.091	18106
903.21	18117
903.328	18038
903.446	17965
903.565	17961
903.683	17916
903.801	17779
903.919	17843
904.038	17760
904.156	17676
904.274	17733
904.392	17630
904.51	17592
904.627	17619
904.745	17764
904.863	17592
904.981	17501
905.098	17372
905.216	17379
905.334	17318
905.451	17395
905.569	17315
905.686	17372
905.803	17303
905.921	17128
906.038	17227
906.155	17193
906.272	17067
906.389	17102
906.506	16892
906.623	16862
906.74	16843
906.857	16736
906.974	16736
907.091	17037
907.208	17022
907.324	16908
907.441	16835
907.557	16649
907.674	16675
907.79	16573
907.907	16618
908.023	16489
908.139	16554
908.256	16478
908.372	16508
908.488	16436
908.604	16341
908.72	16337
908.836	16226
908.952	16329
909.068	16341
909.184	16481
909.3	16257
909.415	16295
909.531	16310
909.647	16044
909.762	15994
909.878	15956
909.993	15994
910.108	15918
910.224	15926
910.339	15972
910.454	15915
910.57	15781
910.685	15633
910.8	16078
910.915	15949
911.03	15854
911.145	15732
911.259	15679
911.374	15633
911.489	15591
911.604	15447
911.718	15405
911.833	15332
911.947	15351
912.062	15249
912.176	15393
912.291	15473
912.405	15447
912.519	15644
912.633	15549
912.748	15325
912.862	15397
912.976	15218
913.09	15119
913.204	15081
913.318	15108
913.431	15207
913.545	15203
913.659	15237
913.772	15093
913.886	14979
914	14929
914.113	15043
914.226	15146
914.34	15108
914.453	14933
914.566	15005
914.68	14952
914.793	14891
914.906	14800
915.019	14625
915.132	14568
915.245	14629
915.358	14674
915.47	14708
915.583	14663
915.696	14617
915.809	14785
915.921	14735
916.034	14530
916.146	14530
916.259	14533
916.371	14602
916.483	14667
916.595	14461
916.708	14533
916.82	14476
916.932	14404
917.044	14381
917.156	14381
917.268	14313
917.38	14263
917.491	14294
917.603	14332
917.715	14320
917.826	14469
917.938	14290
918.049	14130
918.161	14233
918.272	14385
918.384	14358
918.495	14229
918.606	14065
918.717	14050
918.828	14062
918.939	14115
919.05	14027
919.161	14035
919.272	13757
919.383	13982
919.494	14058
919.604	14202
919.715	14115
919.826	13974
919.936	14012
920.047	14142
920.157	14035
920.267	14176
920.378	14050
920.488	14077
920.598	14210
920.708	14301
920.818	14119
920.928	14214
921.038	14298
921.148	14290
921.258	14005
921.368	13925
921.477	13811
921.587	13803
921.697	13605
921.806	13704
921.916	13689
922.025	13521
922.134	13388
922.244	13377
922.353	13476
922.462	13293
922.571	13320
922.68	13110
922.789	13099
922.898	13118
923.007	13034
923.116	13107
923.224	13076
923.333	12993
923.442	12844
923.55	12928
923.659	12939
923.767	12981
923.876	12871
923.984	12977
924.092	12840
924.201	12798
924.309	12787
924.417	12802
924.525	12745
924.633	12688
924.741	13643
924.849	12604
924.956	12715
925.064	12620
925.172	12509
925.279	12532
925.387	12604
925.494	12547
925.602	12703
925.709	12604
925.816	12445
925.924	12486
926.031	12608
926.138	12456
926.245	12555
926.352	12361
926.459	12479
926.566	12631
926.673	12437
926.779	12365
926.886	12243
926.993	12182
927.099	12224
927.206	12041
927.312	12060
927.419	12133
927.525	12015
927.631	12235
927.737	12011
927.843	12007
927.95	11897
928.056	11988
928.162	11931
928.267	11973
928.373	12582
928.479	12038
928.585	11756
928.69	11916
928.796	11977
928.901	11817
929.007	11752
929.112	11794
929.218	11809
929.323	11802
929.428	11646
929.533	11783
929.638	11577
929.743	11649
929.848	11695
929.953	11649
930.058	11516
930.163	11417
930.267	11398
930.372	11524
930.477	11356
930.581	11551
930.685	11543
930.79	11261
930.894	11288
930.998	11315
931.103	11410
931.207	11029
931.311	11052
931.415	10904
931.519	10748
931.623	10687
