Data from test_V78500241_840.txt Node
Date: Fri Mar 25 15:47:37 CST 2022
User: usil
Spectrometer: V785-0024
Trigger mode: 0
Integration Time (sec): 4.000000E-1
Scans to average: 1
Nonlinearity correction enabled: false
Boxcar width: 0
Storing dark spectrum: false
XAxis mode: Wavelengths
Number of Pixels in Spectrum: 1024
>>>>>Begin Spectral Data<<<<<
801.071	27641
801.214	27542
801.356	27325
801.499	27173
801.641	27222
801.783	27226
801.926	27340
802.068	27154
802.211	27100
802.353	27047
802.496	26910
802.638	26712
802.78	26750
802.923	26663
803.065	26785
803.208	26868
803.35	26697
803.492	26883
803.635	26986
803.777	26857
803.919	27100
804.061	27382
804.204	27020
804.346	27013
804.488	26960
804.63	26982
804.773	26792
804.915	26960
805.057	27211
805.199	26914
805.341	27001
805.483	27093
805.626	27184
805.768	26948
805.91	27123
806.052	27176
806.194	27146
806.336	27351
806.478	27203
806.62	27184
806.762	27294
806.904	27408
807.046	27599
807.188	27488
807.33	27553
807.472	27644
807.614	27538
807.756	27408
807.898	27462
808.04	27344
808.182	27507
808.324	27389
808.465	27363
808.607	27648
808.749	27755
808.891	27907
809.033	28063
809.174	27751
809.316	27720
809.458	27835
809.6	27724
809.741	27895
809.883	27968
810.025	28116
810.166	28067
810.308	27956
810.45	28044
810.591	27972
810.733	27789
810.875	27778
811.016	27606
811.158	27778
811.299	27793
811.441	27850
811.582	27888
811.724	27884
811.865	27701
812.007	27816
812.148	27660
812.29	27945
812.431	27934
812.573	28173
812.714	28143
812.855	28166
812.997	28409
813.138	28432
813.279	28424
813.421	28390
813.562	28344
813.703	28070
813.845	27964
813.986	27842
814.127	27572
814.268	27538
814.41	27511
814.551	27393
814.692	27557
814.833	27374
814.974	27363
815.115	27622
815.256	27435
815.397	27420
815.539	27329
815.68	27218
815.821	27237
815.962	27283
816.103	27195
816.244	27207
816.385	27074
816.526	26994
816.666	26800
816.807	26815
816.948	26792
817.089	26925
817.23	26697
817.371	26762
817.512	26781
817.653	26651
817.793	26724
817.934	26834
818.075	26739
818.216	26804
818.356	26670
818.497	26606
818.638	26408
818.778	26374
818.919	26492
819.06	26530
819.2	26655
819.341	26739
819.481	26629
819.622	26998
819.762	27024
819.903	26887
820.043	26880
820.184	26929
820.324	26899
820.465	26952
820.605	26762
820.746	26834
820.886	26727
821.026	26746
821.167	26697
821.307	26914
821.447	26765
821.588	26708
821.728	26568
821.868	26389
822.008	26107
822.149	26256
822.289	26180
822.429	25986
822.569	25845
822.709	25849
822.849	25765
822.99	25765
823.13	25776
823.27	25788
823.41	25540
823.55	25335
823.69	25506
823.83	25597
823.97	25449
824.11	25369
824.25	25278
824.389	25430
824.529	25540
824.669	25468
824.809	25567
824.949	25495
825.089	25438
825.228	25373
825.368	25247
825.508	25251
825.648	25259
825.787	25251
825.927	25308
826.067	25228
826.206	25251
826.346	25320
826.485	25270
826.625	25228
826.765	25529
826.904	25251
827.044	25126
827.183	25012
827.323	25072
827.462	25042
827.601	25000
827.741	24890
827.88	24966
828.02	24802
828.159	24966
828.298	24939
828.437	25004
828.577	24757
828.716	25023
828.855	24916
828.994	24700
829.134	24654
829.273	24798
829.412	24627
829.551	24764
829.69	24703
829.829	24673
829.968	24745
830.107	24757
830.246	24688
830.385	24448
830.524	24445
830.663	24505
830.802	24433
830.941	24239
831.08	24296
831.219	24315
831.357	24388
831.496	24486
831.635	24251
831.774	24205
831.913	24106
832.051	24030
832.19	24106
832.329	24015
832.467	23882
832.606	23863
832.744	23843
832.883	23946
833.022	23931
833.16	23904
833.299	23809
833.437	23969
833.576	24079
833.714	23988
833.852	24079
833.991	24022
834.129	24209
834.267	24140
834.406	23980
834.544	24041
834.682	23958
834.821	23912
834.959	24106
835.097	23984
835.235	24057
835.373	24038
835.511	23908
835.65	23988
835.788	23809
835.926	23623
836.064	23649
836.202	23577
836.34	23783
836.478	23729
836.615	23901
836.753	23767
836.891	23961
837.029	23729
837.167	23752
837.305	23855
837.443	23714
837.58	23726
837.718	23722
837.856	23729
837.993	23570
838.131	23668
838.269	23566
838.406	23528
838.544	23425
838.681	23303
838.819	23280
838.956	23212
839.094	23025
839.231	23239
839.369	23299
839.506	23436
839.643	23326
839.781	23064
839.918	23064
840.055	23174
840.193	23105
840.33	23162
840.467	23071
840.604	23140
840.742	23372
840.879	22885
841.016	23048
841.153	22965
841.29	23280
841.427	23090
841.564	23090
841.701	23048
841.838	23071
841.975	22999
842.112	22915
842.249	22877
842.385	22828
842.522	23041
842.659	22957
842.796	22759
842.933	22771
843.069	22782
843.206	22725
843.343	22873
843.479	22774
843.616	22733
843.752	22607
843.889	22577
844.025	22759
844.162	22554
844.298	22721
844.435	22653
844.571	22481
844.708	22637
844.844	22706
844.98	22660
845.117	22748
845.253	22474
845.389	22390
845.525	22546
845.661	22341
845.798	22329
845.934	22470
846.07	22303
846.206	22284
846.342	22538
846.478	22234
846.614	22097
846.75	22029
846.886	21983
847.022	22109
847.158	21991
847.294	22074
847.429	22101
847.565	21991
847.701	22386
847.837	21819
847.972	21652
848.108	21842
848.244	21861
848.379	21599
848.515	21557
848.65	21610
848.786	21610
848.921	21583
849.057	21690
849.192	21747
849.328	21610
849.463	21606
849.598	21511
849.734	21583
849.869	21519
850.004	21507
850.14	21526
850.275	21412
850.41	21325
850.545	21374
850.68	21420
850.815	21359
850.95	21500
851.085	21633
851.22	21473
851.355	21386
851.49	21329
851.625	21321
851.76	21283
851.895	21359
852.03	21363
852.165	21447
852.299	21431
852.434	21504
852.569	21553
852.703	21401
852.838	21485
852.973	21557
853.107	21515
853.242	21294
853.376	21275
853.511	21222
853.645	21245
853.78	21298
853.914	21218
854.048	21237
854.183	21260
854.317	21260
854.451	21386
854.585	21302
854.72	21222
854.854	21268
854.988	21237
855.122	21245
855.256	21058
855.39	21184
855.524	21116
855.658	21359
855.792	21302
855.926	21260
856.06	21294
856.194	21348
856.327	21203
856.461	21180
856.595	21077
856.729	21173
856.862	21393
856.996	21211
857.13	21203
857.263	21321
857.397	21344
857.53	21154
857.664	21291
857.797	21359
857.931	21336
858.064	21226
858.197	21412
858.331	21291
858.464	21317
858.597	21127
858.731	21154
858.864	21237
858.997	21226
859.13	21207
859.263	21260
859.396	21294
859.529	21241
859.662	21279
859.795	21233
859.928	21256
860.061	21397
860.194	21469
860.327	21272
860.46	21363
860.592	21332
860.725	21359
860.858	21351
860.99	21260
861.123	21211
861.256	21119
861.388	21161
861.521	21808
861.653	21096
861.786	21005
861.918	21096
862.05	21310
862.183	21135
862.315	21203
862.447	21256
862.58	21268
862.712	20994
862.844	21017
862.976	21036
863.108	20979
863.24	21302
863.372	20891
863.504	20914
863.636	20960
863.768	20967
863.9	20933
864.032	20842
864.164	20891
864.296	20986
864.428	21108
864.559	21020
864.691	20910
864.823	21043
864.954	20956
865.086	20956
865.217	20853
865.349	20785
865.48	20849
865.612	20933
865.743	20918
865.875	20944
866.006	20952
866.137	20849
866.269	20804
866.4	20781
866.531	20887
866.662	20815
866.793	20823
866.924	20769
867.055	20891
867.186	20762
867.317	20678
867.448	20697
867.579	20659
867.71	20655
867.841	20587
867.972	20857
868.103	20777
868.233	20914
868.364	20807
868.495	20842
868.625	21024
868.756	21032
868.886	20891
869.017	21062
869.147	21176
869.278	21176
869.408	20990
869.539	21043
869.669	21161
869.799	21245
869.929	21119
870.06	21211
870.19	21393
870.32	21272
870.45	21382
870.58	21469
870.71	21568
870.84	21667
870.97	21458
871.1	21443
871.23	21606
871.36	21534
871.489	21542
871.619	21557
871.749	21557
871.879	21583
872.008	21736
872.138	21568
872.267	21614
872.397	21496
872.526	21382
872.656	21450
872.785	21469
872.915	21538
873.044	21793
873.173	21629
873.303	21652
873.432	21648
873.561	21781
873.69	21629
873.819	21603
873.948	21861
874.077	21690
874.206	21583
874.335	21587
874.464	21804
874.593	21869
874.722	21808
874.851	21941
874.979	21915
875.108	21960
875.237	21789
875.365	21743
875.494	21846
875.623	21975
875.751	21819
875.88	21857
876.008	22067
876.136	22226
876.265	22215
876.393	22344
876.521	22272
876.65	22443
876.778	22284
876.906	22177
877.034	22257
877.162	22242
877.29	22036
877.418	22207
877.546	22188
877.674	22280
877.802	22211
877.93	22177
878.058	22166
878.185	22082
878.313	22105
878.441	22150
878.568	22147
878.696	22177
878.824	22246
878.951	22219
879.079	22284
879.206	22413
879.333	22325
879.461	22314
879.588	22421
879.715	22421
879.842	22622
879.97	22185
880.097	22150
880.224	22021
880.351	21991
880.478	22010
880.605	21915
880.732	22051
880.859	22219
880.986	21926
881.112	22025
881.239	21873
881.366	21793
881.493	21690
881.619	21534
881.746	21660
881.872	21492
881.999	21656
882.125	21515
882.252	21637
882.378	21679
882.505	21614
882.631	21511
882.757	21310
882.883	21412
883.01	21199
883.136	21249
883.262	21150
883.388	21233
883.514	21332
883.64	21382
883.766	21192
883.892	21074
884.018	21055
884.143	21378
884.269	21279
884.395	21104
884.52	20944
884.646	20994
884.772	20842
884.897	20941
885.023	21051
885.148	21055
885.274	21146
885.399	21062
885.524	21047
885.65	21009
885.775	21077
885.9	20967
886.025	21032
886.15	21066
886.275	20944
886.4	20830
886.525	20918
886.65	20868
886.775	20849
886.9	21020
887.025	21207
887.149	20994
887.274	20838
887.399	20781
887.523	20777
887.648	20632
887.773	20663
887.897	20842
888.021	20686
888.146	20667
888.27	20781
888.395	20853
888.519	20823
888.643	20689
888.767	20788
888.891	20693
889.015	20621
889.139	20503
889.263	20473
889.387	20598
889.511	20724
889.635	20712
889.759	20518
889.883	20396
890.006	20358
890.13	20746
890.254	20431
890.377	20358
890.501	20320
890.624	20065
890.748	20301
890.871	20145
890.995	20031
891.118	20039
891.241	20149
891.364	20145
891.488	20153
891.611	20050
891.734	20027
891.857	20191
891.98	20111
892.103	20286
892.226	20119
892.349	20100
892.471	19963
892.594	20103
892.717	20088
892.839	19947
892.962	19940
893.085	20092
893.207	19978
893.33	19879
893.452	19970
893.575	20092
893.697	19963
893.819	20218
893.941	20286
894.064	20092
894.186	19970
894.308	19997
894.43	20206
894.552	20180
894.674	20183
894.796	19887
894.918	19978
895.04	19986
895.161	20180
895.283	19982
895.405	19970
895.526	19970
895.648	19879
895.769	20088
895.891	19982
896.012	20164
896.134	20073
896.255	19967
896.376	19879
896.498	20035
896.619	20001
896.74	20027
896.861	20077
896.982	20252
897.103	20362
897.224	20206
897.345	20191
897.466	20134
897.587	20263
897.708	20252
897.828	20199
897.949	20164
898.07	20077
898.19	20176
898.311	20286
898.431	20130
898.552	20138
898.672	20362
898.792	20404
898.913	20244
899.033	20058
899.153	20012
899.273	19970
899.393	20008
899.513	19955
899.633	19970
899.753	20012
899.873	20035
899.993	20031
900.113	19963
900.232	19925
900.352	19890
900.472	19807
900.591	19761
900.711	19715
900.83	19723
900.95	19826
901.069	19765
901.189	19712
901.308	19457
901.427	19384
901.546	19354
901.665	19392
901.784	19369
901.904	19213
902.023	19061
902.141	19019
902.26	18764
902.379	19069
902.498	18905
902.617	18821
902.735	18958
902.854	18859
902.973	18806
903.091	18422
903.21	18597
903.328	18502
903.446	18502
903.565	18410
903.683	18391
903.801	18300
903.919	18376
904.038	18254
904.156	18174
904.274	18129
904.392	18011
904.51	18114
904.627	18205
904.745	18091
904.863	18133
904.981	17794
905.098	17897
905.216	17824
905.334	17874
905.451	17821
905.569	17817
905.686	17920
905.803	17718
905.921	17547
906.038	17684
906.155	17642
906.272	17505
906.389	17520
906.506	17284
906.623	17436
906.74	17334
906.857	17140
906.974	17277
907.091	17383
907.208	17417
907.324	17387
907.441	17140
907.557	17033
907.674	17086
907.79	17018
907.907	16896
908.023	17090
908.139	17098
908.256	16862
908.372	16923
908.488	17010
908.604	16790
908.72	16736
908.836	16755
908.952	16752
909.068	16812
909.184	16820
909.3	16839
909.415	16942
909.531	16782
909.647	16558
909.762	16500
909.878	16485
909.993	16554
910.108	16447
910.224	16417
910.339	16405
910.454	16356
910.57	16306
910.685	16215
910.8	16512
910.915	16459
911.03	16215
911.145	16139
911.259	16055
911.374	16013
911.489	16055
911.604	16013
911.718	15816
911.833	15808
911.947	15774
912.062	15709
912.176	15918
912.291	15778
912.405	15766
912.519	16032
912.633	15991
912.748	15865
912.862	15743
912.976	15766
913.09	15542
913.204	15610
913.318	15686
913.431	15606
913.545	15686
913.659	15667
913.772	15644
913.886	15447
914	15431
914.113	15591
914.226	15443
914.34	15363
914.453	15340
914.566	15393
914.68	15249
914.793	15340
914.906	15142
915.019	14963
915.132	14952
915.245	14956
915.358	15028
915.47	14979
915.583	15089
915.696	14998
915.809	15154
915.921	15055
916.034	14982
916.146	14979
916.259	14921
916.371	14975
916.483	15009
916.595	14902
916.708	14933
916.82	14796
916.932	14868
917.044	14819
917.156	14754
917.268	14781
917.38	14701
917.491	14693
917.603	14701
917.715	14758
917.826	14769
917.938	14667
918.049	14587
918.161	14594
918.272	14697
918.384	14815
918.495	14610
918.606	14503
918.717	14385
918.828	14469
918.939	14480
919.05	14374
919.161	14431
919.272	14240
919.383	14362
919.494	14514
919.604	14640
919.715	14480
919.826	14396
919.936	14393
920.047	14522
920.157	14396
920.267	14568
920.378	14434
920.488	14393
920.598	14545
920.708	14781
920.818	14674
920.928	14556
921.038	14720
921.148	14663
921.258	14358
921.368	14320
921.477	14210
921.587	14142
921.697	14024
921.806	14126
921.916	13997
922.025	13890
922.134	13746
922.244	13811
922.353	13940
922.462	13658
922.571	13590
922.68	13533
922.789	13445
922.898	13419
923.007	13396
923.116	13438
923.224	13362
923.333	13350
923.442	13324
923.55	13282
923.659	13285
923.767	13270
923.876	13244
923.984	13335
924.092	13183
924.201	13255
924.309	13149
924.417	13145
924.525	13099
924.633	13149
924.741	14058
924.849	12905
924.956	13156
925.064	12886
925.172	12837
925.279	12848
925.387	12890
925.494	12863
925.602	12958
925.709	12966
925.816	12764
925.924	12798
926.031	12833
926.138	12776
926.245	12829
926.352	12654
926.459	12867
926.566	12848
926.673	12703
926.779	12711
926.886	12582
926.993	12467
927.099	12456
927.206	12399
927.312	12483
927.419	12460
927.525	12418
927.631	12448
927.737	12277
927.843	12270
927.95	12167
928.056	12292
928.162	12235
928.267	12391
928.373	12817
928.479	12380
928.585	12098
928.69	12235
928.796	12194
928.901	12186
929.007	12057
929.112	12182
929.218	12083
929.323	12091
929.428	11946
929.533	12144
929.638	11942
929.743	12007
929.848	12041
929.953	11935
930.058	11832
930.163	11748
930.267	11756
930.372	11847
930.477	11646
930.581	11878
930.685	11726
930.79	11535
930.894	11539
930.998	11668
931.103	11695
931.207	11299
931.311	11292
931.415	11258
931.519	11048
931.623	10957
