Data from test_V78500241_261.txt Node
Date: Fri Mar 25 15:43:36 CST 2022
User: usil
Spectrometer: V785-0024
Trigger mode: 0
Integration Time (sec): 4.000000E-1
Scans to average: 1
Nonlinearity correction enabled: false
Boxcar width: 0
Storing dark spectrum: false
XAxis mode: Wavelengths
Number of Pixels in Spectrum: 1024
>>>>>Begin Spectral Data<<<<<
801.071	29908
801.214	29996
801.356	29680
801.499	29619
801.641	29642
801.783	29444
801.926	29657
802.068	29406
802.211	29410
802.353	29307
802.496	29345
802.638	29356
802.78	29140
802.923	29162
803.065	29151
803.208	29174
803.35	29155
803.492	29337
803.635	29505
803.777	29311
803.919	29315
804.061	29672
804.204	29379
804.346	29250
804.488	29147
804.63	29356
804.773	29140
804.915	29231
805.057	29433
805.199	29391
805.341	29414
805.483	29497
805.626	29520
805.768	29368
805.91	29627
806.052	29478
806.194	29311
806.336	29604
806.478	29478
806.62	29596
806.762	29543
806.904	29741
807.046	30018
807.188	29961
807.33	29847
807.472	29965
807.614	29908
807.756	29939
807.898	29687
808.04	29566
808.182	29699
808.324	29512
808.465	29703
808.607	29824
808.749	30026
808.891	30178
809.033	30159
809.174	30190
809.316	30026
809.458	30060
809.6	29969
809.741	30053
809.883	30155
810.025	30327
810.166	30270
810.308	30304
810.45	30353
810.591	30327
810.733	30186
810.875	30064
811.016	30045
811.158	30011
811.299	30235
811.441	30254
811.582	30186
811.724	29965
811.865	30186
812.007	30197
812.148	29931
812.29	30163
812.431	30235
812.573	30433
812.714	30376
812.855	30585
812.997	30616
813.138	30840
813.279	30829
813.421	30608
813.562	30525
813.703	30273
813.845	30254
813.986	29980
814.127	29764
814.268	29687
814.41	29737
814.551	29741
814.692	29775
814.833	29642
814.974	29634
815.115	29646
815.256	29448
815.397	29486
815.539	29531
815.68	29497
815.821	29444
815.962	29520
816.103	29467
816.244	29353
816.385	29330
816.526	29273
816.666	29052
816.807	28927
816.948	29060
817.089	29075
817.23	28980
817.371	28972
817.512	28820
817.653	28927
817.793	28805
817.934	28949
818.075	28915
818.216	28873
818.356	28767
818.497	28835
818.638	28569
818.778	28607
818.919	28672
819.06	28687
819.2	28862
819.341	28930
819.481	28908
819.622	29060
819.762	29064
819.903	29200
820.043	29033
820.184	28987
820.324	29018
820.465	29079
820.605	29006
820.746	28774
820.886	28896
821.026	28976
821.167	28873
821.307	28984
821.447	28797
821.588	28759
821.728	28668
821.868	28386
822.008	28303
822.149	28291
822.289	28306
822.429	28067
822.569	28032
822.709	27850
822.849	27903
822.99	27861
823.13	27675
823.27	27823
823.41	27595
823.55	27610
823.69	27675
823.83	27785
823.97	27633
824.11	27450
824.25	27431
824.389	27500
824.529	27568
824.669	27348
824.809	27519
824.949	27420
825.089	27462
825.228	27458
825.368	27203
825.508	27207
825.648	27184
825.787	27287
825.927	27462
826.067	27188
826.206	27195
826.346	27431
826.485	27359
826.625	27310
826.765	27351
826.904	27241
827.044	26956
827.183	27089
827.323	27070
827.462	26982
827.601	26979
827.741	26933
827.88	27096
828.02	26990
828.159	26876
828.298	26880
828.437	26906
828.577	26819
828.716	26967
828.855	26857
828.994	26541
829.134	26564
829.273	26697
829.412	26526
829.551	26617
829.69	26575
829.829	26705
829.968	26842
830.107	26625
830.246	26575
830.385	26560
830.524	26507
830.663	26514
830.802	26393
830.941	26240
831.08	26103
831.219	26191
831.357	26244
831.496	26408
831.635	26122
831.774	26195
831.913	26043
832.051	25902
832.19	26065
832.329	26016
832.467	25845
832.606	25681
832.744	25666
832.883	25799
833.022	25890
833.16	25890
833.299	25849
833.437	25974
833.576	25925
833.714	25875
833.852	25795
833.991	25955
834.129	25951
834.267	25982
834.406	25928
834.544	25856
834.682	25769
834.821	25864
834.959	25906
835.097	25814
835.235	25753
835.373	25868
835.511	25852
835.65	25712
835.788	25693
835.926	25575
836.064	25400
836.202	25529
836.34	25708
836.478	25791
836.615	25704
836.753	25742
836.891	25757
837.029	25772
837.167	25605
837.305	25696
837.443	25540
837.58	25502
837.718	25575
837.856	25499
837.993	25525
838.131	25537
838.269	25228
838.406	25320
838.544	25365
838.681	25168
838.819	24977
838.956	24764
839.094	24814
839.231	24913
839.369	24985
839.506	25354
839.643	25217
839.781	24821
839.918	24707
840.055	24722
840.193	24791
840.33	24821
840.467	24863
840.604	24882
840.742	24996
840.879	24688
841.016	24688
841.153	24631
841.29	24943
841.427	24772
841.564	24753
841.701	24696
841.838	24700
841.975	24623
842.112	24627
842.249	24791
842.385	24456
842.522	24741
842.659	24479
842.796	24376
842.933	24502
843.069	24376
843.206	24350
843.343	24559
843.479	24456
843.616	24346
843.752	24171
843.889	24311
844.025	24273
844.162	24205
844.298	24239
844.435	24152
844.571	24197
844.708	24243
844.844	24357
844.98	24292
845.117	24254
845.253	24117
845.389	24140
845.525	24098
845.661	24038
845.798	24015
845.934	23935
846.07	23969
846.206	23901
846.342	23939
846.478	23885
846.614	23634
846.75	23482
846.886	23619
847.022	23737
847.158	23634
847.294	23551
847.429	23623
847.565	23592
847.701	23866
847.837	23303
847.972	23189
848.108	23463
848.244	23379
848.379	23326
848.515	23178
848.65	23246
848.786	23155
848.921	23162
849.057	23334
849.192	23311
849.328	23227
849.463	23147
849.598	23181
849.734	23064
849.869	22927
850.004	22968
850.14	22976
850.275	22889
850.41	22900
850.545	22744
850.68	22869
850.815	22980
850.95	22881
851.085	23022
851.22	23052
851.355	22858
851.49	22949
851.625	22850
851.76	22908
851.895	22634
852.03	22934
852.165	22869
852.299	22721
852.434	22984
852.569	22869
852.703	22835
852.838	22980
852.973	22984
853.107	23025
853.242	22824
853.376	22782
853.511	22569
853.645	22618
853.78	22763
853.914	22729
854.048	22717
854.183	22679
854.317	22618
854.451	22763
854.585	22736
854.72	22596
854.854	22740
854.988	22660
855.122	22573
855.256	22637
855.39	22786
855.524	22653
855.658	22691
855.792	22660
855.926	22687
856.06	22793
856.194	22668
856.327	22565
856.461	22565
856.595	22580
856.729	22637
856.862	22599
856.996	22668
857.13	22748
857.263	22733
857.397	22797
857.53	22637
857.664	22755
857.797	22763
857.931	22683
858.064	22664
858.197	22664
858.331	22668
858.464	22584
858.597	22516
858.731	22611
858.864	22649
858.997	22535
859.13	22607
859.263	22637
859.396	22649
859.529	22527
859.662	22565
859.795	22493
859.928	22580
860.061	22801
860.194	22835
860.327	22748
860.46	22603
860.592	22767
860.725	22755
860.858	22698
860.99	22664
861.123	22611
861.256	22573
861.388	22649
861.521	23288
861.653	22390
861.786	22462
861.918	22561
862.05	22565
862.183	22607
862.315	22664
862.447	22683
862.58	22584
862.712	22455
862.844	22462
862.976	22462
863.108	22394
863.24	22740
863.372	22314
863.504	22303
863.636	22253
863.768	22367
863.9	22295
864.032	22265
864.164	22188
864.296	22265
864.428	22497
864.559	22303
864.691	22325
864.823	22265
864.954	22424
865.086	22200
865.217	22257
865.349	22192
865.48	22177
865.612	22238
865.743	22185
865.875	22226
866.006	22143
866.137	22265
866.269	22158
866.4	22196
866.531	22215
866.662	22188
866.793	22105
866.924	22074
867.055	22097
867.186	22169
867.317	22070
867.448	21869
867.579	22139
867.71	21983
867.841	22055
867.972	22105
868.103	22063
868.233	22166
868.364	22074
868.495	22211
868.625	22306
868.756	22440
868.886	22226
869.017	22287
869.147	22371
869.278	22405
869.408	22390
869.539	22386
869.669	22291
869.799	22436
869.929	22493
870.06	22573
870.19	22645
870.32	22557
870.45	22672
870.58	22744
870.71	22687
870.84	22812
870.97	22759
871.1	22691
871.23	22793
871.36	22965
871.489	22915
871.619	22850
871.749	22873
871.879	22930
872.008	23018
872.138	22850
872.267	22923
872.397	22854
872.526	22694
872.656	22607
872.785	22793
872.915	23075
873.044	23029
873.173	22942
873.303	23003
873.432	22915
873.561	23094
873.69	22995
873.819	22911
873.948	22949
874.077	23003
874.206	22965
874.335	22881
874.464	22949
874.593	23151
874.722	23178
874.851	23239
874.979	23166
875.108	23364
875.237	23189
875.365	23075
875.494	23109
875.623	23223
875.751	23143
875.88	23200
876.008	23231
876.136	23296
876.265	23444
876.393	23786
876.521	23668
876.65	23699
876.778	23577
876.906	23459
877.034	23493
877.162	23455
877.29	23463
877.418	23490
877.546	23455
877.674	23474
877.802	23497
877.93	23448
878.058	23436
878.185	23372
878.313	23581
878.441	23433
878.568	23292
878.696	23505
878.824	23505
878.951	23573
879.079	23604
879.206	23859
879.333	23691
879.461	23509
879.588	23714
879.715	23699
879.842	23802
879.97	23608
880.097	23303
880.224	23330
880.351	23330
880.478	23410
880.605	23185
880.732	23303
880.859	23600
880.986	23280
881.112	23303
881.239	23193
881.366	22999
881.493	23041
881.619	22877
881.746	22892
881.872	23025
881.999	22968
882.125	22854
882.252	22930
882.378	22877
882.505	23105
882.631	22805
882.757	22634
882.883	22683
883.01	22641
883.136	22546
883.262	22462
883.388	22409
883.514	22569
883.64	22630
883.766	22531
883.892	22257
884.018	22440
884.143	22561
884.269	22599
884.395	22207
884.52	22253
884.646	22211
884.772	22204
884.897	22059
885.023	22238
885.148	22242
885.274	22360
885.399	22223
885.524	22204
885.65	22234
885.775	22215
885.9	22029
886.025	22303
886.15	22204
886.275	22207
886.4	21972
886.525	22143
886.65	22162
886.775	22207
886.9	22325
887.025	22379
887.149	22105
887.274	21945
887.399	21873
887.523	22013
887.648	22025
887.773	21880
887.897	21934
888.021	21911
888.146	21816
888.27	22017
888.395	22093
888.519	21945
888.643	21949
888.767	21998
888.891	21869
889.015	21770
889.139	21759
889.263	21671
889.387	21804
889.511	21934
889.635	21739
889.759	21800
889.883	21713
890.006	21701
890.13	21694
890.254	21656
890.377	21652
890.501	21538
890.624	21435
890.748	21515
890.871	21294
890.995	21222
891.118	21264
891.241	21233
891.364	21283
891.488	21382
891.611	21211
891.734	21256
891.857	21249
891.98	21302
892.103	21332
892.226	21188
892.349	21173
892.471	21085
892.594	21165
892.717	21100
892.839	21157
892.962	21313
893.085	21203
893.207	21192
893.33	21096
893.452	21184
893.575	21180
893.697	21055
893.819	21268
893.941	21291
894.064	21245
894.186	21077
894.308	21085
894.43	21074
894.552	21249
894.674	21173
894.796	21039
894.918	21055
895.04	21051
895.161	21157
895.283	21135
895.405	21138
895.526	21074
895.648	21081
895.769	21176
895.891	21138
896.012	21188
896.134	21260
896.255	21195
896.376	21062
896.498	21070
896.619	21272
896.74	21203
896.861	21325
896.982	21507
897.103	21679
897.224	21336
897.345	21466
897.466	21367
897.587	21355
897.708	21378
897.828	21386
897.949	21329
898.07	21313
898.19	21291
898.311	21329
898.431	21287
898.552	21348
898.672	21340
898.792	21447
898.913	21218
899.033	21165
899.153	21150
899.273	20910
899.393	20941
899.513	21017
899.633	21013
899.753	21009
899.873	21013
899.993	21074
900.113	20956
900.232	20971
900.352	20826
900.472	20735
900.591	20815
900.711	20864
900.83	20602
900.95	20815
901.069	20842
901.189	20712
901.308	20499
901.427	20404
901.546	20400
901.665	20271
901.784	20317
901.904	20195
902.023	20233
902.141	19963
902.26	19898
902.379	19894
902.498	19879
902.617	19860
902.735	19845
902.854	19837
902.973	19761
903.091	19464
903.21	19533
903.328	19434
903.446	19426
903.565	19384
903.683	19316
903.801	19171
903.919	19217
904.038	19145
904.156	19012
904.274	19110
904.392	19031
904.51	19084
904.627	18973
904.745	19164
904.863	18981
904.981	18817
905.098	18821
905.216	18696
905.334	18791
905.451	18878
905.569	18707
905.686	18745
905.803	18681
905.921	18513
906.038	18589
906.155	18502
906.272	18292
906.389	18342
906.506	18270
906.623	18258
906.74	18209
906.857	18152
906.974	18076
907.091	18194
907.208	18285
907.324	18239
907.441	18129
907.557	17961
907.674	17870
907.79	17897
907.907	17916
908.023	17927
908.139	17840
908.256	17790
908.372	17748
908.488	17646
908.604	17551
908.72	17634
908.836	17551
908.952	17478
909.068	17668
909.184	17699
909.3	17577
909.415	17627
909.531	17558
909.647	17501
909.762	17246
909.878	17265
909.993	17307
910.108	17181
910.224	17159
910.339	17208
910.454	17159
910.57	16999
910.685	17048
910.8	17284
910.915	17220
911.03	16953
911.145	17022
911.259	16877
911.374	16889
911.489	16793
911.604	16740
911.718	16596
911.833	16577
911.947	16459
912.062	16489
912.176	16611
912.291	16672
912.405	16660
912.519	16824
912.633	16771
912.748	16561
912.862	16542
912.976	16394
913.09	16287
913.204	16363
913.318	16371
913.431	16402
913.545	16436
913.659	16554
913.772	16234
913.886	16143
914	16169
914.113	16284
914.226	16310
914.34	16158
914.453	16112
914.566	16150
914.68	16074
914.793	15964
914.906	15831
915.019	15816
915.132	15743
915.245	15846
915.358	15884
915.47	15793
915.583	15743
915.696	15789
915.809	15926
915.921	15930
916.034	15717
916.146	15625
916.259	15667
916.371	15656
916.483	15720
916.595	15709
916.708	15629
916.82	15610
916.932	15542
917.044	15595
917.156	15428
917.268	15393
917.38	15408
917.491	15401
917.603	15370
917.715	15504
917.826	15526
917.938	15370
918.049	15184
918.161	15272
918.272	15351
918.384	15454
918.495	15275
918.606	15214
918.717	15062
918.828	15249
918.939	15085
919.05	15066
919.161	15009
919.272	14990
919.383	15028
919.494	15184
919.604	15214
919.715	15123
919.826	14960
919.936	15051
920.047	15173
920.157	15001
920.267	15233
920.378	15089
920.488	15051
920.598	15150
920.708	15252
920.818	15214
920.928	15226
921.038	15329
921.148	15325
921.258	15009
921.368	14815
921.477	14861
921.587	14807
921.697	14648
921.806	14785
921.916	14564
922.025	14484
922.134	14385
922.244	14343
922.353	14423
922.462	14237
922.571	14221
922.68	14027
922.789	14054
922.898	14081
923.007	13925
923.116	14005
923.224	13986
923.333	14012
923.442	13875
923.55	13795
923.659	13769
923.767	13902
923.876	13776
923.984	13845
924.092	13734
924.201	13776
924.309	13700
924.417	13719
924.525	13639
924.633	13662
924.741	14347
924.849	13499
924.956	13651
925.064	13460
925.172	13373
925.279	13297
925.387	13483
925.494	13525
925.602	13556
925.709	13460
925.816	13346
925.924	13324
926.031	13464
926.138	13346
926.245	13369
926.352	13198
926.459	13308
926.566	13377
926.673	13175
926.779	13175
926.886	13168
926.993	12958
927.099	12935
927.206	12928
927.312	12859
927.419	12993
927.525	12943
927.631	12935
927.737	12852
927.843	12772
927.95	12726
928.056	12840
928.162	12772
928.267	12749
928.373	13430
928.479	12848
928.585	12688
928.69	12662
928.796	12703
928.901	12612
929.007	12475
929.112	12620
929.218	12627
929.323	12490
929.428	12486
929.533	12528
929.638	12536
929.743	12361
929.848	12452
929.953	12426
930.058	12380
930.163	12129
930.267	12102
930.372	12304
930.477	12186
930.581	12361
930.685	12140
930.79	11996
930.894	12015
930.998	11965
931.103	12167
931.207	11790
931.311	11680
931.415	11573
931.519	11395
931.623	11356
