Data from test_V78500241_1909.txt Node
Date: Fri Mar 25 15:55:01 CST 2022
User: usil
Spectrometer: V785-0024
Trigger mode: 0
Integration Time (sec): 4.000000E-1
Scans to average: 1
Nonlinearity correction enabled: false
Boxcar width: 0
Storing dark spectrum: false
XAxis mode: Wavelengths
Number of Pixels in Spectrum: 1024
>>>>>Begin Spectral Data<<<<<
801.071	28881
801.214	28729
801.356	28565
801.499	28592
801.641	28493
801.783	28341
801.926	28459
802.068	28325
802.211	28318
802.353	28325
802.496	28078
802.638	28093
802.78	28162
802.923	27964
803.065	28006
803.208	27892
803.35	28051
803.492	28150
803.635	28306
803.777	28253
803.919	28173
804.061	28603
804.204	28390
804.346	28337
804.488	28162
804.63	28363
804.773	28306
804.915	28276
805.057	28352
805.199	28367
805.341	28360
805.483	28390
805.626	28512
805.768	28424
805.91	28546
806.052	28580
806.194	28352
806.336	28527
806.478	28485
806.62	28508
806.762	28645
806.904	28797
807.046	28930
807.188	28953
807.33	28984
807.472	28911
807.614	28946
807.756	28904
807.898	28668
808.04	28812
808.182	28641
808.324	28771
808.465	28911
808.607	28934
808.749	29204
808.891	29159
809.033	29292
809.174	29235
809.316	29254
809.458	29140
809.6	29143
809.741	29364
809.883	29223
810.025	29421
810.166	29478
810.308	29471
810.45	29391
810.591	29292
810.733	29246
810.875	29200
811.016	29041
811.158	28919
811.299	29356
811.441	29273
811.582	29395
811.724	29174
811.865	29029
812.007	29170
812.148	29189
812.29	29299
812.431	29410
812.573	29486
812.714	29638
812.855	29691
812.997	29798
813.138	30045
813.279	29809
813.421	29672
813.562	29649
813.703	29520
813.845	29296
813.986	29227
814.127	28987
814.268	28953
814.41	28972
814.551	28687
814.692	28972
814.833	28782
814.974	28938
815.115	29014
815.256	28873
815.397	28721
815.539	28828
815.68	28538
815.821	28668
815.962	28725
816.103	28645
816.244	28634
816.385	28592
816.526	28436
816.666	28348
816.807	28097
816.948	28284
817.089	28135
817.23	28268
817.371	28185
817.512	28139
817.653	28078
817.793	28048
817.934	28242
818.075	28147
818.216	28291
818.356	28173
818.497	28150
818.638	27838
818.778	27937
818.919	27956
819.06	28044
819.2	28147
819.341	28204
819.481	28158
819.622	28337
819.762	28622
819.903	28459
820.043	28382
820.184	28363
820.324	28405
820.465	28436
820.605	28405
820.746	28356
820.886	28036
821.026	28295
821.167	28173
821.307	28390
821.447	28318
821.588	28147
821.728	28063
821.868	27922
822.008	27606
822.149	27755
822.289	27587
822.429	27416
822.569	27458
822.709	27325
822.849	27245
822.99	27142
823.13	27138
823.27	27116
823.41	27013
823.55	26804
823.69	27036
823.83	27017
823.97	26929
824.11	26861
824.25	26727
824.389	26910
824.529	26910
824.669	26853
824.809	26895
824.949	26876
825.089	26963
825.228	26944
825.368	26564
825.508	26682
825.648	26606
825.787	26621
825.927	26743
826.067	26545
826.206	26720
826.346	26705
826.485	26785
826.625	26746
826.765	26762
826.904	26693
827.044	26556
827.183	26545
827.323	26336
827.462	26362
827.601	26461
827.741	26396
827.88	26473
828.02	26278
828.159	26263
828.298	26393
828.437	26377
828.577	26332
828.716	26583
828.855	26206
828.994	26149
829.134	26035
829.273	26092
829.412	25963
829.551	25982
829.69	26073
829.829	26092
829.968	26130
830.107	26328
830.246	26172
830.385	26088
830.524	25993
830.663	25974
830.802	25909
830.941	25696
831.08	25635
831.219	25925
831.357	25765
831.496	25959
831.635	25635
831.774	25635
831.913	25533
832.051	25632
832.19	25369
832.329	25514
832.467	25392
832.606	25270
832.744	25343
832.883	25434
833.022	25373
833.16	25525
833.299	25472
833.437	25506
833.576	25605
833.714	25343
833.852	25479
833.991	25540
834.129	25548
834.267	25601
834.406	25460
834.544	25369
834.682	25479
834.821	25540
834.959	25685
835.097	25563
835.235	25597
835.373	25388
835.511	25434
835.65	25331
835.788	25365
835.926	25141
836.064	25114
836.202	25053
836.34	25335
836.478	25377
836.615	25164
836.753	25369
836.891	25278
837.029	25236
837.167	25145
837.305	25251
837.443	25183
837.58	25126
837.718	25133
837.856	25160
837.993	25076
838.131	25110
838.269	24909
838.406	24977
838.544	24989
838.681	24745
838.819	24779
838.956	24612
839.094	24620
839.231	24673
839.369	24852
839.506	24992
839.643	24806
839.781	24479
839.918	24505
840.055	24677
840.193	24490
840.33	24517
840.467	24281
840.604	24486
840.742	24703
840.879	24399
841.016	24521
841.153	24315
841.29	24486
841.427	24410
841.564	24532
841.701	24353
841.838	24429
841.975	24464
842.112	24323
842.249	24289
842.385	24247
842.522	24460
842.659	24258
842.796	24243
842.933	24224
843.069	24289
843.206	24235
843.343	24388
843.479	24216
843.616	24121
843.752	23939
843.889	23920
844.025	24148
844.162	23996
844.298	24018
844.435	24003
844.571	24030
844.708	24125
844.844	24148
844.98	24015
845.117	24114
845.253	23946
845.389	23775
845.525	23882
845.661	23836
845.798	23726
845.934	23790
846.07	23691
846.206	23813
846.342	23840
846.478	23680
846.614	23615
846.75	23429
846.886	23478
847.022	23356
847.158	23417
847.294	23379
847.429	23573
847.565	23429
847.701	23642
847.837	23178
847.972	23143
848.108	23239
848.244	23250
848.379	23079
848.515	22968
848.65	23006
848.786	22968
848.921	23033
849.057	23102
849.192	23136
849.328	22972
849.463	23041
849.598	22881
849.734	23029
849.869	22866
850.004	22763
850.14	22839
850.275	22797
850.41	22721
850.545	22748
850.68	22790
850.815	22904
850.95	22706
851.085	22930
851.22	22885
851.355	22858
851.49	22755
851.625	22717
851.76	22736
851.895	22725
852.03	22778
852.165	22816
852.299	22843
852.434	22748
852.569	22790
852.703	22748
852.838	22980
852.973	22885
853.107	22873
853.242	22862
853.376	22653
853.511	22466
853.645	22607
853.78	22691
853.914	22588
854.048	22497
854.183	22497
854.317	22778
854.451	22744
854.585	22599
854.72	22733
854.854	22641
854.988	22485
855.122	22588
855.256	22516
855.39	22546
855.524	22569
855.658	22611
855.792	22577
855.926	22683
856.06	22683
856.194	22698
856.327	22470
856.461	22611
856.595	22485
856.729	22565
856.862	22626
856.996	22672
857.13	22790
857.263	22736
857.397	22706
857.53	22557
857.664	22634
857.797	22782
857.931	22668
858.064	22626
858.197	22668
858.331	22538
858.464	22493
858.597	22485
858.731	22466
858.864	22535
858.997	22569
859.13	22580
859.263	22455
859.396	22706
859.529	22592
859.662	22683
859.795	22500
859.928	22462
860.061	22706
860.194	22869
860.327	22580
860.46	22531
860.592	22778
860.725	22812
860.858	22740
860.99	22656
861.123	22702
861.256	22584
861.388	22622
861.521	23402
861.653	22527
861.786	22360
861.918	22500
862.05	22535
862.183	22538
862.315	22615
862.447	22622
862.58	22546
862.712	22303
862.844	22367
862.976	22386
863.108	22375
863.24	22850
863.372	22238
863.504	22314
863.636	22265
863.768	22322
863.9	22462
864.032	22291
864.164	22257
864.296	22322
864.428	22557
864.559	22299
864.691	22390
864.823	22249
864.954	22223
865.086	22352
865.217	22154
865.349	22242
865.48	22162
865.612	22287
865.743	22367
865.875	22234
866.006	22128
866.137	22196
866.269	22158
866.4	22158
866.531	22207
866.662	22120
866.793	22204
866.924	22109
867.055	22280
867.186	22265
867.317	22093
867.448	22055
867.579	22120
867.71	22078
867.841	22036
867.972	22078
868.103	22158
868.233	22181
868.364	22204
868.495	22325
868.625	22390
868.756	22440
868.886	22204
869.017	22318
869.147	22447
869.278	22462
869.408	22470
869.539	22333
869.669	22516
869.799	22424
869.929	22542
870.06	22573
870.19	22736
870.32	22645
870.45	22611
870.58	22801
870.71	22866
870.84	22782
870.97	22691
871.1	22816
871.23	22889
871.36	23037
871.489	22774
871.619	23006
871.749	22968
871.879	23071
872.008	23090
872.138	23098
872.267	23010
872.397	22919
872.526	22675
872.656	22805
872.785	22748
872.915	23052
873.044	23151
873.173	22972
873.303	23083
873.432	23083
873.561	23079
873.69	22949
873.819	23098
873.948	23048
874.077	23044
874.206	22949
874.335	22976
874.464	23155
874.593	23200
874.722	23181
874.851	23178
874.979	23212
875.108	23258
875.237	23250
875.365	23147
875.494	23181
875.623	23128
875.751	23147
875.88	23296
876.008	23356
876.136	23455
876.265	23695
876.393	23615
876.521	23672
876.65	23707
876.778	23592
876.906	23509
877.034	23512
877.162	23554
877.29	23337
877.418	23554
877.546	23562
877.674	23619
877.802	23558
877.93	23573
878.058	23543
878.185	23452
878.313	23509
878.441	23444
878.568	23315
878.696	23566
878.824	23615
878.951	23558
879.079	23634
879.206	23866
879.333	23687
879.461	23596
879.588	23627
879.715	23767
879.842	23786
879.97	23691
880.097	23440
880.224	23307
880.351	23436
880.478	23440
880.605	23433
880.732	23330
880.859	23581
880.986	23311
881.112	23242
881.239	23227
881.366	23056
881.493	22881
881.619	23048
881.746	23018
881.872	22866
881.999	22923
882.125	22881
882.252	23018
882.378	22900
882.505	22915
882.631	22809
882.757	22660
882.883	22615
883.01	22622
883.136	22538
883.262	22550
883.388	22432
883.514	22615
883.64	22702
883.766	22447
883.892	22367
884.018	22371
884.143	22504
884.269	22554
884.395	22280
884.52	22375
884.646	22219
884.772	22162
884.897	22093
885.023	22230
885.148	22398
885.274	22329
885.399	22333
885.524	22318
885.65	22192
885.775	22310
885.9	22185
886.025	22310
886.15	22257
886.275	22128
886.4	22067
886.525	22143
886.65	22162
886.775	22147
886.9	22268
887.025	22478
887.149	22253
887.274	22086
887.399	21994
887.523	21975
887.648	21934
887.773	21918
887.897	22124
888.021	22029
888.146	21937
888.27	22051
888.395	22021
888.519	21926
888.643	22093
888.767	22036
888.891	21964
889.015	21732
889.139	21979
889.263	21724
889.387	21930
889.511	22017
889.635	21937
889.759	21793
889.883	21759
890.006	21846
890.13	21835
890.254	21747
890.377	21770
890.501	21538
890.624	21572
890.748	21424
890.871	21515
890.995	21355
891.118	21367
891.241	21420
891.364	21291
891.488	21515
891.611	21340
891.734	21279
891.857	21310
891.98	21329
892.103	21332
892.226	21302
892.349	21291
892.471	21066
892.594	21211
892.717	21268
892.839	21313
892.962	21116
893.085	21344
893.207	21135
893.33	20994
893.452	21142
893.575	21142
893.697	21169
893.819	21363
893.941	21382
894.064	21340
894.186	21157
894.308	21131
894.43	21157
894.552	21405
894.674	21256
894.796	21058
894.918	21161
895.04	21180
895.161	21249
895.283	21173
895.405	21070
895.526	21096
895.648	21199
895.769	21180
895.891	21218
896.012	21192
896.134	21294
896.255	21096
896.376	21093
896.498	21180
896.619	21245
896.74	21096
896.861	21214
896.982	21450
897.103	21656
897.224	21507
897.345	21272
897.466	21344
897.587	21447
897.708	21462
897.828	21450
897.949	21370
898.07	21203
898.19	21165
898.311	21545
898.431	21378
898.552	21439
898.672	21458
898.792	21492
898.913	21526
899.033	21214
899.153	21169
899.273	21199
899.393	21146
899.513	21127
899.633	20998
899.753	21184
899.873	21020
899.993	21119
900.113	21074
900.232	21089
900.352	20880
900.472	20990
900.591	20849
900.711	21024
900.83	20876
900.95	20906
901.069	20963
901.189	20727
901.308	20514
901.427	20507
901.546	20648
901.665	20465
901.784	20499
901.904	20339
902.023	20248
902.141	20107
902.26	20035
902.379	20103
902.498	20005
902.617	19860
902.735	20100
902.854	19849
902.973	19818
903.091	19586
903.21	19639
903.328	19601
903.446	19559
903.565	19274
903.683	19464
903.801	19206
903.919	19274
904.038	19373
904.156	19091
904.274	19263
904.392	19179
904.51	19168
904.627	19145
904.745	19244
904.863	19179
904.981	18958
905.098	18882
905.216	18935
905.334	18905
905.451	18791
905.569	18901
905.686	18840
905.803	18844
905.921	18642
906.038	18795
906.155	18661
906.272	18559
906.389	18544
906.506	18380
906.623	18414
906.74	18311
906.857	18258
906.974	18201
907.091	18384
907.208	18456
907.324	18323
907.441	18213
907.557	18163
907.674	18019
907.79	17969
907.907	17999
908.023	18167
908.139	18079
908.256	18125
908.372	17999
908.488	17885
908.604	17703
908.72	17638
908.836	17847
908.952	17786
909.068	17748
909.184	17908
909.3	17767
909.415	17843
909.531	17775
909.647	17501
909.762	17570
909.878	17562
909.993	17558
910.108	17524
910.224	17383
910.339	17425
910.454	17322
910.57	17372
910.685	17273
910.8	17478
910.915	17353
911.03	17239
911.145	17090
911.259	17029
911.374	16938
911.489	16987
911.604	16862
911.718	16717
911.833	16797
911.947	16691
912.062	16584
912.176	16752
912.291	16793
912.405	16675
912.519	16961
912.633	16869
912.748	16809
912.862	16744
912.976	16630
913.09	16459
913.204	16478
913.318	16664
913.431	16615
913.545	16733
913.659	16702
913.772	16573
913.886	16379
914	16367
914.113	16428
914.226	16558
914.34	16379
914.453	16287
914.566	16375
914.68	16318
914.793	16188
914.906	16082
915.019	15979
915.132	15930
915.245	15918
915.358	15987
915.47	16036
915.583	15876
915.696	16017
915.809	16166
915.921	16036
916.034	15941
916.146	15884
916.259	15835
916.371	15934
916.483	15800
916.595	15789
916.708	15755
916.82	15823
916.932	15705
917.044	15694
917.156	15774
917.268	15644
917.38	15610
917.491	15614
917.603	15629
917.715	15671
917.826	15561
917.938	15488
918.049	15496
918.161	15545
918.272	15667
918.384	15515
918.495	15507
918.606	15386
918.717	15214
918.828	15355
918.939	15447
919.05	15233
919.161	15310
919.272	15081
919.383	15154
919.494	15363
919.604	15458
919.715	15260
919.826	15119
919.936	15249
920.047	15382
920.157	15329
920.267	15454
920.378	15287
920.488	15135
920.598	15412
920.708	15545
920.818	15359
920.928	15420
921.038	15732
921.148	15519
921.258	15119
921.368	15135
921.477	15024
921.587	14971
921.697	14796
921.806	15017
921.916	14834
922.025	14686
922.134	14606
922.244	14552
922.353	14648
922.462	14530
922.571	14389
922.68	14237
922.789	14313
922.898	14286
923.007	14164
923.116	14301
923.224	14256
923.333	14199
923.442	14134
923.55	14126
923.659	14001
923.767	14111
923.876	13986
923.984	14058
924.092	13947
924.201	14008
924.309	14008
924.417	13932
924.525	13944
924.633	13830
924.741	14659
924.849	13693
924.956	13799
925.064	13624
925.172	13567
925.279	13666
925.387	13696
925.494	13559
925.602	13715
925.709	13708
925.816	13575
925.924	13575
926.031	13674
926.138	13571
926.245	13586
926.352	13502
926.459	13658
926.566	13578
926.673	13491
926.779	13369
926.886	13369
926.993	13213
927.099	13175
927.206	13149
927.312	13034
927.419	13179
927.525	13164
927.631	13221
927.737	13046
927.843	12989
927.95	12821
928.056	12962
928.162	12996
928.267	12981
928.373	13556
928.479	13095
928.585	12753
928.69	12947
928.796	12996
928.901	12825
929.007	12757
929.112	12787
929.218	12856
929.323	12631
929.428	12669
929.533	12783
929.638	12650
929.743	12517
929.848	12616
929.953	12627
930.058	12517
930.163	12350
930.267	12365
930.372	12536
930.477	12376
930.581	12513
930.685	12342
930.79	12319
930.894	12277
930.998	12266
931.103	12418
931.207	11939
931.311	11942
931.415	11771
931.519	11562
931.623	11585
