Data from test_V78500241_2197.txt Node
Date: Fri Mar 25 15:57:01 CST 2022
User: usil
Spectrometer: V785-0024
Trigger mode: 0
Integration Time (sec): 4.000000E-1
Scans to average: 1
Nonlinearity correction enabled: false
Boxcar width: 0
Storing dark spectrum: false
XAxis mode: Wavelengths
Number of Pixels in Spectrum: 1024
>>>>>Begin Spectral Data<<<<<
801.071	28554
801.214	28310
801.356	28196
801.499	28265
801.641	27998
801.783	28215
801.926	28090
802.068	27861
802.211	28090
802.353	27998
802.496	27956
802.638	27854
802.78	27724
802.923	27819
803.065	27534
803.208	27739
803.35	27720
803.492	27911
803.635	27892
803.777	27827
803.919	27907
804.061	28196
804.204	28051
804.346	27895
804.488	27766
804.63	27964
804.773	27914
804.915	27949
805.057	28059
805.199	27907
805.341	28086
805.483	28074
805.626	28135
805.768	27941
805.91	28124
806.052	28173
806.194	28063
806.336	28306
806.478	28162
806.62	27998
806.762	28299
806.904	28459
807.046	28588
807.188	28459
807.33	28497
807.472	28554
807.614	28470
807.756	28531
807.898	28394
808.04	28356
808.182	28379
808.324	28470
808.465	28485
808.607	28675
808.749	28672
808.891	28923
809.033	28904
809.174	28858
809.316	28767
809.458	28805
809.6	28778
809.741	28854
809.883	28972
810.025	29128
810.166	29025
810.308	29022
810.45	29052
810.591	28980
810.733	28847
810.875	28812
811.016	28607
811.158	28729
811.299	28908
811.441	28904
811.582	28987
811.724	28717
811.865	28763
812.007	28896
812.148	28778
812.29	28763
812.431	28923
812.573	29174
812.714	29204
812.855	29349
812.997	29516
813.138	29509
813.279	29345
813.421	29417
813.562	29299
813.703	29083
813.845	29098
813.986	28748
814.127	28653
814.268	28531
814.41	28466
814.551	28455
814.692	28497
814.833	28470
814.974	28516
815.115	28557
815.256	28367
815.397	28447
815.539	28459
815.68	28158
815.821	28169
815.962	28390
816.103	28257
816.244	28310
816.385	28051
816.526	28120
816.666	27762
816.807	27747
816.948	27873
817.089	27762
817.23	27953
817.371	27827
817.512	27850
817.653	27865
817.793	27759
817.934	27823
818.075	27743
818.216	27831
818.356	27701
818.497	27701
818.638	27439
818.778	27614
818.919	27667
819.06	27705
819.2	27614
819.341	27713
819.481	27698
819.622	27949
819.762	28143
819.903	28029
820.043	28074
820.184	27914
820.324	27869
820.465	28002
820.605	27884
820.746	27778
820.886	27732
821.026	27895
821.167	27698
821.307	27968
821.447	27679
821.588	27637
821.728	27610
821.868	27500
822.008	27302
822.149	27332
822.289	27169
822.429	27096
822.569	26899
822.709	26819
822.849	26807
822.99	26731
823.13	26765
823.27	26640
823.41	26640
823.55	26571
823.69	26651
823.83	26568
823.97	26457
824.11	26282
824.25	26370
824.389	26434
824.529	26495
824.669	26419
824.809	26587
824.949	26488
825.089	26518
825.228	26575
825.368	26134
825.508	26248
825.648	26374
825.787	26377
825.927	26427
826.067	26301
826.206	26282
826.346	26309
826.485	26298
826.625	26240
826.765	26275
826.904	26294
827.044	26054
827.183	26001
827.323	26043
827.462	25974
827.601	25966
827.741	26050
827.88	26081
828.02	25818
828.159	25966
828.298	26027
828.437	26012
828.577	25898
828.716	26039
828.855	25970
828.994	25803
829.134	25712
829.273	25780
829.412	25708
829.551	25575
829.69	25750
829.829	25799
829.968	25807
830.107	25708
830.246	25700
830.385	25715
830.524	25639
830.663	25563
830.802	25476
830.941	25244
831.08	25259
831.219	25373
831.357	25426
831.496	25544
831.635	25251
831.774	25228
831.913	25168
832.051	25160
832.19	25129
832.329	25091
832.467	25183
832.606	24951
832.744	24932
832.883	24989
833.022	24943
833.16	24970
833.299	24943
833.437	24958
833.576	25091
833.714	24985
833.852	25114
833.991	25088
834.129	25110
834.267	25053
834.406	25088
834.544	25061
834.682	25171
834.821	25019
834.959	25103
835.097	24886
835.235	25088
835.373	24894
835.511	25000
835.65	24935
835.788	24825
835.926	24791
836.064	24711
836.202	24681
836.34	24890
836.478	24985
836.615	24776
836.753	24897
836.891	24859
837.029	24821
837.167	24844
837.305	24764
837.443	24715
837.58	24719
837.718	24703
837.856	24745
837.993	24563
838.131	24635
838.269	24528
838.406	24646
838.544	24513
838.681	24384
838.819	24273
838.956	24167
839.094	24144
839.231	24213
839.369	24330
839.506	24380
839.643	24418
839.781	24235
839.918	23988
840.055	24083
840.193	24163
840.33	24079
840.467	24095
840.604	24053
840.742	24464
840.879	23912
841.016	23999
841.153	23973
841.29	24091
841.427	23969
841.564	24117
841.701	24018
841.838	23992
841.975	24003
842.112	23946
842.249	23798
842.385	23813
842.522	24144
842.659	23802
842.796	23726
842.933	23809
843.069	23851
843.206	23790
843.343	23889
843.479	23843
843.616	23836
843.752	23543
843.889	23547
844.025	23771
844.162	23585
844.298	23687
844.435	23543
844.571	23554
844.708	23547
844.844	23809
844.98	23840
845.117	23600
845.253	23547
845.389	23436
845.525	23410
845.661	23383
845.798	23220
845.934	23440
846.07	23193
846.206	23356
846.342	23543
846.478	23280
846.614	23067
846.75	22991
846.886	23056
847.022	23189
847.158	23003
847.294	22980
847.429	22987
847.565	22999
847.701	23398
847.837	22790
847.972	22721
848.108	22839
848.244	22885
848.379	22706
848.515	22706
848.65	22607
848.786	22675
848.921	22660
849.057	22755
849.192	22858
849.328	22615
849.463	22668
849.598	22630
849.734	22546
849.869	22622
850.004	22371
850.14	22474
850.275	22409
850.41	22356
850.545	22276
850.68	22272
850.815	22356
850.95	22421
851.085	22478
851.22	22599
851.355	22409
851.49	22402
851.625	22318
851.76	22333
851.895	22318
852.03	22276
852.165	22360
852.299	22325
852.434	22542
852.569	22402
852.703	22409
852.838	22447
852.973	22584
853.107	22588
853.242	22405
853.376	22188
853.511	22158
853.645	22211
853.78	22253
853.914	22055
854.048	22116
854.183	22109
854.317	22253
854.451	22318
854.585	22280
854.72	22158
854.854	22329
854.988	22147
855.122	22303
855.256	22082
855.39	22246
855.524	22367
855.658	22139
855.792	22219
855.926	22150
856.06	22322
856.194	22409
856.327	22143
856.461	22196
856.595	22131
856.729	22276
856.862	22310
856.996	22230
857.13	22272
857.263	22253
857.397	22287
857.53	22230
857.664	22310
857.797	22291
857.931	22238
858.064	22131
858.197	22367
858.331	22162
858.464	22124
858.597	22082
858.731	22265
858.864	22234
858.997	22090
859.13	22158
859.263	22128
859.396	22238
859.529	22200
859.662	22097
859.795	22268
859.928	22109
860.061	22310
860.194	22485
860.327	22147
860.46	22230
860.592	22394
860.725	22219
860.858	22303
860.99	22139
861.123	22044
861.256	22074
861.388	22265
861.521	22729
861.653	22124
861.786	21907
861.918	22010
862.05	22215
862.183	22070
862.315	22135
862.447	22226
862.58	22143
862.712	21922
862.844	21835
862.976	22040
863.108	21907
863.24	22409
863.372	21800
863.504	21903
863.636	21888
863.768	21987
863.9	21937
864.032	21846
864.164	21850
864.296	21911
864.428	22082
864.559	21968
864.691	21960
864.823	22044
864.954	21838
865.086	21831
865.217	21873
865.349	21633
865.48	21755
865.612	21781
865.743	21800
865.875	21804
866.006	21778
866.137	21751
866.269	21819
866.4	21755
866.531	21743
866.662	21682
866.793	21701
866.924	21709
867.055	21720
867.186	21804
867.317	21720
867.448	21656
867.579	21690
867.71	21610
867.841	21686
867.972	21827
868.103	21785
868.233	21686
868.364	21705
868.495	21781
868.625	21793
868.756	22074
868.886	21937
869.017	21915
869.147	22086
869.278	22044
869.408	22025
869.539	21991
869.669	22006
869.799	21983
869.929	22128
870.06	22131
870.19	22337
870.32	22265
870.45	22314
870.58	22436
870.71	22531
870.84	22390
870.97	22306
871.1	22375
871.23	22493
871.36	22607
871.489	22421
871.619	22459
871.749	22767
871.879	22523
872.008	22664
872.138	22516
872.267	22500
872.397	22405
872.526	22417
872.656	22337
872.785	22303
872.915	22535
873.044	22634
873.173	22603
873.303	22531
873.432	22634
873.561	22603
873.69	22497
873.819	22615
873.948	22580
874.077	22470
874.206	22561
874.335	22565
874.464	22694
874.593	22774
874.722	22824
874.851	22797
874.979	22885
875.108	22748
875.237	22835
875.365	22706
875.494	22869
875.623	22911
875.751	22858
875.88	22873
876.008	22953
876.136	22968
876.265	23121
876.393	23326
876.521	23151
876.65	23296
876.778	23193
876.906	23197
877.034	23075
877.162	23181
877.29	22965
877.418	23254
877.546	23265
877.674	23197
877.802	23147
877.93	23121
878.058	23006
878.185	22991
878.313	23117
878.441	23220
878.568	22892
878.696	23029
878.824	23022
878.951	23143
879.079	23364
879.206	23337
879.333	23288
879.461	23269
879.588	23204
879.715	23189
879.842	23414
879.97	23185
880.097	22934
880.224	23037
880.351	22942
880.478	22953
880.605	22919
880.732	22790
880.859	23246
880.986	22995
881.112	23029
881.239	22805
881.366	22717
881.493	22679
881.619	22516
881.746	22656
881.872	22546
881.999	22493
882.125	22409
882.252	22569
882.378	22538
882.505	22637
882.631	22398
882.757	22272
882.883	22158
883.01	22242
883.136	22120
883.262	22002
883.388	21911
883.514	22223
883.64	22322
883.766	22215
883.892	22105
884.018	21945
884.143	22192
884.269	22211
884.395	21888
884.52	21762
884.646	21823
884.772	21701
884.897	21804
885.023	21888
885.148	21873
885.274	21899
885.399	21850
885.524	21888
885.65	21804
885.775	21884
885.9	21888
886.025	21945
886.15	21987
886.275	21804
886.4	21663
886.525	21793
886.65	21736
886.775	21751
886.9	21934
887.025	21945
887.149	21785
887.274	21686
887.399	21538
887.523	21587
887.648	21572
887.773	21450
887.897	21500
888.021	21667
888.146	21447
888.27	21747
888.395	21576
888.519	21538
888.643	21595
888.767	21652
888.891	21439
889.015	21473
889.139	21473
889.263	21428
889.387	21454
889.511	21622
889.635	21610
889.759	21374
889.883	21420
890.006	21382
890.13	21515
890.254	21310
890.377	21386
890.501	21131
890.624	21081
890.748	21260
890.871	20948
890.995	20895
891.118	20823
891.241	21032
891.364	20990
891.488	21032
891.611	20933
891.734	20857
891.857	20960
891.98	20830
892.103	20864
892.226	20906
892.349	20994
892.471	20807
892.594	20842
892.717	20967
892.839	20906
892.962	20910
893.085	20807
893.207	20830
893.33	20750
893.452	20819
893.575	20842
893.697	20804
893.819	20842
893.941	21028
894.064	20990
894.186	20674
894.308	20735
894.43	20811
894.552	20944
894.674	20872
894.796	20712
894.918	20819
895.04	20701
895.161	20887
895.283	20941
895.405	20765
895.526	20853
895.648	20785
895.769	20868
895.891	20864
896.012	20838
896.134	20883
896.255	20868
896.376	20689
896.498	20899
896.619	20785
896.74	20781
896.861	20948
896.982	21214
897.103	21275
897.224	21070
897.345	21032
897.466	20933
897.587	21192
897.708	21218
897.828	21043
897.949	20956
898.07	20971
898.19	20990
898.311	21077
898.431	21081
898.552	20994
898.672	21093
898.792	21020
898.913	21074
899.033	20899
899.153	20895
899.273	20716
899.393	20811
899.513	20826
899.633	20743
899.753	20720
899.873	20708
899.993	20705
900.113	20735
900.232	20720
900.352	20773
900.472	20594
900.591	20465
900.711	20476
900.83	20514
900.95	20686
901.069	20549
901.189	20492
901.308	20210
901.427	20122
901.546	20172
901.665	20142
901.784	20237
901.904	20039
902.023	19982
902.141	19620
902.26	19616
902.379	19712
902.498	19670
902.617	19628
902.735	19632
902.854	19563
902.973	19556
903.091	19400
903.21	19388
903.328	19232
903.446	19213
903.565	19050
903.683	19038
903.801	19000
903.919	19046
904.038	18966
904.156	18863
904.274	18939
904.392	18776
904.51	18863
904.627	18734
904.745	18863
904.863	18939
904.981	18726
905.098	18483
905.216	18616
905.334	18555
905.451	18475
905.569	18471
905.686	18452
905.803	18525
905.921	18270
906.038	18403
906.155	18300
906.272	18140
906.389	18213
906.506	18015
906.623	18064
906.74	18007
906.857	17984
906.974	17927
907.091	18022
907.208	18178
907.324	18087
907.441	17904
907.557	17821
907.674	17729
907.79	17699
907.907	17665
908.023	17703
908.139	17737
908.256	17649
908.372	17596
908.488	17741
908.604	17376
908.72	17372
908.836	17566
908.952	17493
909.068	17535
909.184	17551
909.3	17368
909.415	17532
909.531	17406
909.647	17193
909.762	17181
909.878	17136
909.993	17220
910.108	17200
910.224	17048
910.339	17079
910.454	16938
910.57	16930
910.685	16987
910.8	17147
910.915	17014
911.03	16961
911.145	16816
911.259	16740
911.374	16771
911.489	16694
911.604	16687
911.718	16421
911.833	16508
911.947	16310
912.062	16390
912.176	16436
912.291	16352
912.405	16550
912.519	16512
912.633	16668
912.748	16485
912.862	16409
912.976	16272
913.09	16196
913.204	16131
913.318	16287
913.431	16371
913.545	16310
913.659	16455
913.772	16196
913.886	16147
914	16071
914.113	16093
914.226	16223
914.34	16120
914.453	15972
914.566	16150
914.68	15960
914.793	15850
914.906	15682
915.019	15667
915.132	15557
915.245	15732
915.358	15705
915.47	15644
915.583	15663
915.696	15713
915.809	15686
915.921	15739
916.034	15549
916.146	15568
916.259	15587
916.371	15686
916.483	15656
916.595	15496
916.708	15515
916.82	15530
916.932	15458
917.044	15595
917.156	15450
917.268	15344
917.38	15344
917.491	15199
917.603	15367
917.715	15367
917.826	15367
917.938	15214
918.049	15116
918.161	15283
918.272	15428
918.384	15344
918.495	15207
918.606	15161
918.717	15039
918.828	14990
918.939	15039
919.05	14986
919.161	15009
919.272	14845
919.383	14967
919.494	15119
919.604	15310
919.715	15055
919.826	14826
919.936	15108
920.047	15142
920.157	14998
920.267	15138
920.378	15001
920.488	14998
920.598	15176
920.708	15245
920.818	15104
920.928	15211
921.038	15241
921.148	15154
921.258	14990
921.368	14842
921.477	14750
921.587	14823
921.697	14655
921.806	14678
921.916	14568
922.025	14427
922.134	14290
922.244	14278
922.353	14366
922.462	14187
922.571	14073
922.68	13944
922.789	13997
922.898	13951
923.007	13959
923.116	13963
923.224	14046
923.333	13993
923.442	13784
923.55	13814
923.659	13890
923.767	13902
923.876	13750
923.984	13830
924.092	13689
924.201	13784
924.309	13658
924.417	13662
924.525	13655
924.633	13708
924.741	14434
924.849	13441
924.956	13556
925.064	13502
925.172	13346
925.279	13411
925.387	13304
925.494	13415
925.602	13521
925.709	13476
925.816	13202
925.924	13358
926.031	13441
926.138	13320
926.245	13343
926.352	13183
926.459	13278
926.566	13358
926.673	13206
926.779	13114
926.886	13129
926.993	13072
927.099	12943
927.206	12882
927.312	12951
927.419	12989
927.525	13008
927.631	12882
927.737	12897
927.843	12711
927.95	12669
928.056	12802
928.162	12726
928.267	12753
928.373	13415
928.479	12901
928.585	12612
928.69	12631
928.796	12722
928.901	12608
929.007	12498
929.112	12696
929.218	12589
929.323	12494
929.428	12475
929.533	12540
929.638	12376
929.743	12445
929.848	12506
929.953	12414
930.058	12353
930.163	12041
930.267	12247
930.372	12171
930.477	12064
930.581	12372
930.685	12167
930.79	12022
930.894	12079
930.998	11961
931.103	12034
931.207	11771
931.311	11672
931.415	11554
931.519	11379
931.623	11334
