Data from test_V78500241_3236.txt Node
Date: Fri Mar 25 16:04:13 CST 2022
User: usil
Spectrometer: V785-0024
Trigger mode: 0
Integration Time (sec): 4.000000E-1
Scans to average: 1
Nonlinearity correction enabled: false
Boxcar width: 0
Storing dark spectrum: false
XAxis mode: Wavelengths
Number of Pixels in Spectrum: 1024
>>>>>Begin Spectral Data<<<<<
801.071	29102
801.214	28866
801.356	28611
801.499	28493
801.641	28485
801.783	28565
801.926	28580
802.068	28565
802.211	28325
802.353	28504
802.496	28234
802.638	28265
802.78	28284
802.923	28162
803.065	28040
803.208	28143
803.35	28253
803.492	28306
803.635	28440
803.777	28280
803.919	28569
804.061	28752
804.204	28417
804.346	28470
804.488	28462
804.63	28409
804.773	28356
804.915	28493
805.057	28641
805.199	28455
805.341	28569
805.483	28569
805.626	28615
805.768	28596
805.91	28599
806.052	28660
806.194	28500
806.336	28927
806.478	28793
806.62	28550
806.762	28710
806.904	28850
807.046	29261
807.188	29124
807.33	29174
807.472	29132
807.614	29064
807.756	29018
807.898	29010
808.04	28866
808.182	28828
808.324	28896
808.465	28991
808.607	29121
808.749	29216
808.891	29322
809.033	29375
809.174	29292
809.316	29452
809.458	29478
809.6	29075
809.741	29570
809.883	29440
810.025	29657
810.166	29573
810.308	29790
810.45	29543
810.591	29573
810.733	29410
810.875	29318
811.016	29326
811.158	29284
811.299	29421
811.441	29562
811.582	29459
811.724	29398
811.865	29345
812.007	29433
812.148	29395
812.29	29524
812.431	29558
812.573	29687
812.714	29695
812.855	29802
812.997	30026
813.138	30190
813.279	30034
813.421	29878
813.562	29851
813.703	29821
813.845	29360
813.986	29326
814.127	29140
814.268	29090
814.41	29197
814.551	29056
814.692	29151
814.833	29094
814.974	29044
815.115	29181
815.256	28984
815.397	28927
815.539	29022
815.68	28923
815.821	28858
815.962	28953
816.103	29037
816.244	28656
816.385	28755
816.526	28687
816.666	28432
816.807	28481
816.948	28531
817.089	28531
817.23	28497
817.371	28379
817.512	28401
817.653	28379
817.793	28291
817.934	28474
818.075	28424
818.216	28424
818.356	28508
818.497	28401
818.638	28166
818.778	28162
818.919	28242
819.06	28291
819.2	28280
819.341	28485
819.481	28428
819.622	28592
819.762	28736
819.903	28618
820.043	28675
820.184	28679
820.324	28588
820.465	28641
820.605	28622
820.746	28451
820.886	28478
821.026	28573
821.167	28523
821.307	28500
821.447	28413
821.588	28348
821.728	28249
821.868	28242
822.008	27937
822.149	27831
822.289	27831
822.429	27641
822.569	27549
822.709	27599
822.849	27256
822.99	27447
823.13	27207
823.27	27378
823.41	27348
823.55	27081
823.69	27081
823.83	27245
823.97	27249
824.11	27047
824.25	26979
824.389	26990
824.529	27211
824.669	27013
824.809	27230
824.949	27043
825.089	27089
825.228	27135
825.368	27081
825.508	26857
825.648	26918
825.787	27013
825.927	27055
826.067	26857
826.206	26933
826.346	27173
826.485	27108
826.625	26891
826.765	27066
826.904	26979
827.044	26765
827.183	26845
827.323	26549
827.462	26670
827.601	26587
827.741	26629
827.88	26697
828.02	26492
828.159	26594
828.298	26693
828.437	26720
828.577	26552
828.716	26785
828.855	26526
828.994	26469
829.134	26484
829.273	26484
829.412	26286
829.551	26351
829.69	26298
829.829	26442
829.968	26503
830.107	26419
830.246	26256
830.385	26267
830.524	26259
830.663	26267
830.802	26096
830.941	25997
831.08	25974
831.219	25993
831.357	25997
831.496	26092
831.635	26005
831.774	25879
831.913	26024
832.051	25742
832.19	25799
832.329	25685
832.467	25655
832.606	25635
832.744	25578
832.883	25529
833.022	25594
833.16	25681
833.299	25651
833.437	25674
833.576	25727
833.714	25681
833.852	25791
833.991	25658
834.129	25746
834.267	25791
834.406	25693
834.544	25681
834.682	25708
834.821	25662
834.959	25833
835.097	25620
835.235	25753
835.373	25647
835.511	25506
835.65	25594
835.788	25586
835.926	25476
836.064	25278
836.202	25354
836.34	25658
836.478	25685
836.615	25403
836.753	25499
836.891	25540
837.029	25658
837.167	25521
837.305	25419
837.443	25327
837.58	25419
837.718	25457
837.856	25381
837.993	25316
838.131	25198
838.269	25266
838.406	25145
838.544	25168
838.681	25015
838.819	24897
838.956	24779
839.094	24798
839.231	24859
839.369	24863
839.506	25232
839.643	25126
839.781	24760
839.918	24757
840.055	24726
840.193	24551
840.33	24734
840.467	24817
840.604	24779
840.742	24939
840.879	24532
841.016	24502
841.153	24623
841.29	24814
841.427	24677
841.564	24677
841.701	24654
841.838	24681
841.975	24502
842.112	24616
842.249	24494
842.385	24525
842.522	24585
842.659	24570
842.796	24517
842.933	24525
843.069	24452
843.206	24369
843.343	24471
843.479	24486
843.616	24509
843.752	24178
843.889	24209
844.025	24353
844.162	24304
844.298	24357
844.435	24228
844.571	24163
844.708	24388
844.844	24277
844.98	24460
845.117	24350
845.253	24091
845.389	24201
845.525	24049
845.661	24057
845.798	23946
845.934	24129
846.07	23977
846.206	24117
846.342	24178
846.478	23843
846.614	23878
846.75	23771
846.886	23745
847.022	23805
847.158	23710
847.294	23596
847.429	23748
847.565	23665
847.701	23855
847.837	23425
847.972	23402
848.108	23627
848.244	23463
848.379	23288
848.515	23284
848.65	23189
848.786	23273
848.921	23277
849.057	23265
849.192	23360
849.328	23303
849.463	23425
849.598	23181
849.734	23208
849.869	23170
850.004	22949
850.14	23166
850.275	23052
850.41	23029
850.545	22923
850.68	22984
850.815	23018
850.95	23064
851.085	23280
851.22	23109
851.355	23105
851.49	23094
851.625	22999
851.76	22866
851.895	23041
852.03	23060
852.165	22968
852.299	23067
852.434	23075
852.569	23102
852.703	23003
852.838	23071
852.973	23136
853.107	23117
853.242	22942
853.376	22850
853.511	22790
853.645	22717
853.78	22881
853.914	22892
854.048	22725
854.183	22915
854.317	22900
854.451	23102
854.585	22923
854.72	22915
854.854	22889
854.988	22816
855.122	22847
855.256	22694
855.39	22759
855.524	23048
855.658	22843
855.792	22911
855.926	22763
856.06	22923
856.194	22927
856.327	22824
856.461	22774
856.595	22820
856.729	22843
856.862	22900
856.996	22782
857.13	22797
857.263	22957
857.397	22858
857.53	22835
857.664	22801
857.797	22847
857.931	22904
858.064	22946
858.197	22991
858.331	22782
858.464	22721
858.597	22713
858.731	22828
858.864	22820
858.997	22889
859.13	22755
859.263	22862
859.396	22968
859.529	22904
859.662	22942
859.795	22725
859.928	22877
860.061	23044
860.194	23071
860.327	23056
860.46	22725
860.592	22782
860.725	23044
860.858	23025
860.99	22873
861.123	22778
861.256	22828
861.388	23014
861.521	23551
861.653	22771
861.786	22679
861.918	22793
862.05	22812
862.183	22736
862.315	22908
862.447	22896
862.58	22862
862.712	22615
862.844	22402
862.976	22733
863.108	22546
863.24	22949
863.372	22584
863.504	22577
863.636	22531
863.768	22592
863.9	22634
864.032	22512
864.164	22554
864.296	22538
864.428	22656
864.559	22607
864.691	22596
864.823	22573
864.954	22592
865.086	22519
865.217	22447
865.349	22443
865.48	22382
865.612	22497
865.743	22660
865.875	22554
866.006	22329
866.137	22451
866.269	22470
866.4	22436
866.531	22451
866.662	22306
866.793	22360
866.924	22402
867.055	22341
867.186	22466
867.317	22306
867.448	22200
867.579	22196
867.71	22344
867.841	22265
867.972	22363
868.103	22409
868.233	22344
868.364	22363
868.495	22440
868.625	22607
868.756	22691
868.886	22542
869.017	22580
869.147	22554
869.278	22866
869.408	22561
869.539	22565
869.669	22527
869.799	22653
869.929	22752
870.06	22645
870.19	22816
870.32	22869
870.45	22957
870.58	23033
870.71	23216
870.84	23147
870.97	23033
871.1	23185
871.23	23273
871.36	23341
871.489	23166
871.619	23242
871.749	23128
871.879	23246
872.008	23296
872.138	23216
872.267	23239
872.397	23102
872.526	23083
872.656	22991
872.785	23010
872.915	23223
873.044	23246
873.173	23315
873.303	23349
873.432	23242
873.561	23265
873.69	23322
873.819	23166
873.948	23181
874.077	23223
874.206	23143
874.335	23322
874.464	23410
874.593	23448
874.722	23299
874.851	23455
874.979	23429
875.108	23482
875.237	23337
875.365	23269
875.494	23429
875.623	23581
875.751	23452
875.88	23417
876.008	23531
876.136	23600
876.265	23794
876.393	23969
876.521	23866
876.65	23927
876.778	23840
876.906	23714
877.034	23821
877.162	23779
877.29	23699
877.418	23752
877.546	23783
877.674	23817
877.802	23748
877.93	23695
878.058	23661
878.185	23615
878.313	23779
878.441	23638
878.568	23505
878.696	23741
878.824	23707
878.951	23847
879.079	23840
879.206	24038
879.333	24049
879.461	23718
879.588	23939
879.715	23996
879.842	24072
879.97	23733
880.097	23551
880.224	23558
880.351	23653
880.478	23615
880.605	23589
880.732	23589
880.859	23779
880.986	23649
881.112	23623
881.239	23547
881.366	23311
881.493	23235
881.619	23189
881.746	23235
881.872	23098
881.999	23056
882.125	23132
882.252	23212
882.378	23162
882.505	23227
882.631	22930
882.757	22729
882.883	22839
883.01	22942
883.136	22698
883.262	22725
883.388	22740
883.514	22843
883.64	22759
883.766	22759
883.892	22630
884.018	22527
884.143	22797
884.269	22721
884.395	22504
884.52	22424
884.646	22382
884.772	22409
884.897	22329
885.023	22489
885.148	22573
885.274	22584
885.399	22413
885.524	22569
885.65	22390
885.775	22421
885.9	22455
886.025	22565
886.15	22519
886.275	22481
886.4	22287
886.525	22417
886.65	22390
886.775	22356
886.9	22451
887.025	22740
887.149	22386
887.274	22268
887.399	22234
887.523	22242
887.648	22150
887.773	22105
887.897	22325
888.021	22299
888.146	22109
888.27	22314
888.395	22265
888.519	22196
888.643	22128
888.767	22188
888.891	22124
889.015	22044
889.139	21960
889.263	21998
889.387	22139
889.511	22196
889.635	22032
889.759	22010
889.883	21930
890.006	22048
890.13	22013
890.254	21865
890.377	21857
890.501	21675
890.624	21736
890.748	21804
890.871	21625
890.995	21622
891.118	21420
891.241	21542
891.364	21526
891.488	21511
891.611	21644
891.734	21576
891.857	21629
891.98	21500
892.103	21591
892.226	21515
892.349	21526
892.471	21325
892.594	21389
892.717	21545
892.839	21344
892.962	21515
893.085	21408
893.207	21500
893.33	21348
893.452	21252
893.575	21351
893.697	21389
893.819	21618
893.941	21603
894.064	21443
894.186	21447
894.308	21317
894.43	21386
894.552	21469
894.674	21408
894.796	21329
894.918	21389
895.04	21443
895.161	21477
895.283	21386
895.405	21306
895.526	21416
895.648	21294
895.769	21428
895.891	21401
896.012	21496
896.134	21393
896.255	21416
896.376	21435
896.498	21367
896.619	21348
896.74	21466
896.861	21431
896.982	21713
897.103	21835
897.224	21667
897.345	21603
897.466	21637
897.587	21675
897.708	21686
897.828	21671
897.949	21412
898.07	21405
898.19	21603
898.311	21682
898.431	21553
898.552	21481
898.672	21629
898.792	21675
898.913	21428
899.033	21386
899.153	21378
899.273	21169
899.393	21412
899.513	21363
899.633	21329
899.753	21306
899.873	21275
899.993	21306
900.113	21085
900.232	21340
900.352	21252
900.472	21001
900.591	21058
900.711	21093
900.83	21013
900.95	21070
901.069	21203
901.189	20910
901.308	20785
901.427	20590
901.546	20629
901.665	20667
901.784	20495
901.904	20457
902.023	20355
902.141	20180
902.26	20073
902.379	20153
902.498	19959
902.617	20062
902.735	20157
902.854	20058
902.973	20081
903.091	19799
903.21	19784
903.328	19814
903.446	19864
903.565	19578
903.683	19552
903.801	19457
903.919	19567
904.038	19616
904.156	19400
904.274	19434
904.392	19282
904.51	19331
904.627	19312
904.745	19460
904.863	19304
904.981	19015
905.098	19027
905.216	19088
905.334	18985
905.451	19072
905.569	19015
905.686	19023
905.803	19000
905.921	18859
906.038	18916
906.155	18642
906.272	18646
906.389	18741
906.506	18589
906.623	18578
906.74	18540
906.857	18369
906.974	18357
907.091	18570
907.208	18669
907.324	18639
907.441	18464
907.557	18220
907.674	18254
907.79	18117
907.907	18262
908.023	18190
908.139	18213
908.256	18098
908.372	18117
908.488	18167
908.604	18057
908.72	17996
908.836	17927
908.952	17912
909.068	17973
909.184	17965
909.3	17843
909.415	17927
909.531	17931
909.647	17634
909.762	17707
909.878	17630
909.993	17615
910.108	17653
910.224	17505
910.339	17554
910.454	17467
910.57	17406
910.685	17280
910.8	17554
910.915	17562
911.03	17417
911.145	17292
911.259	17242
911.374	17315
911.489	17090
911.604	17181
911.718	16984
911.833	16999
911.947	16828
912.062	16721
912.176	16919
912.291	17018
912.405	16908
912.519	17174
912.633	17094
912.748	17033
912.862	16904
912.976	16835
913.09	16691
913.204	16752
913.318	16759
913.431	16927
913.545	16869
913.659	16862
913.772	16618
913.886	16611
914	16580
914.113	16504
914.226	16694
914.34	16599
914.453	16424
914.566	16687
914.68	16421
914.793	16295
914.906	16154
915.019	16101
915.132	16120
915.245	16173
915.358	16139
915.47	16059
915.583	16109
915.696	16230
915.809	16177
915.921	16226
916.034	16109
916.146	16025
916.259	15926
916.371	16124
916.483	16109
916.595	15892
916.708	15915
916.82	15907
916.932	15968
917.044	15926
917.156	15766
917.268	15724
917.38	15781
917.491	15599
917.603	15797
917.715	15812
917.826	15949
917.938	15759
918.049	15557
918.161	15656
918.272	15759
918.384	15751
918.495	15580
918.606	15496
918.717	15355
918.828	15477
918.939	15504
919.05	15325
919.161	15443
919.272	15283
919.383	15287
919.494	15405
919.604	15622
919.715	15363
919.826	15367
919.936	15408
920.047	15511
920.157	15469
920.267	15629
920.378	15473
920.488	15325
920.598	15625
920.708	15705
920.818	15545
920.928	15466
921.038	15713
921.148	15622
921.258	15294
921.368	15279
921.477	15157
921.587	15062
921.697	15005
921.806	15184
921.916	15036
922.025	14746
922.134	14758
922.244	14746
922.353	14781
922.462	14644
922.571	14556
922.68	14556
922.789	14358
922.898	14541
923.007	14362
923.116	14366
923.224	14419
923.333	14370
923.442	14294
923.55	14221
923.659	14294
923.767	14347
923.876	14172
923.984	14210
924.092	14130
924.201	14126
924.309	14157
924.417	14084
924.525	14005
924.633	14027
924.741	14819
924.849	13780
924.956	13947
925.064	13833
925.172	13712
925.279	13742
925.387	13818
925.494	13708
925.602	13928
925.709	13780
925.816	13670
925.924	13731
926.031	13746
926.138	13674
926.245	13791
926.352	13586
926.459	13708
926.566	13841
926.673	13632
926.779	13476
926.886	13499
926.993	13369
927.099	13365
927.206	13217
927.312	13168
927.419	13335
927.525	13293
927.631	13282
927.737	13236
927.843	13171
927.95	13046
928.056	13129
928.162	13164
928.267	13126
928.373	13662
928.479	13164
928.585	12867
928.69	13160
928.796	13042
928.901	12897
929.007	12848
929.112	12962
929.218	12890
929.323	12821
929.428	12768
929.533	12954
929.638	12768
929.743	12753
929.848	12825
929.953	12821
930.058	12642
930.163	12456
930.267	12426
930.372	12616
930.477	12502
930.581	12608
930.685	12597
930.79	12342
930.894	12342
930.998	12277
931.103	12433
931.207	12110
931.311	12060
931.415	11969
931.519	11748
931.623	11680
