Data from test_V78500241_2555.txt Node
Date: Fri Mar 25 15:59:30 CST 2022
User: usil
Spectrometer: V785-0024
Trigger mode: 0
Integration Time (sec): 4.000000E-1
Scans to average: 1
Nonlinearity correction enabled: false
Boxcar width: 0
Storing dark spectrum: false
XAxis mode: Wavelengths
Number of Pixels in Spectrum: 1024
>>>>>Begin Spectral Data<<<<<
801.071	28858
801.214	28782
801.356	28516
801.499	28348
801.641	28382
801.783	28367
801.926	28360
802.068	28253
802.211	28284
802.353	28253
802.496	28082
802.638	27991
802.78	27945
802.923	27975
803.065	27930
803.208	27979
803.35	28082
803.492	28211
803.635	28386
803.777	28128
803.919	28295
804.061	28527
804.204	28443
804.346	28181
804.488	28082
804.63	28284
804.773	28120
804.915	28405
805.057	28432
805.199	28443
805.341	28409
805.483	28443
805.626	28417
805.768	28371
805.91	28398
806.052	28565
806.194	28489
806.336	28546
806.478	28474
806.62	28557
806.762	28599
806.904	28835
807.046	29079
807.188	29121
807.33	28877
807.472	28995
807.614	28961
807.756	28911
807.898	28850
808.04	28622
808.182	28778
808.324	28854
808.465	28793
808.607	28927
808.749	29132
808.891	29105
809.033	29311
809.174	29204
809.316	29337
809.458	29037
809.6	29060
809.741	29311
809.883	29288
810.025	29311
810.166	29425
810.308	29425
810.45	29337
810.591	29303
810.733	29307
810.875	29090
811.016	29208
811.158	29022
811.299	29014
811.441	29345
811.582	29239
811.724	29151
811.865	29216
812.007	29284
812.148	29060
812.29	29250
812.431	29284
812.573	29467
812.714	29592
812.855	29684
812.997	29710
813.138	29992
813.279	29840
813.421	29733
813.562	29490
813.703	29467
813.845	29448
813.986	29162
814.127	28968
814.268	28911
814.41	28968
814.551	28839
814.692	28930
814.833	28824
814.974	28869
815.115	28873
815.256	28717
815.397	28744
815.539	28877
815.68	28706
815.821	28698
815.962	28805
816.103	28725
816.244	28550
816.385	28550
816.526	28421
816.666	28329
816.807	28219
816.948	28192
817.089	28196
817.23	28246
817.371	28272
817.512	28219
817.653	28207
817.793	28223
817.934	28128
818.075	28139
818.216	28242
818.356	28048
818.497	28029
818.638	27956
818.778	27975
818.919	27983
819.06	27983
819.2	28051
819.341	28074
819.481	28230
819.622	28421
819.762	28653
819.903	28409
820.043	28333
820.184	28310
820.324	28401
820.465	28371
820.605	28485
820.746	28265
820.886	28158
821.026	28280
821.167	28177
821.307	28440
821.447	28192
821.588	28124
821.728	28013
821.868	27819
822.008	27656
822.149	27679
822.289	27648
822.429	27469
822.569	27378
822.709	27272
822.849	27279
822.99	27127
823.13	26998
823.27	27302
823.41	27020
823.55	26872
823.69	27009
823.83	27138
823.97	26967
824.11	26796
824.25	26731
824.389	26952
824.529	27100
824.669	26792
824.809	26940
824.949	26887
825.089	26781
825.228	26857
825.368	26750
825.508	26629
825.648	26644
825.787	26762
825.927	26815
826.067	26552
826.206	26750
826.346	26735
826.485	26826
826.625	26693
826.765	26815
826.904	26720
827.044	26533
827.183	26511
827.323	26385
827.462	26575
827.601	26644
827.741	26415
827.88	26533
828.02	26290
828.159	26267
828.298	26377
828.437	26511
828.577	26484
828.716	26518
828.855	26434
828.994	26115
829.134	26054
829.273	26301
829.412	25959
829.551	26115
829.69	26153
829.829	26081
829.968	26130
830.107	26218
830.246	26088
830.385	25993
830.524	26103
830.663	25890
830.802	25909
830.941	25639
831.08	25620
831.219	25875
831.357	25750
831.496	25974
831.635	25712
831.774	25670
831.913	25586
832.051	25601
832.19	25521
832.329	25510
832.467	25304
832.606	25304
832.744	25312
832.883	25362
833.022	25403
833.16	25449
833.299	25419
833.437	25339
833.576	25472
833.714	25525
833.852	25476
833.991	25651
834.129	25533
834.267	25559
834.406	25476
834.544	25499
834.682	25472
834.821	25426
834.959	25715
835.097	25377
835.235	25468
835.373	25483
835.511	25457
835.65	25312
835.788	25320
835.926	25206
836.064	25183
836.202	24966
836.34	25259
836.478	25244
836.615	25133
836.753	25225
836.891	25213
837.029	25190
837.167	25160
837.305	25023
837.443	25206
837.58	25057
837.718	25095
837.856	25213
837.993	25042
838.131	24935
838.269	25019
838.406	25145
838.544	24928
838.681	24582
838.819	24745
838.956	24483
839.094	24532
839.231	24540
839.369	24745
839.506	24947
839.643	24795
839.781	24547
839.918	24509
840.055	24604
840.193	24654
840.33	24536
840.467	24544
840.604	24517
840.742	24745
840.879	24292
841.016	24452
841.153	24224
841.29	24574
841.427	24399
841.564	24422
841.701	24593
841.838	24403
841.975	24330
842.112	24479
842.249	24342
842.385	24292
842.522	24357
842.659	24296
842.796	24201
842.933	24243
843.069	24361
843.206	24106
843.343	24319
843.479	24201
843.616	24205
843.752	23935
843.889	24003
844.025	24087
844.162	24068
844.298	24007
844.435	24038
844.571	24068
844.708	23973
844.844	24095
844.98	24133
845.117	24209
845.253	23958
845.389	23923
845.525	23923
845.661	23783
845.798	23646
845.934	23821
846.07	23741
846.206	23764
846.342	23954
846.478	23748
846.614	23596
846.75	23425
846.886	23486
847.022	23577
847.158	23410
847.294	23356
847.429	23341
847.565	23398
847.701	23665
847.837	23189
847.972	23143
848.108	23349
848.244	23299
848.379	23189
848.515	23033
848.65	22984
848.786	23048
848.921	23025
849.057	23075
849.192	23155
849.328	23109
849.463	23159
849.598	23025
849.734	22835
849.869	22911
850.004	22812
850.14	22847
850.275	22820
850.41	22702
850.545	22782
850.68	22611
850.815	22927
850.95	22736
851.085	23117
851.22	22942
851.355	22793
851.49	22854
851.625	22790
851.76	22869
851.895	22656
852.03	22649
852.165	22786
852.299	22850
852.434	22934
852.569	22873
852.703	22790
852.838	22911
852.973	23003
853.107	22835
853.242	22812
853.376	22683
853.511	22557
853.645	22717
853.78	22771
853.914	22573
854.048	22668
854.183	22706
854.317	22710
854.451	22854
854.585	22713
854.72	22611
854.854	22641
854.988	22546
855.122	22481
855.256	22512
855.39	22626
855.524	22778
855.658	22653
855.792	22687
855.926	22721
856.06	22596
856.194	22698
856.327	22637
856.461	22569
856.595	22611
856.729	22546
856.862	22725
856.996	22573
857.13	22847
857.263	22831
857.397	22694
857.53	22516
857.664	22622
857.797	22752
857.931	22706
858.064	22622
858.197	22717
858.331	22668
858.464	22546
858.597	22508
858.731	22573
858.864	22531
858.997	22565
859.13	22649
859.263	22622
859.396	22675
859.529	22527
859.662	22474
859.795	22584
859.928	22588
860.061	22820
860.194	22843
860.327	22656
860.46	22653
860.592	22790
860.725	22721
860.858	22702
860.99	22744
861.123	22413
861.256	22645
861.388	22691
861.521	23269
861.653	22443
861.786	22417
861.918	22417
862.05	22588
862.183	22569
862.315	22516
862.447	22713
862.58	22523
862.712	22428
862.844	22215
862.976	22424
863.108	22402
863.24	22801
863.372	22295
863.504	22341
863.636	22413
863.768	22379
863.9	22428
864.032	22238
864.164	22291
864.296	22417
864.428	22360
864.559	22344
864.691	22356
864.823	22291
864.954	22295
865.086	22291
865.217	22188
865.349	22219
865.48	22207
865.612	22120
865.743	22352
865.875	22166
866.006	22181
866.137	22310
866.269	22333
866.4	22128
866.531	22154
866.662	22093
866.793	22063
866.924	22097
867.055	22055
867.186	22196
867.317	22051
867.448	22067
867.579	21934
867.71	22090
867.841	22097
867.972	22139
868.103	22204
868.233	22230
868.364	22124
868.495	22181
868.625	22356
868.756	22531
868.886	22215
869.017	22367
869.147	22428
869.278	22485
869.408	22360
869.539	22436
869.669	22561
869.799	22485
869.929	22481
870.06	22455
870.19	22691
870.32	22660
870.45	22831
870.58	22843
870.71	22839
870.84	22919
870.97	22782
871.1	22774
871.23	22782
871.36	23033
871.489	22885
871.619	22885
871.749	23003
871.879	23018
872.008	23018
872.138	22938
872.267	22987
872.397	22961
872.526	22763
872.656	22702
872.785	22805
872.915	23014
873.044	23121
873.173	22965
873.303	22957
873.432	23006
873.561	23090
873.69	23060
873.819	22915
873.948	22980
874.077	22946
874.206	23014
874.335	22949
874.464	23178
874.593	23193
874.722	23174
874.851	23235
874.979	23307
875.108	23345
875.237	23174
875.365	23094
875.494	23269
875.623	23227
875.751	23273
875.88	23220
876.008	23406
876.136	23440
876.265	23585
876.393	23695
876.521	23592
876.65	23695
876.778	23687
876.906	23585
877.034	23531
877.162	23619
877.29	23547
877.418	23425
877.546	23592
877.674	23543
877.802	23646
877.93	23501
878.058	23471
878.185	23452
878.313	23570
878.441	23528
878.568	23296
878.696	23452
878.824	23493
878.951	23634
879.079	23585
879.206	23840
879.333	23573
879.461	23646
879.588	23577
879.715	23699
879.842	23851
879.97	23505
880.097	23395
880.224	23353
880.351	23417
880.478	23288
880.605	23398
880.732	23296
880.859	23543
880.986	23311
881.112	23414
881.239	23037
881.366	23067
881.493	22953
881.619	22869
881.746	22938
881.872	22930
881.999	22881
882.125	22824
882.252	23067
882.378	22911
882.505	22995
882.631	22771
882.757	22561
882.883	22774
883.01	22641
883.136	22481
883.262	22542
883.388	22489
883.514	22516
883.64	22550
883.766	22451
883.892	22409
884.018	22443
884.143	22542
884.269	22535
884.395	22204
884.52	22196
884.646	22230
884.772	22215
884.897	22139
885.023	22101
885.148	22276
885.274	22379
885.399	22242
885.524	22086
885.65	22337
885.775	22185
885.9	22131
886.025	22223
886.15	22333
886.275	22128
886.4	22074
886.525	22261
886.65	22177
886.775	22135
886.9	22443
887.025	22447
887.149	22116
887.274	22063
887.399	21934
887.523	22017
887.648	21911
887.773	21892
887.897	22090
888.021	22051
888.146	21934
888.27	22204
888.395	22139
888.519	22097
888.643	21903
888.767	22059
888.891	21949
889.015	21660
889.139	21800
889.263	21781
889.387	21884
889.511	21960
889.635	21876
889.759	21793
889.883	21854
890.006	21690
890.13	21934
890.254	21720
890.377	21720
890.501	21652
890.624	21515
890.748	21523
890.871	21397
890.995	21359
891.118	21245
891.241	21363
891.364	21332
891.488	21321
891.611	21389
891.734	21268
891.857	21386
891.98	21317
892.103	21348
892.226	21233
892.349	21291
892.471	21146
892.594	21207
892.717	21230
892.839	21074
892.962	21146
893.085	21401
893.207	21233
893.33	21100
893.452	21077
893.575	21207
893.697	21127
893.819	21355
893.941	21393
894.064	21405
894.186	21142
894.308	21017
894.43	21249
894.552	21370
894.674	21260
894.796	21089
894.918	21214
895.04	21036
895.161	21226
895.283	21233
895.405	21116
895.526	21272
895.648	21199
895.769	21279
895.891	21230
896.012	21199
896.134	21131
896.255	21176
896.376	21169
896.498	21135
896.619	21245
896.74	21062
896.861	21260
896.982	21526
897.103	21720
897.224	21450
897.345	21545
897.466	21348
897.587	21321
897.708	21530
897.828	21378
897.949	21283
898.07	21020
898.19	21374
898.311	21401
898.431	21287
898.552	21382
898.672	21325
898.792	21401
898.913	21321
899.033	21260
899.153	21207
899.273	21020
899.393	21093
899.513	21176
899.633	21100
899.753	21104
899.873	20990
899.993	21142
900.113	20914
900.232	21127
900.352	20971
900.472	20982
900.591	20765
900.711	20921
900.83	20906
900.95	20887
901.069	20971
901.189	20708
901.308	20640
901.427	20480
901.546	20484
901.665	20522
901.784	20549
901.904	20282
902.023	20237
902.141	19982
902.26	20050
902.379	20096
902.498	19917
902.617	20058
902.735	19803
902.854	19947
902.973	19837
903.091	19601
903.21	19590
903.328	19590
903.446	19449
903.565	19381
903.683	19415
903.801	19228
903.919	19365
904.038	19282
904.156	19190
904.274	19217
904.392	19042
904.51	19126
904.627	19133
904.745	19209
904.863	19209
904.981	18947
905.098	18806
905.216	18886
905.334	18943
905.451	18817
905.569	18821
905.686	18829
905.803	18753
905.921	18536
906.038	18726
906.155	18776
906.272	18479
906.389	18452
906.506	18372
906.623	18498
906.74	18429
906.857	18159
906.974	18201
907.091	18262
907.208	18460
907.324	18369
907.441	18266
907.557	18091
907.674	18045
907.79	17977
907.907	17984
908.023	18121
908.139	18098
908.256	18019
908.372	17775
908.488	17904
908.604	17802
908.72	17733
908.836	17809
908.952	17817
909.068	17786
909.184	17824
909.3	17809
909.415	17760
909.531	17752
909.647	17600
909.762	17455
909.878	17395
909.993	17592
910.108	17425
910.224	17440
910.339	17436
910.454	17288
910.57	17147
910.685	17261
910.8	17436
910.915	17349
911.03	17189
911.145	17071
911.259	16980
911.374	17083
911.489	17006
911.604	16885
911.718	16843
911.833	16828
911.947	16778
912.062	16641
912.176	16786
912.291	16793
912.405	16839
912.519	16976
912.633	17048
912.748	16847
912.862	16668
912.976	16622
913.09	16523
913.204	16611
913.318	16577
913.431	16831
913.545	16675
913.659	16660
913.772	16599
913.886	16535
914	16443
914.113	16379
914.226	16500
914.34	16398
914.453	16200
914.566	16371
914.68	16261
914.793	16265
914.906	15930
915.019	15949
915.132	15915
915.245	15854
915.358	16025
915.47	15831
915.583	15835
915.696	16010
915.809	16093
915.921	16051
916.034	15899
916.146	15876
916.259	15751
916.371	15899
916.483	15861
916.595	15854
916.708	15934
916.82	15709
916.932	15663
917.044	15679
917.156	15705
917.268	15629
917.38	15618
917.491	15568
917.603	15599
917.715	15603
917.826	15603
917.938	15492
918.049	15386
918.161	15538
918.272	15774
918.384	15641
918.495	15580
918.606	15272
918.717	15275
918.828	15363
918.939	15306
919.05	15218
919.161	15313
919.272	15127
919.383	15192
919.494	15332
919.604	15614
919.715	15321
919.826	15176
919.936	15260
920.047	15294
920.157	15199
920.267	15420
920.378	15287
920.488	15291
920.598	15374
920.708	15606
920.818	15378
920.928	15386
921.038	15557
921.148	15492
921.258	15272
921.368	15112
921.477	15089
921.587	14948
921.697	14857
921.806	14994
921.916	14864
922.025	14670
922.134	14583
922.244	14610
922.353	14686
922.462	14533
922.571	14473
922.68	14332
922.789	14172
922.898	14187
923.007	14145
923.116	14328
923.224	14278
923.333	14214
923.442	14107
923.55	14142
923.659	14058
923.767	14149
923.876	13955
923.984	14058
924.092	13849
924.201	14058
924.309	13970
924.417	14001
924.525	13864
924.633	13894
924.741	14754
924.849	13674
924.956	13909
925.064	13658
925.172	13628
925.279	13647
925.387	13537
925.494	13533
925.602	13830
925.709	13670
925.816	13571
925.924	13521
926.031	13651
926.138	13620
926.245	13609
926.352	13514
926.459	13643
926.566	13624
926.673	13510
926.779	13453
926.886	13293
926.993	13194
927.099	13168
927.206	13160
927.312	13187
927.419	13129
927.525	13103
927.631	13160
927.737	13164
927.843	13038
927.95	12859
928.056	13000
928.162	12951
928.267	13012
928.373	13609
928.479	13034
928.585	12783
928.69	12993
928.796	12977
928.901	12837
929.007	12669
929.112	12916
929.218	12814
929.323	12707
929.428	12730
929.533	12844
929.638	12639
929.743	12612
929.848	12700
929.953	12620
930.058	12540
930.163	12380
930.267	12426
930.372	12410
930.477	12391
930.581	12513
930.685	12422
930.79	12285
930.894	12247
930.998	12300
931.103	12357
931.207	11999
931.311	11908
931.415	11752
931.519	11592
931.623	11551
