Data from test_V78500241_1121.txt Node
Date: Fri Mar 25 15:49:34 CST 2022
User: usil
Spectrometer: V785-0024
Trigger mode: 0
Integration Time (sec): 4.000000E-1
Scans to average: 1
Nonlinearity correction enabled: false
Boxcar width: 0
Storing dark spectrum: false
XAxis mode: Wavelengths
Number of Pixels in Spectrum: 1024
>>>>>Begin Spectral Data<<<<<
801.071	28839
801.214	28771
801.356	28432
801.499	28352
801.641	28128
801.783	28238
801.926	28356
802.068	28272
802.211	28135
802.353	28173
802.496	28002
802.638	27918
802.78	27926
802.923	27903
803.065	27922
803.208	27720
803.35	27880
803.492	28010
803.635	28131
803.777	27998
803.919	28261
804.061	28485
804.204	28242
804.346	28067
804.488	28036
804.63	28166
804.773	27846
804.915	28131
805.057	28329
805.199	28036
805.341	28211
805.483	28360
805.626	28367
805.768	28093
805.91	28447
806.052	28417
806.194	28200
806.336	28527
806.478	28303
806.62	28432
806.762	28386
806.904	28561
807.046	28847
807.188	28759
807.33	28752
807.472	28820
807.614	28786
807.756	28675
807.898	28641
808.04	28687
808.182	28516
808.324	28535
808.465	28812
808.607	28942
808.749	29052
808.891	28999
809.033	29216
809.174	29029
809.316	28930
809.458	28980
809.6	28927
809.741	29178
809.883	29223
810.025	29311
810.166	29330
810.308	29265
810.45	29258
810.591	29090
810.733	28957
810.875	29090
811.016	28930
811.158	29128
811.299	29056
811.441	29197
811.582	29235
811.724	29136
811.865	28980
812.007	29071
812.148	28991
812.29	29090
812.431	29239
812.573	29406
812.714	29455
812.855	29600
812.997	29611
813.138	29589
813.279	29665
813.421	29562
813.562	29467
813.703	29410
813.845	29277
813.986	28965
814.127	28869
814.268	28767
814.41	28622
814.551	28725
814.692	28797
814.833	28850
814.974	28759
815.115	28786
815.256	28809
815.397	28596
815.539	28637
815.68	28516
815.821	28580
815.962	28440
816.103	28656
816.244	28371
816.385	28386
816.526	28230
816.666	28135
816.807	28067
816.948	28093
817.089	28181
817.23	28226
817.371	28074
817.512	27991
817.653	28215
817.793	28002
817.934	28074
818.075	28044
818.216	28086
818.356	28067
818.497	27842
818.638	27705
818.778	27914
818.919	27876
819.06	27823
819.2	27968
819.341	28044
819.481	28166
819.622	28272
819.762	28310
819.903	28382
820.043	28246
820.184	28196
820.324	28310
820.465	28356
820.605	28219
820.746	28074
820.886	28097
821.026	28272
821.167	28185
821.307	28196
821.447	28154
821.588	27930
821.728	27941
821.868	27701
822.008	27576
822.149	27603
822.289	27595
822.429	27287
822.569	27249
822.709	27237
822.849	27264
822.99	27112
823.13	26971
823.27	26979
823.41	26819
823.55	26838
823.69	26899
823.83	26891
823.97	26857
824.11	26792
824.25	26773
824.389	26731
824.529	26914
824.669	26724
824.809	26705
824.949	26815
825.089	26804
825.228	26708
825.368	26541
825.508	26606
825.648	26678
825.787	26453
825.927	26590
826.067	26693
826.206	26552
826.346	26545
826.485	26743
826.625	26613
826.765	26674
826.904	26697
827.044	26339
827.183	26495
827.323	26415
827.462	26385
827.601	26317
827.741	26301
827.88	26442
828.02	26282
828.159	26256
828.298	26336
828.437	26259
828.577	26176
828.716	26305
828.855	26142
828.994	26084
829.134	26062
829.273	26115
829.412	26103
829.551	26039
829.69	25978
829.829	26058
829.968	26069
830.107	26050
830.246	25963
830.385	25925
830.524	26069
830.663	25837
830.802	25742
830.941	25552
831.08	25460
831.219	25746
831.357	25670
831.496	25887
831.635	25613
831.774	25594
831.913	25438
832.051	25411
832.19	25434
832.329	25506
832.467	25331
832.606	25339
832.744	25255
832.883	25293
833.022	25221
833.16	25388
833.299	25282
833.437	25362
833.576	25559
833.714	25479
833.852	25362
833.991	25304
834.129	25343
834.267	25434
834.406	25384
834.544	25343
834.682	25274
834.821	25297
834.959	25529
835.097	25324
835.235	25392
835.373	25285
835.511	25312
835.65	25137
835.788	25202
835.926	25133
836.064	25023
836.202	25099
836.34	25202
836.478	25133
836.615	25263
836.753	25183
836.891	25270
837.029	25324
837.167	25099
837.305	25072
837.443	25065
837.58	25080
837.718	25091
837.856	25148
837.993	24973
838.131	25019
838.269	24863
838.406	24871
838.544	24947
838.681	24700
838.819	24688
838.956	24639
839.094	24483
839.231	24555
839.369	24631
839.506	24863
839.643	24642
839.781	24365
839.918	24422
840.055	24494
840.193	24464
840.33	24399
840.467	24391
840.604	24399
840.742	24654
840.879	24289
841.016	24262
841.153	24213
841.29	24505
841.427	24334
841.564	24422
841.701	24327
841.838	24330
841.975	24315
842.112	24319
842.249	24197
842.385	24205
842.522	24445
842.659	24095
842.796	24209
842.933	24239
843.069	24079
843.206	24098
843.343	24232
843.479	24083
843.616	24228
843.752	23946
843.889	23882
844.025	24038
844.162	23942
844.298	24053
844.435	23923
844.571	23836
844.708	23973
844.844	24140
844.98	24125
845.117	23973
845.253	23786
845.389	23756
845.525	23790
845.661	23912
845.798	23718
845.934	23710
846.07	23600
846.206	23661
846.342	23699
846.478	23452
846.614	23478
846.75	23364
846.886	23387
847.022	23318
847.158	23345
847.294	23398
847.429	23379
847.565	23318
847.701	23611
847.837	23044
847.972	23155
848.108	23147
848.244	23143
848.379	23010
848.515	22889
848.65	22972
848.786	22957
848.921	22869
849.057	22961
849.192	23044
849.328	22953
849.463	22984
849.598	22976
849.734	22896
849.869	22919
850.004	22774
850.14	22717
850.275	22721
850.41	22649
850.545	22710
850.68	22645
850.815	22721
850.95	22713
851.085	22919
851.22	22835
851.355	22691
851.49	22740
851.625	22736
851.76	22797
851.895	22573
852.03	22577
852.165	22607
852.299	22596
852.434	22831
852.569	22793
852.703	22626
852.838	22793
852.973	22782
853.107	22839
853.242	22881
853.376	22489
853.511	22402
853.645	22459
853.78	22630
853.914	22557
854.048	22641
854.183	22417
854.317	22466
854.451	22733
854.585	22527
854.72	22455
854.854	22557
854.988	22447
855.122	22584
855.256	22432
855.39	22531
855.524	22565
855.658	22645
855.792	22413
855.926	22504
856.06	22653
856.194	22630
856.327	22455
856.461	22478
856.595	22637
856.729	22512
856.862	22622
856.996	22679
857.13	22774
857.263	22687
857.397	22607
857.53	22519
857.664	22573
857.797	22687
857.931	22580
858.064	22561
858.197	22592
858.331	22611
858.464	22386
858.597	22497
858.731	22451
858.864	22535
858.997	22466
859.13	22535
859.263	22584
859.396	22523
859.529	22462
859.662	22375
859.795	22413
859.928	22489
860.061	22694
860.194	22664
860.327	22489
860.46	22447
860.592	22660
860.725	22771
860.858	22653
860.99	22500
861.123	22462
861.256	22523
861.388	22542
861.521	23159
861.653	22428
861.786	22238
861.918	22455
862.05	22310
862.183	22367
862.315	22447
862.447	22451
862.58	22516
862.712	22265
862.844	22188
862.976	22226
863.108	22139
863.24	22809
863.372	22192
863.504	22177
863.636	22188
863.768	22303
863.9	22268
864.032	22013
864.164	22120
864.296	22173
864.428	22337
864.559	22215
864.691	22303
864.823	22238
864.954	22295
865.086	22143
865.217	22051
865.349	22070
865.48	22074
865.612	22101
865.743	22268
865.875	22162
866.006	22078
866.137	22078
866.269	22078
866.4	22097
866.531	21975
866.662	22078
866.793	22112
866.924	22112
867.055	22032
867.186	22090
867.317	21998
867.448	22010
867.579	22055
867.71	21972
867.841	21876
867.972	22032
868.103	21983
868.233	22013
868.364	22074
868.495	22135
868.625	22181
868.756	22371
868.886	22207
869.017	22337
869.147	22367
869.278	22356
869.408	22314
869.539	22215
869.669	22318
869.799	22352
869.929	22424
870.06	22360
870.19	22512
870.32	22592
870.45	22489
870.58	22691
870.71	22672
870.84	22664
870.97	22573
871.1	22668
871.23	22812
871.36	22892
871.489	22717
871.619	22771
871.749	22755
871.879	22828
872.008	22862
872.138	22801
872.267	22736
872.397	22801
872.526	22668
872.656	22713
872.785	22664
872.915	22854
873.044	23025
873.173	22889
873.303	22858
873.432	23022
873.561	22934
873.69	22866
873.819	22953
873.948	22923
874.077	22946
874.206	22759
874.335	22771
874.464	23041
874.593	22991
874.722	23098
874.851	23140
874.979	23124
875.108	23105
875.237	23052
875.365	23067
875.494	23037
875.623	23102
875.751	23056
875.88	23128
876.008	23227
876.136	23417
876.265	23497
876.393	23608
876.521	23543
876.65	23493
876.778	23524
876.906	23455
877.034	23372
877.162	23330
877.29	23364
877.418	23406
877.546	23318
877.674	23410
877.802	23311
877.93	23448
878.058	23284
878.185	23254
878.313	23402
878.441	23440
878.568	23147
878.696	23322
878.824	23482
878.951	23528
879.079	23623
879.206	23817
879.333	23589
879.461	23554
879.588	23592
879.715	23604
879.842	23707
879.97	23307
880.097	23254
880.224	23166
880.351	23185
880.478	23140
880.605	23193
880.732	23345
880.859	23425
880.986	23280
881.112	23277
881.239	23242
881.366	22984
881.493	22847
881.619	22904
881.746	22968
881.872	22736
881.999	22774
882.125	22710
882.252	22767
882.378	22660
882.505	22862
882.631	22611
882.757	22561
882.883	22554
883.01	22451
883.136	22360
883.262	22287
883.388	22230
883.514	22493
883.64	22508
883.766	22451
883.892	22109
884.018	22257
884.143	22421
884.269	22516
884.395	22265
884.52	22074
884.646	22006
884.772	22067
884.897	21907
885.023	22109
885.148	22223
885.274	22207
885.399	22242
885.524	21994
885.65	22032
885.775	22162
885.9	22105
886.025	22192
886.15	22135
886.275	22040
886.4	21998
886.525	22032
886.65	22074
886.775	21972
886.9	22162
887.025	22253
887.149	22055
887.274	21926
887.399	21766
887.523	21857
887.648	21755
887.773	21857
887.897	21922
888.021	21816
888.146	21778
888.27	21827
888.395	21899
888.519	21812
888.643	21998
888.767	21880
888.891	21778
889.015	21614
889.139	21690
889.263	21587
889.387	21789
889.511	21873
889.635	21728
889.759	21644
889.883	21625
890.006	21599
890.13	21770
890.254	21545
890.377	21519
890.501	21408
890.624	21359
890.748	21488
890.871	21359
890.995	21298
891.118	21039
891.241	21287
891.364	21218
891.488	21291
891.611	21195
891.734	21203
891.857	21142
891.98	21077
892.103	21157
892.226	21256
892.349	21108
892.471	20979
892.594	21119
892.717	21207
892.839	20986
892.962	21089
893.085	21096
893.207	21043
893.33	21009
893.452	20944
893.575	21218
893.697	21100
893.819	21199
893.941	21332
894.064	21199
894.186	21058
894.308	21085
894.43	21211
894.552	21245
894.674	21036
894.796	21047
894.918	21081
895.04	20971
895.161	21203
895.283	21154
895.405	21085
895.526	21055
895.648	21058
895.769	21066
895.891	21089
896.012	21066
896.134	21062
896.255	21039
896.376	21123
896.498	21157
896.619	21256
896.74	21051
896.861	21154
896.982	21389
897.103	21481
897.224	21443
897.345	21188
897.466	21279
897.587	21272
897.708	21374
897.828	21359
897.949	21157
898.07	21157
898.19	21154
898.311	21252
898.431	21218
898.552	21291
898.672	21241
898.792	21370
898.913	21230
899.033	21230
899.153	21176
899.273	20979
899.393	21020
899.513	21043
899.633	21039
899.753	20963
899.873	20960
899.993	21093
900.113	20925
900.232	20956
900.352	20868
900.472	20868
900.591	20667
900.711	20845
900.83	20594
900.95	20845
901.069	20823
901.189	20705
901.308	20412
901.427	20301
901.546	20275
901.665	20298
901.784	20366
901.904	20111
902.023	19989
902.141	19856
902.26	19936
902.379	19974
902.498	19826
902.617	19734
902.735	19875
902.854	19818
902.973	19902
903.091	19483
903.21	19464
903.328	19567
903.446	19441
903.565	19255
903.683	19365
903.801	19225
903.919	19160
904.038	19114
904.156	19118
904.274	19179
904.392	19008
904.51	19019
904.627	19061
904.745	18993
904.863	19061
904.981	18802
905.098	18692
905.216	18673
905.334	18696
905.451	18779
905.569	18707
905.686	18738
905.803	18753
905.921	18475
906.038	18722
906.155	18544
906.272	18490
906.389	18483
906.506	18308
906.623	18266
906.74	18247
906.857	18155
906.974	18095
907.091	18171
907.208	18353
907.324	18182
907.441	18186
907.557	17897
907.674	17999
907.79	17874
907.907	17885
908.023	17889
908.139	17980
908.256	17832
908.372	17828
908.488	17764
908.604	17836
908.72	17551
908.836	17699
908.952	17638
909.068	17756
909.184	17703
909.3	17718
909.415	17634
909.531	17684
909.647	17429
909.762	17440
909.878	17246
909.993	17505
910.108	17318
910.224	17326
910.339	17318
910.454	17239
910.57	17185
910.685	17124
910.8	17395
910.915	17288
911.03	17067
911.145	17060
911.259	17045
911.374	16915
911.489	16889
911.604	16706
911.718	16626
911.833	16694
911.947	16542
912.062	16523
912.176	16687
912.291	16736
912.405	16649
912.519	16984
912.633	16782
912.748	16698
912.862	16535
912.976	16596
913.09	16352
913.204	16352
913.318	16485
913.431	16531
913.545	16500
913.659	16535
913.772	16386
913.886	16341
914	16295
914.113	16333
914.226	16363
914.34	16390
914.453	16150
914.566	16219
914.68	16109
914.793	16112
914.906	15949
915.019	15850
915.132	15827
915.245	15789
915.358	15964
915.47	15850
915.583	15861
915.696	15846
915.809	15911
915.921	15998
916.034	15922
916.146	15800
916.259	15774
916.371	15778
916.483	15785
916.595	15743
916.708	15762
916.82	15717
916.932	15690
917.044	15698
917.156	15447
917.268	15458
917.38	15439
917.491	15587
917.603	15443
917.715	15561
917.826	15595
917.938	15359
918.049	15378
918.161	15477
918.272	15500
918.384	15530
918.495	15405
918.606	15260
918.717	15230
918.828	15241
918.939	15298
919.05	15146
919.161	15188
919.272	15055
919.383	15043
919.494	15218
919.604	15355
919.715	15252
919.826	15150
919.936	15199
920.047	15218
920.157	15211
920.267	15256
920.378	15161
920.488	15108
920.598	15332
920.708	15545
920.818	15256
920.928	15252
921.038	15473
921.148	15351
921.258	15070
921.368	15123
921.477	14952
921.587	14800
921.697	14788
921.806	14864
921.916	14701
922.025	14575
922.134	14556
922.244	14571
922.353	14549
922.462	14492
922.571	14408
922.68	14210
922.789	14183
922.898	14244
923.007	14164
923.116	14134
923.224	14244
923.333	14115
923.442	14062
923.55	13974
923.659	14035
923.767	14008
923.876	13997
923.984	14031
924.092	13928
924.201	13932
924.309	13902
924.417	13898
924.525	13841
924.633	13811
924.741	14689
924.849	13647
924.956	13765
925.064	13601
925.172	13506
925.279	13616
925.387	13578
925.494	13575
925.602	13601
925.709	13594
925.816	13491
925.924	13533
926.031	13601
926.138	13472
926.245	13510
926.352	13312
926.459	13453
926.566	13540
926.673	13358
926.779	13285
926.886	13206
926.993	13156
927.099	13175
927.206	13046
927.312	12916
927.419	13255
927.525	13057
927.631	13065
927.737	13072
927.843	12970
927.95	12745
928.056	12837
928.162	12920
928.267	13004
928.373	13449
928.479	12996
928.585	12795
928.69	12776
928.796	12867
928.901	12738
929.007	12608
929.112	12749
929.218	12764
929.323	12639
929.428	12623
929.533	12772
929.638	12597
929.743	12654
929.848	12650
929.953	12494
930.058	12460
930.163	12197
930.267	12311
930.372	12460
930.477	12182
930.581	12407
930.685	12342
930.79	12125
930.894	12205
930.998	12136
931.103	12304
931.207	11889
931.311	11840
931.415	11726
931.519	11596
931.623	11524
