Data from test_V78500241_3483.txt Node
Date: Fri Mar 25 16:05:55 CST 2022
User: usil
Spectrometer: V785-0024
Trigger mode: 0
Integration Time (sec): 4.000000E-1
Scans to average: 1
Nonlinearity correction enabled: false
Boxcar width: 0
Storing dark spectrum: false
XAxis mode: Wavelengths
Number of Pixels in Spectrum: 1024
>>>>>Begin Spectral Data<<<<<
801.071	29041
801.214	29128
801.356	28778
801.499	28630
801.641	28725
801.783	28527
801.926	28664
802.068	28713
802.211	28668
802.353	28554
802.496	28436
802.638	28436
802.78	28390
802.923	28386
803.065	28223
803.208	28181
803.35	28455
803.492	28504
803.635	28577
803.777	28443
803.919	28580
804.061	28949
804.204	28607
804.346	28672
804.488	28519
804.63	28634
804.773	28542
804.915	28588
805.057	28763
805.199	28580
805.341	28660
805.483	28828
805.626	28752
805.768	28615
805.91	28843
806.052	28809
806.194	28790
806.336	28877
806.478	28961
806.62	28805
806.762	29006
806.904	29041
807.046	29410
807.188	29360
807.33	29258
807.472	29273
807.614	29227
807.756	29345
807.898	29117
808.04	28930
808.182	29083
808.324	29098
808.465	29345
808.607	29318
808.749	29490
808.891	29585
809.033	29710
809.174	29756
809.316	29627
809.458	29490
809.6	29463
809.741	29600
809.883	29627
810.025	29821
810.166	29805
810.308	29775
810.45	29710
810.591	29726
810.733	29581
810.875	29680
811.016	29543
811.158	29486
811.299	29722
811.441	29722
811.582	29722
811.724	29551
811.865	29573
812.007	29497
812.148	29600
812.29	29566
812.431	29718
812.573	29961
812.714	30072
812.855	30015
812.997	30148
813.138	30365
813.279	30167
813.421	30068
813.562	30091
813.703	29870
813.845	29676
813.986	29372
814.127	29360
814.268	29204
814.41	29265
814.551	29170
814.692	29174
814.833	29193
814.974	29181
815.115	29311
815.256	29220
815.397	29094
815.539	29140
815.68	29151
815.821	28968
815.962	28991
816.103	29044
816.244	28976
816.385	28930
816.526	28839
816.666	28683
816.807	28554
816.948	28611
817.089	28721
817.23	28721
817.371	28577
817.512	28603
817.653	28485
817.793	28478
817.934	28622
818.075	28672
818.216	28683
818.356	28573
818.497	28455
818.638	28325
818.778	28478
818.919	28276
819.06	28424
819.2	28390
819.341	28557
819.481	28649
819.622	28812
819.762	29003
819.903	28946
820.043	28763
820.184	28801
820.324	28721
820.465	28972
820.605	28767
820.746	28561
820.886	28672
821.026	28843
821.167	28615
821.307	28767
821.447	28535
821.588	28569
821.728	28428
821.868	28139
822.008	28177
822.149	28032
822.289	28002
822.429	27728
822.569	27781
822.709	27804
822.849	27663
822.99	27557
823.13	27534
823.27	27625
823.41	27431
823.55	27355
823.69	27458
823.83	27351
823.97	27336
824.11	27260
824.25	27249
824.389	27218
824.529	27355
824.669	27142
824.809	27279
824.949	27283
825.089	27336
825.228	27386
825.368	27074
825.508	27184
825.648	27180
825.787	27020
825.927	27256
826.067	27093
826.206	27096
826.346	27116
826.485	27233
826.625	27123
826.765	27294
826.904	27207
827.044	26982
827.183	26857
827.323	26788
827.462	26849
827.601	26861
827.741	26819
827.88	26998
828.02	26701
828.159	26735
828.298	26796
828.437	26861
828.577	26769
828.716	26891
828.855	26602
828.994	26621
829.134	26526
829.273	26469
829.412	26530
829.551	26404
829.69	26461
829.829	26541
829.968	26499
830.107	26602
830.246	26552
830.385	26366
830.524	26499
830.663	26210
830.802	26275
830.941	26005
831.08	26103
831.219	26176
831.357	26145
831.496	26324
831.635	26145
831.774	26050
831.913	25978
832.051	25849
832.19	25951
832.329	25928
832.467	25799
832.606	25772
832.744	25708
832.883	25704
833.022	25826
833.16	25738
833.299	25833
833.437	25750
833.576	25761
833.714	25826
833.852	25917
833.991	25788
834.129	25947
834.267	25883
834.406	25887
834.544	26039
834.682	25856
834.821	25738
834.959	25974
835.097	25811
835.235	25906
835.373	25883
835.511	25708
835.65	25670
835.788	25662
835.926	25548
836.064	25457
836.202	25578
836.34	25791
836.478	25769
836.615	25620
836.753	25635
836.891	25666
837.029	25674
837.167	25609
837.305	25582
837.443	25533
837.58	25518
837.718	25544
837.856	25635
837.993	25495
838.131	25506
838.269	25304
838.406	25445
838.544	25331
838.681	25126
838.819	25164
838.956	24935
839.094	24981
839.231	24989
839.369	25107
839.506	25297
839.643	25221
839.781	24894
839.918	24863
840.055	25031
840.193	25019
840.33	24859
840.467	24825
840.604	24970
840.742	25164
840.879	24760
841.016	24688
841.153	24806
841.29	24901
841.427	24745
841.564	24886
841.701	24741
841.838	24810
841.975	24749
842.112	24856
842.249	24555
842.385	24597
842.522	24825
842.659	24810
842.796	24547
842.933	24509
843.069	24578
843.206	24612
843.343	24738
843.479	24509
843.616	24620
843.752	24426
843.889	24418
844.025	24547
844.162	24372
844.298	24486
844.435	24418
844.571	24304
844.708	24330
844.844	24410
844.98	24521
845.117	24498
845.253	24254
845.389	24163
845.525	24194
845.661	24311
845.798	24163
845.934	24174
846.07	24144
846.206	24152
846.342	24140
846.478	24117
846.614	23874
846.75	23760
846.886	23863
847.022	23840
847.158	23832
847.294	23794
847.429	23840
847.565	23901
847.701	23973
847.837	23589
847.972	23531
848.108	23718
848.244	23600
848.379	23467
848.515	23516
848.65	23322
848.786	23288
848.921	23387
849.057	23566
849.192	23486
849.328	23471
849.463	23417
849.598	23433
849.734	23284
849.869	23315
850.004	23109
850.14	23204
850.275	23250
850.41	23204
850.545	23121
850.68	23064
850.815	23330
850.95	23098
851.085	23349
851.22	23292
851.355	23235
851.49	23242
851.625	23227
851.76	23178
851.895	23029
852.03	23071
852.165	23174
852.299	23174
852.434	23345
852.569	23242
852.703	23113
852.838	23318
852.973	23360
853.107	23311
853.242	23113
853.376	23018
853.511	23003
853.645	22991
853.78	23083
853.914	22961
854.048	23022
854.183	23022
854.317	23067
854.451	23181
854.585	23006
854.72	23056
854.854	23132
854.988	22976
855.122	23208
855.256	22809
855.39	22991
855.524	23102
855.658	23044
855.792	23052
855.926	23067
856.06	23090
856.194	23010
856.327	22991
856.461	22911
856.595	22957
856.729	22949
856.862	23083
856.996	23075
857.13	23037
857.263	23029
857.397	23124
857.53	23014
857.664	22949
857.797	23060
857.931	23037
858.064	23025
858.197	23037
858.331	23075
858.464	22965
858.597	22946
858.731	22904
858.864	23044
858.997	23060
859.13	22949
859.263	23033
859.396	23022
859.529	23018
859.662	23014
859.795	22991
859.928	22995
860.061	23166
860.194	23204
860.327	23098
860.46	22987
860.592	23071
860.725	23124
860.858	23162
860.99	22984
861.123	22831
861.256	22881
861.388	22980
861.521	23707
861.653	22911
861.786	22805
861.918	22869
862.05	22824
862.183	22942
862.315	22908
862.447	22961
862.58	22801
862.712	22687
862.844	22664
862.976	22767
863.108	22786
863.24	23033
863.372	22767
863.504	22721
863.636	22736
863.768	22774
863.9	22740
864.032	22713
864.164	22717
864.296	22550
864.428	22744
864.559	22854
864.691	22828
864.823	22755
864.954	22694
865.086	22584
865.217	22599
865.349	22470
865.48	22561
865.612	22607
865.743	22672
865.875	22588
866.006	22516
866.137	22611
866.269	22596
866.4	22447
866.531	22584
866.662	22489
866.793	22557
866.924	22493
867.055	22531
867.186	22565
867.317	22459
867.448	22371
867.579	22462
867.71	22493
867.841	22417
867.972	22489
868.103	22455
868.233	22508
868.364	22561
868.495	22573
868.625	22634
868.756	22763
868.886	22736
869.017	22706
869.147	22816
869.278	23025
869.408	22618
869.539	22755
869.669	22885
869.799	22771
869.929	22877
870.06	22900
870.19	23003
870.32	22942
870.45	22999
870.58	23098
870.71	23220
870.84	23204
870.97	23239
871.1	23136
871.23	23330
871.36	23242
871.489	23204
871.619	23284
871.749	23265
871.879	23414
872.008	23592
872.138	23258
872.267	23337
872.397	23265
872.526	23204
872.656	23212
872.785	23273
872.915	23421
873.044	23448
873.173	23444
873.303	23444
873.432	23387
873.561	23379
873.69	23398
873.819	23318
873.948	23387
874.077	23421
874.206	23292
874.335	23258
874.464	23387
874.593	23604
874.722	23459
874.851	23585
874.979	23497
875.108	23661
875.237	23463
875.365	23516
875.494	23547
875.623	23623
875.751	23562
875.88	23611
876.008	23691
876.136	23676
876.265	23859
876.393	24114
876.521	24034
876.65	24034
876.778	24038
876.906	23920
877.034	23961
877.162	23935
877.29	23794
877.418	23984
877.546	23843
877.674	23908
877.802	23904
877.93	23809
878.058	23931
878.185	23722
878.313	23809
878.441	23794
878.568	23668
878.696	23828
878.824	23828
878.951	24034
879.079	24030
879.206	24224
879.333	24018
879.461	23870
879.588	23980
879.715	24060
879.842	24285
879.97	23935
880.097	23790
880.224	23661
880.351	23729
880.478	23703
880.605	23680
880.732	23767
880.859	23961
880.986	23722
881.112	23729
881.239	23615
881.366	23349
881.493	23448
881.619	23334
881.746	23239
881.872	23284
881.999	23216
882.125	23299
882.252	23246
882.378	23170
882.505	23417
882.631	23102
882.757	23022
882.883	23060
883.01	22900
883.136	22816
883.262	22790
883.388	22858
883.514	22984
883.64	22915
883.766	22843
883.892	22645
884.018	22710
884.143	22881
884.269	22854
884.395	22653
884.52	22561
884.646	22561
884.772	22459
884.897	22516
885.023	22626
885.148	22698
885.274	22611
885.399	22588
885.524	22577
885.65	22626
885.775	22523
885.9	22580
886.025	22584
886.15	22645
886.275	22508
886.4	22398
886.525	22481
886.65	22421
886.775	22584
886.9	22653
887.025	22634
887.149	22470
887.274	22405
887.399	22382
887.523	22413
887.648	22318
887.773	22303
887.897	22394
888.021	22352
888.146	22188
888.27	22390
888.395	22356
888.519	22295
888.643	22405
888.767	22348
888.891	22173
889.015	22078
889.139	22196
889.263	22051
889.387	22074
889.511	22306
889.635	22265
889.759	22147
889.883	22032
890.006	22090
890.13	22158
890.254	22074
890.377	21926
890.501	21899
890.624	21785
890.748	21869
890.871	21709
890.995	21614
891.118	21618
891.241	21679
891.364	21656
891.488	21713
891.611	21698
891.734	21701
891.857	21861
891.98	21599
892.103	21625
892.226	21762
892.349	21637
892.471	21526
892.594	21526
892.717	21595
892.839	21530
892.962	21553
893.085	21496
893.207	21591
893.33	21439
893.452	21447
893.575	21618
893.697	21443
893.819	21671
893.941	21698
894.064	21629
894.186	21481
894.308	21431
894.43	21595
894.552	21637
894.674	21462
894.796	21420
894.918	21504
895.04	21382
895.161	21561
895.283	21477
895.405	21431
895.526	21504
895.648	21485
895.769	21431
895.891	21439
896.012	21671
896.134	21473
896.255	21572
896.376	21431
896.498	21473
896.619	21466
896.74	21568
896.861	21447
896.982	21873
897.103	21884
897.224	21842
897.345	21599
897.466	21595
897.587	21800
897.708	21865
897.828	21720
897.949	21583
898.07	21515
898.19	21614
898.311	21701
898.431	21572
898.552	21641
898.672	21675
898.792	21690
898.913	21770
899.033	21469
899.153	21393
899.273	21477
899.393	21359
899.513	21496
899.633	21428
899.753	21473
899.873	21378
899.993	21351
900.113	21256
900.232	21363
900.352	21359
900.472	21264
900.591	21085
900.711	21112
900.83	21013
900.95	21176
901.069	21245
901.189	20975
901.308	20804
901.427	20823
901.546	20720
901.665	20731
901.784	20705
901.904	20678
902.023	20533
902.141	20183
902.26	20199
902.379	20355
902.498	20263
902.617	20115
902.735	20259
902.854	20107
902.973	20145
903.091	19799
903.21	19936
903.328	20035
903.446	19917
903.565	19738
903.683	19803
903.801	19567
903.919	19575
904.038	19548
904.156	19445
904.274	19613
904.392	19457
904.51	19457
904.627	19411
904.745	19419
904.863	19422
904.981	19206
905.098	19194
905.216	19126
905.334	19137
905.451	19057
905.569	19088
905.686	19118
905.803	19148
905.921	18802
906.038	19027
906.155	18837
906.272	18821
906.389	18882
906.506	18650
906.623	18734
906.74	18635
906.857	18464
906.974	18540
907.091	18692
907.208	18760
907.324	18677
907.441	18486
907.557	18388
907.674	18361
907.79	18342
907.907	18346
908.023	18330
908.139	18342
908.256	18270
908.372	18186
908.488	18155
908.604	18098
908.72	18079
908.836	18011
908.952	18045
909.068	18026
909.184	18129
909.3	18034
909.415	18053
909.531	17904
909.647	17855
909.762	17714
909.878	17802
909.993	17752
910.108	17687
910.224	17729
910.339	17821
910.454	17501
910.57	17505
910.685	17520
910.8	17832
910.915	17646
911.03	17509
911.145	17315
911.259	17318
911.374	17254
911.489	17353
911.604	17246
911.718	17117
911.833	17098
911.947	16942
912.062	16847
912.176	16995
912.291	16938
912.405	17010
912.519	17265
912.633	17254
912.748	17060
912.862	17018
912.976	16854
913.09	16740
913.204	16869
913.318	16831
913.431	16942
913.545	16896
913.659	16980
913.772	16755
913.886	16706
914	16641
914.113	16778
914.226	16733
914.34	16748
914.453	16443
914.566	16588
914.68	16565
914.793	16607
914.906	16219
915.019	16204
915.132	16166
915.245	16226
915.358	16211
915.47	16265
915.583	16219
915.696	16234
915.809	16226
915.921	16386
916.034	16112
916.146	16158
916.259	16036
916.371	16116
916.483	16185
916.595	15994
916.708	16032
916.82	16006
916.932	15968
917.044	15956
917.156	15846
917.268	15861
917.38	15816
917.491	15819
917.603	15759
917.715	15888
917.826	15915
917.938	15762
918.049	15587
918.161	15690
918.272	15850
918.384	15808
918.495	15675
918.606	15629
918.717	15485
918.828	15568
918.939	15519
919.05	15435
919.161	15515
919.272	15363
919.383	15416
919.494	15507
919.604	15625
919.715	15587
919.826	15412
919.936	15466
920.047	15603
920.157	15564
920.267	15720
920.378	15580
920.488	15405
920.598	15656
920.708	15686
920.818	15511
920.928	15549
921.038	15751
921.148	15679
921.258	15458
921.368	15321
921.477	15268
921.587	15230
921.697	15142
921.806	15233
921.916	14948
922.025	14899
922.134	14819
922.244	14826
922.353	14902
922.462	14689
922.571	14682
922.68	14564
922.789	14499
922.898	14419
923.007	14408
923.116	14495
923.224	14465
923.333	14476
923.442	14328
923.55	14313
923.659	14275
923.767	14320
923.876	14267
923.984	14240
924.092	14092
924.201	14313
924.309	14191
924.417	14107
924.525	14069
924.633	13993
924.741	14899
924.849	13898
924.956	14031
925.064	13921
925.172	13849
925.279	13780
925.387	13841
925.494	13830
925.602	13944
925.709	13791
925.816	13734
925.924	13803
926.031	13811
926.138	13799
926.245	13837
926.352	13639
926.459	13780
926.566	13734
926.673	13666
926.779	13495
926.886	13594
926.993	13434
927.099	13460
927.206	13217
927.312	13289
927.419	13316
927.525	13472
927.631	13331
927.737	13251
927.843	13168
927.95	13099
928.056	13168
928.162	13126
928.267	13244
928.373	13837
928.479	13171
928.585	12951
928.69	13107
928.796	13225
928.901	13088
929.007	12871
929.112	13015
929.218	13023
929.323	12791
929.428	12943
929.533	12985
929.638	12825
929.743	12810
929.848	12909
929.953	12814
930.058	12681
930.163	12498
930.267	12559
930.372	12593
930.477	12429
930.581	12711
930.685	12635
930.79	12410
930.894	12369
930.998	12479
931.103	12456
931.207	12140
931.311	12022
931.415	11961
931.519	11832
931.623	11836
