Data from test_V78500241_3206.txt Node
Date: Fri Mar 25 16:04:00 CST 2022
User: usil
Spectrometer: V785-0024
Trigger mode: 0
Integration Time (sec): 4.000000E-1
Scans to average: 1
Nonlinearity correction enabled: false
Boxcar width: 0
Storing dark spectrum: false
XAxis mode: Wavelengths
Number of Pixels in Spectrum: 1024
>>>>>Begin Spectral Data<<<<<
801.071	28694
801.214	28584
801.356	28401
801.499	28500
801.641	28238
801.783	28265
801.926	28371
802.068	28230
802.211	28135
802.353	28040
802.496	28048
802.638	27884
802.78	27797
802.923	27922
803.065	27888
803.208	27895
803.35	27842
803.492	28040
803.635	28169
803.777	28093
803.919	28128
804.061	28436
804.204	28272
804.346	28048
804.488	28040
804.63	28116
804.773	28238
804.915	28223
805.057	28333
805.199	28162
805.341	28162
805.483	28337
805.626	28303
805.768	28253
805.91	28230
806.052	28238
806.194	28272
806.336	28394
806.478	28363
806.62	28337
806.762	28592
806.904	28611
807.046	28896
807.188	28706
807.33	28733
807.472	28767
807.614	28839
807.756	28782
807.898	28710
808.04	28542
808.182	28554
808.324	28599
808.465	28896
808.607	28942
808.749	28888
808.891	29128
809.033	29090
809.174	29159
809.316	28991
809.458	28953
809.6	28923
809.741	29048
809.883	29197
810.025	29398
810.166	29151
810.308	29414
810.45	29322
810.591	29189
810.733	29056
810.875	28976
811.016	28961
811.158	29052
811.299	29227
811.441	29223
811.582	29060
811.724	29037
811.865	29105
812.007	29056
812.148	29018
812.29	29117
812.431	29208
812.573	29406
812.714	29490
812.855	29528
812.997	29657
813.138	29847
813.279	29649
813.421	29600
813.562	29520
813.703	29398
813.845	29356
813.986	28904
814.127	28824
814.268	28767
814.41	28683
814.551	28694
814.692	28809
814.833	28752
814.974	28805
815.115	28824
815.256	28683
815.397	28607
815.539	28679
815.68	28588
815.821	28447
815.962	28489
816.103	28527
816.244	28409
816.385	28360
816.526	28246
816.666	28131
816.807	28010
816.948	28055
817.089	28150
817.23	28010
817.371	27998
817.512	28086
817.653	28067
817.793	28105
817.934	28055
818.075	28112
818.216	28070
818.356	27994
818.497	27975
818.638	27739
818.778	27876
818.919	27793
819.06	27964
819.2	27911
819.341	28139
819.481	27972
819.622	28253
819.762	28451
819.903	28436
820.043	28322
820.184	28158
820.324	28135
820.465	28280
820.605	28249
820.746	28090
820.886	28040
821.026	28120
821.167	28067
821.307	28158
821.447	28029
821.588	27987
821.728	27918
821.868	27759
822.008	27523
822.149	27530
822.289	27553
822.429	27184
822.569	27256
822.709	27176
822.849	27055
822.99	27127
823.13	27020
823.27	26979
823.41	26864
823.55	26724
823.69	26796
823.83	26914
823.97	26883
824.11	26842
824.25	26663
824.389	26792
824.529	26743
824.669	26826
824.809	26872
824.949	26796
825.089	26765
825.228	26792
825.368	26488
825.508	26560
825.648	26537
825.787	26705
825.927	26640
826.067	26537
826.206	26560
826.346	26541
826.485	26579
826.625	26621
826.765	26606
826.904	26708
827.044	26328
827.183	26396
827.323	26404
827.462	26339
827.601	26309
827.741	26294
827.88	26328
828.02	26240
828.159	26339
828.298	26221
828.437	26332
828.577	26328
828.716	26431
828.855	26244
828.994	26031
829.134	26008
829.273	26115
829.412	26020
829.551	25909
829.69	25947
829.829	25963
829.968	26043
830.107	26073
830.246	26008
830.385	25887
830.524	25928
830.663	25788
830.802	25643
830.941	25674
831.08	25506
831.219	25616
831.357	25666
831.496	25864
831.635	25518
831.774	25582
831.913	25301
832.051	25491
832.19	25316
832.329	25369
832.467	25285
832.606	25137
832.744	25228
832.883	25285
833.022	25312
833.16	25221
833.299	25289
833.437	25236
833.576	25392
833.714	25460
833.852	25407
833.991	25289
834.129	25407
834.267	25468
834.406	25453
834.544	25308
834.682	25365
834.821	25358
834.959	25438
835.097	25358
835.235	25411
835.373	25422
835.511	25441
835.65	25259
835.788	25331
835.926	25065
836.064	24970
836.202	24913
836.34	25183
836.478	25251
836.615	25031
836.753	25095
836.891	25198
837.029	25114
837.167	25133
837.305	25114
837.443	24958
837.58	24958
837.718	25171
837.856	24924
837.993	24958
838.131	24973
838.269	24856
838.406	24913
838.544	24825
838.681	24635
838.819	24612
838.956	24357
839.094	24483
839.231	24486
839.369	24673
839.506	24833
839.643	24639
839.781	24437
839.918	24372
840.055	24441
840.193	24342
840.33	24369
840.467	24380
840.604	24388
840.742	24646
840.879	24262
841.016	24342
841.153	24163
841.29	24346
841.427	24209
841.564	24391
841.701	24201
841.838	24372
841.975	24197
842.112	24182
842.249	24194
842.385	24060
842.522	24292
842.659	24125
842.796	24045
842.933	24190
843.069	24125
843.206	24053
843.343	24155
843.479	24144
843.616	24095
843.752	23847
843.889	23786
844.025	23984
844.162	23843
844.298	23950
844.435	23741
844.571	23870
844.708	23916
844.844	23988
844.98	24095
845.117	23901
845.253	23870
845.389	23733
845.525	23714
845.661	23760
845.798	23695
845.934	23638
846.07	23501
846.206	23703
846.342	23699
846.478	23566
846.614	23261
846.75	23311
846.886	23433
847.022	23402
847.158	23395
847.294	23379
847.429	23376
847.565	23254
847.701	23551
847.837	23041
847.972	23086
848.108	23113
848.244	23006
848.379	23037
848.515	22980
848.65	22835
848.786	22976
848.921	22953
849.057	22999
849.192	22877
849.328	22927
849.463	22976
849.598	22908
849.734	22839
849.869	22816
850.004	22801
850.14	22881
850.275	22831
850.41	22653
850.545	22729
850.68	22622
850.815	22721
850.95	22546
851.085	22927
851.22	22797
851.355	22740
851.49	22656
851.625	22713
851.76	22656
851.895	22656
852.03	22710
852.165	22717
852.299	22733
852.434	22816
852.569	22721
852.703	22706
852.838	22656
852.973	22801
853.107	22824
853.242	22668
853.376	22565
853.511	22428
853.645	22455
853.78	22599
853.914	22691
854.048	22535
854.183	22634
854.317	22554
854.451	22755
854.585	22607
854.72	22508
854.854	22713
854.988	22561
855.122	22504
855.256	22348
855.39	22470
855.524	22561
855.658	22500
855.792	22596
855.926	22607
856.06	22611
856.194	22550
856.327	22500
856.461	22493
856.595	22626
856.729	22584
856.862	22622
856.996	22653
857.13	22573
857.263	22725
857.397	22622
857.53	22451
857.664	22599
857.797	22622
857.931	22702
858.064	22721
858.197	22580
858.331	22603
858.464	22443
858.597	22405
858.731	22618
858.864	22478
858.997	22478
859.13	22542
859.263	22557
859.396	22516
859.529	22508
859.662	22519
859.795	22523
859.928	22538
860.061	22599
860.194	22812
860.327	22531
860.46	22573
860.592	22691
860.725	22683
860.858	22630
860.99	22481
861.123	22577
861.256	22497
861.388	22493
861.521	23425
861.653	22432
861.786	22329
861.918	22352
862.05	22535
862.183	22390
862.315	22512
862.447	22508
862.58	22276
862.712	22158
862.844	22173
862.976	22295
863.108	22230
863.24	22607
863.372	22318
863.504	22204
863.636	22287
863.768	22253
863.9	22284
864.032	22120
864.164	22215
864.296	22192
864.428	22356
864.559	22516
864.691	22303
864.823	22268
864.954	22215
865.086	22097
865.217	22112
865.349	21979
865.48	22188
865.612	22177
865.743	22299
865.875	22002
866.006	22181
866.137	22268
866.269	22097
866.4	22048
866.531	22048
866.662	21934
866.793	22055
866.924	22070
867.055	21968
867.186	22063
867.317	22097
867.448	21998
867.579	21975
867.71	21964
867.841	21937
867.972	22086
868.103	21903
868.233	22101
868.364	22055
868.495	22303
868.625	22337
868.756	22443
868.886	22303
869.017	22333
869.147	22485
869.278	22360
869.408	22398
869.539	22337
869.669	22295
869.799	22303
869.929	22451
870.06	22402
870.19	22675
870.32	22569
870.45	22569
870.58	22653
870.71	22786
870.84	22843
870.97	22683
871.1	22691
871.23	22957
871.36	22923
871.489	22839
871.619	22965
871.749	22908
871.879	22896
872.008	22843
872.138	22942
872.267	22847
872.397	22873
872.526	22698
872.656	22717
872.785	22828
872.915	22850
873.044	22957
873.173	22900
873.303	23003
873.432	22850
873.561	22953
873.69	22915
873.819	22942
873.948	22904
874.077	22900
874.206	22991
874.335	22980
874.464	22908
874.593	23124
874.722	23170
874.851	23136
874.979	23181
875.108	23102
875.237	23143
875.365	23105
875.494	23128
875.623	23124
875.751	23136
875.88	23181
876.008	23178
876.136	23395
876.265	23551
876.393	23615
876.521	23608
876.65	23611
876.778	23520
876.906	23493
877.034	23474
877.162	23486
877.29	23402
877.418	23535
877.546	23528
877.674	23516
877.802	23486
877.93	23406
878.058	23299
878.185	23288
878.313	23478
878.441	23330
878.568	23322
878.696	23585
878.824	23478
878.951	23516
879.079	23665
879.206	23794
879.333	23722
879.461	23512
879.588	23585
879.715	23680
879.842	23745
879.97	23562
880.097	23318
880.224	23299
880.351	23349
880.478	23254
880.605	23212
880.732	23376
880.859	23512
880.986	23231
881.112	23326
881.239	23181
881.366	23033
881.493	22957
881.619	22854
881.746	22858
881.872	22733
881.999	22793
882.125	22653
882.252	22869
882.378	22618
882.505	22949
882.631	22771
882.757	22622
882.883	22516
883.01	22504
883.136	22382
883.262	22363
883.388	22371
883.514	22634
883.64	22542
883.766	22455
883.892	22143
884.018	22375
884.143	22451
884.269	22645
884.395	22211
884.52	22101
884.646	22200
884.772	22120
884.897	21975
885.023	22051
885.148	22215
885.274	22284
885.399	22169
885.524	22147
885.65	22154
885.775	22200
885.9	22059
886.025	22287
886.15	22223
886.275	22143
886.4	22055
886.525	22074
886.65	22177
886.775	22040
886.9	22223
887.025	22322
887.149	22082
887.274	21911
887.399	22006
887.523	21960
887.648	21869
887.773	21892
887.897	21972
888.021	21899
888.146	21857
888.27	21991
888.395	21960
888.519	21915
888.643	21865
888.767	21926
888.891	21846
889.015	21789
889.139	21720
889.263	21641
889.387	21694
889.511	21907
889.635	21884
889.759	21698
889.883	21717
890.006	21675
890.13	21804
890.254	21675
890.377	21622
890.501	21454
890.624	21450
890.748	21492
890.871	21325
890.995	21237
891.118	21154
891.241	21150
891.364	21226
891.488	21340
891.611	21313
891.734	21302
891.857	21306
891.98	21237
892.103	21416
892.226	21165
892.349	21214
892.471	21009
892.594	21230
892.717	21104
892.839	21252
892.962	21116
893.085	21218
893.207	21260
893.33	21119
893.452	20979
893.575	21222
893.697	21157
893.819	21325
893.941	21382
894.064	21332
894.186	21020
894.308	21077
894.43	21131
894.552	21249
894.674	21207
894.796	21032
894.918	21066
895.04	21135
895.161	21154
895.283	21112
895.405	21081
895.526	21138
895.648	21119
895.769	21245
895.891	21173
896.012	21275
896.134	21199
896.255	21127
896.376	20906
896.498	21150
896.619	21127
896.74	21119
896.861	21180
896.982	21447
897.103	21549
897.224	21192
897.345	21416
897.466	21294
897.587	21264
897.708	21443
897.828	21325
897.949	21203
898.07	21207
898.19	21188
898.311	21412
898.431	21252
898.552	21310
898.672	21420
898.792	21481
898.913	21374
899.033	21165
899.153	21085
899.273	21085
899.393	21020
899.513	21180
899.633	21039
899.753	21093
899.873	21032
899.993	21100
900.113	20902
900.232	20994
900.352	20872
900.472	20952
900.591	20693
900.711	20838
900.83	20758
900.95	20891
901.069	20853
901.189	20632
901.308	20514
901.427	20393
901.546	20328
901.665	20317
901.784	20278
901.904	20252
902.023	20218
902.141	19967
902.26	19822
902.379	19970
902.498	19993
902.617	19902
902.735	19890
902.854	19814
902.973	19753
903.091	19586
903.21	19628
903.328	19411
903.446	19400
903.565	19472
903.683	19297
903.801	19179
903.919	19365
904.038	19255
904.156	19114
904.274	19175
904.392	19126
904.51	19076
904.627	19088
904.745	19107
904.863	19084
904.981	18848
905.098	18772
905.216	18757
905.334	18772
905.451	18871
905.569	18738
905.686	18810
905.803	18715
905.921	18521
906.038	18616
906.155	18612
906.272	18384
906.389	18403
906.506	18315
906.623	18323
906.74	18262
906.857	18213
906.974	18247
907.091	18407
907.208	18365
907.324	18456
907.441	18060
907.557	17999
907.674	17942
907.79	17870
907.907	18022
908.023	18106
908.139	17931
908.256	17897
908.372	17912
908.488	17897
908.604	17665
908.72	17646
908.836	17817
908.952	17680
909.068	17726
909.184	17733
909.3	17726
909.415	17813
909.531	17668
909.647	17406
909.762	17387
909.878	17341
909.993	17379
910.108	17402
910.224	17322
910.339	17406
910.454	17383
910.57	17132
910.685	17227
910.8	17425
910.915	17353
911.03	17128
911.145	17033
911.259	17006
911.374	16991
911.489	16866
911.604	16968
911.718	16668
911.833	16618
911.947	16694
912.062	16588
912.176	16672
912.291	16706
912.405	16733
912.519	16915
912.633	16843
912.748	16774
912.862	16694
912.976	16660
913.09	16341
913.204	16542
913.318	16470
913.431	16641
913.545	16599
913.659	16649
913.772	16573
913.886	16325
914	16249
914.113	16402
914.226	16405
914.34	16352
914.453	16261
914.566	16344
914.68	16211
914.793	16112
914.906	15994
915.019	15850
915.132	15876
915.245	15819
915.358	15846
915.47	15949
915.583	15899
915.696	15873
915.809	16010
915.921	16093
916.034	15854
916.146	15781
916.259	15816
916.371	15876
916.483	15895
916.595	15739
916.708	15682
916.82	15739
916.932	15705
917.044	15618
917.156	15705
917.268	15568
917.38	15447
917.491	15488
917.603	15538
917.715	15652
917.826	15595
917.938	15450
918.049	15367
918.161	15568
918.272	15595
918.384	15644
918.495	15500
918.606	15260
918.717	15218
918.828	15256
918.939	15355
919.05	15154
919.161	15233
919.272	15081
919.383	15154
919.494	15367
919.604	15386
919.715	15359
919.826	15218
919.936	15260
920.047	15325
920.157	15203
920.267	15340
920.378	15291
920.488	15226
920.598	15466
920.708	15530
920.818	15344
920.928	15317
921.038	15587
921.148	15454
921.258	15161
921.368	15093
921.477	15017
921.587	15005
921.697	14849
921.806	14937
921.916	14804
922.025	14587
922.134	14708
922.244	14602
922.353	14625
922.462	14480
922.571	14377
922.68	14195
922.789	14210
922.898	14336
923.007	14206
923.116	14271
923.224	14187
923.333	14244
923.442	14183
923.55	14054
923.659	14065
923.767	14183
923.876	13974
923.984	14107
924.092	13894
924.201	13944
924.309	13936
924.417	13951
924.525	13852
924.633	13795
924.741	14659
924.849	13689
924.956	13883
925.064	13696
925.172	13677
925.279	13693
925.387	13620
925.494	13655
925.602	13757
925.709	13681
925.816	13426
925.924	13487
926.031	13639
926.138	13521
926.245	13639
926.352	13304
926.459	13506
926.566	13594
926.673	13457
926.779	13365
926.886	13308
926.993	13263
927.099	13225
927.206	13126
927.312	13164
927.419	13103
927.525	13152
927.631	13183
927.737	13053
927.843	12924
927.95	12848
928.056	12958
928.162	12951
928.267	12981
928.373	13468
928.479	13110
928.585	12772
928.69	12878
928.796	13053
928.901	12897
929.007	12700
929.112	12779
929.218	12848
929.323	12669
929.428	12654
929.533	12787
929.638	12612
929.743	12658
929.848	12703
929.953	12601
930.058	12612
930.163	12308
930.267	12372
930.372	12525
930.477	12319
930.581	12540
930.685	12357
930.79	12247
930.894	12315
930.998	12262
931.103	12304
931.207	12015
931.311	11954
931.415	11718
931.519	11585
931.623	11566
