Data from test_V78500241_207.txt Node
Date: Fri Mar 25 15:43:14 CST 2022
User: usil
Spectrometer: V785-0024
Trigger mode: 0
Integration Time (sec): 4.000000E-1
Scans to average: 1
Nonlinearity correction enabled: false
Boxcar width: 0
Storing dark spectrum: false
XAxis mode: Wavelengths
Number of Pixels in Spectrum: 1024
>>>>>Begin Spectral Data<<<<<
801.071	29847
801.214	29638
801.356	29391
801.499	29334
801.641	29197
801.783	29277
801.926	29349
802.068	29227
802.211	29341
802.353	29136
802.496	28991
802.638	29048
802.78	28774
802.923	28782
803.065	28839
803.208	28820
803.35	28820
803.492	28927
803.635	28991
803.777	28987
803.919	29071
804.061	29341
804.204	29075
804.346	28896
804.488	29029
804.63	28961
804.773	28782
804.915	29010
805.057	29132
805.199	28980
805.341	29105
805.483	29189
805.626	29064
805.768	29079
805.91	29174
806.052	29288
806.194	29052
806.336	29421
806.478	29178
806.62	29204
806.762	29162
806.904	29284
807.046	29463
807.188	29554
807.33	29562
807.472	29573
807.614	29444
807.756	29334
807.898	29341
808.04	29356
808.182	29311
808.324	29299
808.465	29452
808.607	29471
808.749	29695
808.891	29771
809.033	29798
809.174	29901
809.316	29809
809.458	29733
809.6	29745
809.741	29802
809.883	29642
810.025	30038
810.166	29950
810.308	30007
810.45	29897
810.591	29779
810.733	29642
810.875	29691
811.016	29573
811.158	29524
811.299	29817
811.441	29920
811.582	29779
811.724	29642
811.865	29680
812.007	29657
812.148	29604
812.29	29630
812.431	29870
812.573	30190
812.714	30030
812.855	30148
812.997	30365
813.138	30251
813.279	30163
813.421	30072
813.562	30098
813.703	29931
813.845	29718
813.986	29497
814.127	29410
814.268	29277
814.41	29375
814.551	29277
814.692	29337
814.833	29265
814.974	29155
815.115	29193
815.256	29044
815.397	29044
815.539	29079
815.68	29006
815.821	29014
815.962	29143
816.103	29025
816.244	28888
816.385	28896
816.526	28816
816.666	28577
816.807	28409
816.948	28618
817.089	28489
817.23	28531
817.371	28493
817.512	28523
817.653	28497
817.793	28470
817.934	28401
818.075	28462
818.216	28466
818.356	28424
818.497	28310
818.638	28147
818.778	28021
818.919	28154
819.06	28128
819.2	28246
819.341	28470
819.481	28367
819.622	28554
819.762	28771
819.903	28660
820.043	28596
820.184	28713
820.324	28630
820.465	28542
820.605	28489
820.746	28310
820.886	28291
821.026	28398
821.167	28363
821.307	28527
821.447	28417
821.588	28249
821.728	28246
821.868	28017
822.008	27720
822.149	27899
822.289	27857
822.429	27568
822.569	27511
822.709	27511
822.849	27291
822.99	27397
823.13	27165
823.27	27195
823.41	27157
823.55	26895
823.69	27123
823.83	27116
823.97	27176
824.11	26895
824.25	26838
824.389	26887
824.529	27009
824.669	26792
824.809	27066
824.949	26982
825.089	26899
825.228	26967
825.368	26716
825.508	26716
825.648	26777
825.787	26762
825.927	26853
826.067	26743
826.206	26651
826.346	26746
826.485	26754
826.625	26636
826.765	26826
826.904	26651
827.044	26404
827.183	26518
827.323	26473
827.462	26393
827.601	26336
827.741	26370
827.88	26514
828.02	26275
828.159	26355
828.298	26347
828.437	26434
828.577	26282
828.716	26511
828.855	26161
828.994	26005
829.134	26142
829.273	26084
829.412	26050
829.551	26145
829.69	26054
829.829	26092
829.968	26012
830.107	26092
830.246	26100
830.385	25963
830.524	25978
830.663	25658
830.802	25666
830.941	25605
831.08	25586
831.219	25769
831.357	25681
831.496	25887
831.635	25476
831.774	25384
831.913	25514
832.051	25350
832.19	25331
832.329	25552
832.467	25392
832.606	25145
832.744	25217
832.883	25126
833.022	25247
833.16	25255
833.299	25240
833.437	25339
833.576	25289
833.714	25365
833.852	25445
833.991	25236
834.129	25293
834.267	25320
834.406	25141
834.544	25263
834.682	25244
834.821	25084
834.959	25438
835.097	25069
835.235	25187
835.373	25324
835.511	25129
835.65	25118
835.788	25168
835.926	24973
836.064	24848
836.202	24791
836.34	25072
836.478	25008
836.615	25031
836.753	25031
836.891	25103
837.029	25091
837.167	24996
837.305	25004
837.443	24916
837.58	24882
837.718	24867
837.856	24882
837.993	24890
838.131	24916
838.269	24806
838.406	24920
838.544	24616
838.681	24422
838.819	24437
838.956	24239
839.094	24285
839.231	24311
839.369	24540
839.506	24620
839.643	24612
839.781	24258
839.918	24197
840.055	24315
840.193	24262
840.33	24087
840.467	24251
840.604	24300
840.742	24551
840.879	24011
841.016	24194
841.153	24018
841.29	24266
841.427	24125
841.564	24064
841.701	24114
841.838	24053
841.975	23999
842.112	23999
842.249	23927
842.385	24011
842.522	24068
842.659	23870
842.796	23885
842.933	23961
843.069	23863
843.206	23707
843.343	23741
843.479	23855
843.616	23752
843.752	23619
843.889	23638
844.025	23729
844.162	23653
844.298	23699
844.435	23551
844.571	23474
844.708	23531
844.844	23775
844.98	23726
845.117	23710
845.253	23516
845.389	23372
845.525	23372
845.661	23440
845.798	23277
845.934	23296
846.07	23220
846.206	23364
846.342	23436
846.478	23364
846.614	23086
846.75	23033
846.886	23048
847.022	23014
847.158	23018
847.294	23067
847.429	23105
847.565	23060
847.701	23197
847.837	22786
847.972	22725
848.108	22843
848.244	22793
848.379	22687
848.515	22656
848.65	22519
848.786	22542
848.921	22531
849.057	22573
849.192	22630
849.328	22713
849.463	22603
849.598	22592
849.734	22478
849.869	22424
850.004	22375
850.14	22367
850.275	22249
850.41	22265
850.545	22200
850.68	22173
850.815	22375
850.95	22299
851.085	22474
851.22	22508
851.355	22344
851.49	22246
851.625	22287
851.76	22226
851.895	22322
852.03	22306
852.165	22265
852.299	22196
852.434	22280
852.569	22257
852.703	22284
852.838	22314
852.973	22474
853.107	22276
853.242	22204
853.376	22196
853.511	21922
853.645	22093
853.78	22325
853.914	22082
854.048	22074
854.183	22158
854.317	22040
854.451	22219
854.585	22055
854.72	22006
854.854	22207
854.988	22021
855.122	22086
855.256	21956
855.39	22006
855.524	22219
855.658	22112
855.792	22090
855.926	22029
856.06	22097
856.194	22169
856.327	22051
856.461	22040
856.595	21987
856.729	22097
856.862	22166
856.996	22070
857.13	22226
857.263	22215
857.397	22192
857.53	22207
857.664	22143
857.797	22116
857.931	22181
858.064	22021
858.197	22188
858.331	22048
858.464	21945
858.597	21888
858.731	21972
858.864	22059
858.997	22021
859.13	22059
859.263	21979
859.396	22219
859.529	22040
859.662	21994
859.795	21994
859.928	21850
860.061	22135
860.194	22181
860.327	22059
860.46	22051
860.592	22105
860.725	22078
860.858	22200
860.99	22070
861.123	21968
861.256	22017
861.388	22097
861.521	22672
861.653	21804
861.786	21861
861.918	21831
862.05	21907
862.183	22059
862.315	21994
862.447	22070
862.58	22025
862.712	21823
862.844	21736
862.976	21918
863.108	21698
863.24	22196
863.372	21599
863.504	21618
863.636	21576
863.768	21759
863.9	21778
864.032	21648
864.164	21618
864.296	21701
864.428	21720
864.559	21827
864.691	21713
864.823	21778
864.954	21682
865.086	21679
865.217	21572
865.349	21439
865.48	21477
865.612	21625
865.743	21679
865.875	21530
866.006	21504
866.137	21568
866.269	21641
866.4	21591
866.531	21469
866.662	21408
866.793	21412
866.924	21572
867.055	21519
867.186	21530
867.317	21340
867.448	21439
867.579	21485
867.71	21401
867.841	21500
867.972	21447
868.103	21481
868.233	21599
868.364	21519
868.495	21564
868.625	21675
868.756	21861
868.886	21686
869.017	21682
869.147	21854
869.278	21808
869.408	21743
869.539	21713
869.669	21857
869.799	21785
869.929	21800
870.06	21869
870.19	22029
870.32	21930
870.45	22051
870.58	22169
870.71	22360
870.84	22234
870.97	22181
871.1	22230
871.23	22314
871.36	22363
871.489	22276
871.619	22234
871.749	22314
871.879	22333
872.008	22527
872.138	22413
872.267	22337
872.397	22284
872.526	22090
872.656	22173
872.785	22093
872.915	22443
873.044	22409
873.173	22382
873.303	22485
873.432	22417
873.561	22561
873.69	22447
873.819	22367
873.948	22367
874.077	22382
874.206	22394
874.335	22394
874.464	22500
874.593	22653
874.722	22489
874.851	22611
874.979	22679
875.108	22725
875.237	22519
875.365	22519
875.494	22622
875.623	22535
875.751	22542
875.88	22546
876.008	22653
876.136	22713
876.265	23044
876.393	23014
876.521	23094
876.65	23071
876.778	22896
876.906	22908
877.034	22911
877.162	22866
877.29	22927
877.418	22911
877.546	22866
877.674	22881
877.802	22877
877.93	22919
878.058	22873
878.185	22634
878.313	22881
878.441	22892
878.568	22740
878.696	22896
878.824	22957
878.951	22976
879.079	23037
879.206	23162
879.333	23159
879.461	22843
879.588	22961
879.715	23109
879.842	23098
879.97	22987
880.097	22744
880.224	22664
880.351	22869
880.478	22744
880.605	22729
880.732	22645
880.859	22949
880.986	22645
881.112	22793
881.239	22588
881.366	22375
881.493	22443
881.619	22405
881.746	22261
881.872	22379
881.999	22295
882.125	22158
882.252	22303
882.378	22253
882.505	22531
882.631	22204
882.757	22101
882.883	22063
883.01	22147
883.136	22059
883.262	21854
883.388	22017
883.514	22010
883.64	21941
883.766	21850
883.892	21743
884.018	21876
884.143	21918
884.269	22010
884.395	21724
884.52	21698
884.646	21705
884.772	21629
884.897	21572
885.023	21561
885.148	21850
885.274	21827
885.399	21675
885.524	21622
885.65	21667
885.775	21774
885.9	21625
886.025	21816
886.15	21728
886.275	21728
886.4	21572
886.525	21564
886.65	21454
886.775	21504
886.9	21846
887.025	21854
887.149	21580
887.274	21458
887.399	21332
887.523	21458
887.648	21222
887.773	21207
887.897	21435
888.021	21435
888.146	21294
888.27	21386
888.395	21526
888.519	21355
888.643	21283
888.767	21397
888.891	21241
889.015	21218
889.139	21237
889.263	21180
889.387	21329
889.511	21306
889.635	21195
889.759	21184
889.883	21116
890.006	21169
890.13	21116
890.254	21013
890.377	21024
890.501	20937
890.624	20872
890.748	20899
890.871	20750
890.995	20712
891.118	20651
891.241	20754
891.364	20754
891.488	20941
891.611	20556
891.734	20743
891.857	20792
891.98	20701
892.103	20731
892.226	20651
892.349	20659
892.471	20469
892.594	20720
892.717	20697
892.839	20606
892.962	20556
893.085	20648
893.207	20530
893.33	20575
893.452	20533
893.575	20659
893.697	20598
893.819	20720
893.941	20773
894.064	20648
894.186	20587
894.308	20632
894.43	20674
894.552	20754
894.674	20750
894.796	20488
894.918	20533
895.04	20450
895.161	20663
895.283	20724
895.405	20568
895.526	20590
895.648	20583
895.769	20689
895.891	20606
896.012	20625
896.134	20602
896.255	20613
896.376	20613
896.498	20575
896.619	20773
896.74	20735
896.861	20739
896.982	20998
897.103	21127
897.224	20967
897.345	21039
897.466	20861
897.587	20788
897.708	20914
897.828	20948
897.949	20891
898.07	20629
898.19	20724
898.311	20956
898.431	20845
898.552	20781
898.672	20895
898.792	20887
898.913	20811
899.033	20716
899.153	20701
899.273	20423
899.393	20541
899.513	20434
899.633	20385
899.753	20655
899.873	20427
899.993	20556
900.113	20446
900.232	20454
900.352	20457
900.472	20366
900.591	20294
900.711	20320
900.83	20237
900.95	20431
901.069	20374
901.189	20172
901.308	19906
901.427	19845
901.546	19879
901.665	19913
901.784	19887
901.904	19765
902.023	19571
902.141	19457
902.26	19400
902.379	19358
902.498	19354
902.617	19293
902.735	19335
902.854	19266
902.973	19266
903.091	19015
903.21	19012
903.328	18981
903.446	18897
903.565	18848
903.683	18837
903.801	18661
903.919	18791
904.038	18692
904.156	18597
904.274	18719
904.392	18601
904.51	18597
904.627	18673
904.745	18616
904.863	18608
904.981	18399
905.098	18258
905.216	18308
905.334	18277
905.451	18251
905.569	18277
905.686	18159
905.803	18266
905.921	17988
906.038	18159
906.155	17996
906.272	17977
906.389	17988
906.506	17733
906.623	17851
906.74	17665
906.857	17646
906.974	17649
907.091	17779
907.208	17904
907.324	17802
907.441	17581
907.557	17459
907.674	17551
907.79	17433
907.907	17482
908.023	17471
908.139	17459
908.256	17353
908.372	17318
908.488	17208
908.604	17155
908.72	17223
908.836	17193
908.952	17105
909.068	17113
909.184	17170
909.3	17136
909.415	17132
909.531	17064
909.647	16877
909.762	16889
909.878	16771
909.993	16816
910.108	16805
910.224	16847
910.339	16721
910.454	16637
910.57	16649
910.685	16542
910.8	16809
910.915	16721
911.03	16558
911.145	16318
911.259	16459
911.374	16360
911.489	16333
911.604	16226
911.718	16242
911.833	16204
911.947	16112
912.062	16063
912.176	16162
912.291	16204
912.405	16162
912.519	16356
912.633	16268
912.748	16124
912.862	16013
912.976	15998
913.09	15850
913.204	15808
913.318	15934
913.431	16093
913.545	16010
913.659	16048
913.772	15956
913.886	15747
914	15728
914.113	15785
914.226	15812
914.34	15751
914.453	15637
914.566	15667
914.68	15663
914.793	15568
914.906	15496
915.019	15431
915.132	15370
915.245	15287
915.358	15348
915.47	15363
915.583	15397
915.696	15370
915.809	15469
915.921	15568
916.034	15275
916.146	15195
916.259	15180
916.371	15329
916.483	15363
916.595	15237
916.708	15176
916.82	15154
916.932	15176
917.044	15089
917.156	15062
917.268	14990
917.38	14994
917.491	14941
917.603	14963
917.715	15135
917.826	15036
917.938	15028
918.049	14857
918.161	14994
918.272	15108
918.384	14921
918.495	14876
918.606	14724
918.717	14621
918.828	14712
918.939	14667
919.05	14575
919.161	14716
919.272	14480
919.383	14549
919.494	14663
919.604	14891
919.715	14807
919.826	14446
919.936	14556
920.047	14697
920.157	14716
920.267	14838
920.378	14727
920.488	14606
920.598	14838
920.708	14941
920.818	14842
920.928	14746
921.038	14963
921.148	14887
921.258	14720
921.368	14476
921.477	14381
921.587	14339
921.697	14237
921.806	14256
921.916	14267
922.025	14187
922.134	13986
922.244	13974
922.353	14081
922.462	13822
922.571	13887
922.68	13753
922.789	13628
922.898	13620
923.007	13578
923.116	13674
923.224	13620
923.333	13559
923.442	13502
923.55	13476
923.659	13655
923.767	13506
923.876	13362
923.984	13480
924.092	13354
924.201	13457
924.309	13369
924.417	13365
924.525	13381
924.633	13301
924.741	13947
924.849	13012
924.956	13213
925.064	13050
925.172	12985
925.279	12989
925.387	13110
925.494	13012
925.602	13133
925.709	13012
925.816	12996
925.924	13069
926.031	13061
926.138	12935
926.245	13050
926.352	12913
926.459	13053
926.566	13004
926.673	12886
926.779	12802
926.886	12772
926.993	12639
927.099	12608
927.206	12521
927.312	12669
927.419	12639
927.525	12604
927.631	12578
927.737	12429
927.843	12467
927.95	12418
928.056	12311
928.162	12422
928.267	12414
928.373	13065
928.479	12467
928.585	12224
928.69	12353
928.796	12365
928.901	12350
929.007	12125
929.112	12296
929.218	12163
929.323	12098
929.428	12213
929.533	12266
929.638	12121
929.743	12034
929.848	12106
929.953	12076
930.058	11935
930.163	11813
930.267	11802
930.372	11878
930.477	11836
930.581	11950
930.685	11859
930.79	11756
930.894	11672
930.998	11604
931.103	11775
931.207	11471
931.311	11387
931.415	11265
931.519	11041
931.623	11029
