Data from test_V78500241_3118.txt Node
Date: Fri Mar 25 16:03:24 CST 2022
User: usil
Spectrometer: V785-0024
Trigger mode: 0
Integration Time (sec): 4.000000E-1
Scans to average: 1
Nonlinearity correction enabled: false
Boxcar width: 0
Storing dark spectrum: false
XAxis mode: Wavelengths
Number of Pixels in Spectrum: 1024
>>>>>Begin Spectral Data<<<<<
801.071	28740
801.214	28550
801.356	28310
801.499	28462
801.641	28303
801.783	28242
801.926	28341
802.068	28196
802.211	28249
802.353	28257
802.496	27991
802.638	27941
802.78	27873
802.923	27819
803.065	27907
803.208	27857
803.35	27998
803.492	28105
803.635	28246
803.777	28048
803.919	28090
804.061	28474
804.204	28215
804.346	28173
804.488	28105
804.63	28238
804.773	28074
804.915	28257
805.057	28459
805.199	28238
805.341	28306
805.483	28344
805.626	28265
805.768	28352
805.91	28299
806.052	28508
806.194	28390
806.336	28447
806.478	28432
806.62	28436
806.762	28557
806.904	28767
807.046	28877
807.188	28816
807.33	28873
807.472	28835
807.614	28771
807.756	28805
807.898	28531
808.04	28504
808.182	28675
808.324	28622
808.465	28755
808.607	28888
808.749	28946
808.891	29170
809.033	29170
809.174	29102
809.316	28984
809.458	29003
809.6	28908
809.741	29250
809.883	29109
810.025	29375
810.166	29315
810.308	29349
810.45	29269
810.591	29326
810.733	29178
810.875	29014
811.016	28908
811.158	28991
811.299	29067
811.441	29341
811.582	29200
811.724	29174
811.865	29029
812.007	29113
812.148	28946
812.29	29155
812.431	29155
812.573	29349
812.714	29524
812.855	29630
812.997	29756
813.138	29756
813.279	29748
813.421	29619
813.562	29634
813.703	29360
813.845	29318
813.986	29010
814.127	28839
814.268	28835
814.41	28839
814.551	28755
814.692	28835
814.833	28668
814.974	28790
815.115	28637
815.256	28637
815.397	28752
815.539	28694
815.68	28630
815.821	28557
815.962	28497
816.103	28618
816.244	28641
816.385	28405
816.526	28459
816.666	28158
816.807	28048
816.948	28207
817.089	28276
817.23	28143
817.371	28120
817.512	28116
817.653	28120
817.793	28093
817.934	27945
818.075	28105
818.216	28128
818.356	28006
818.497	27983
818.638	27720
818.778	27762
818.919	27911
819.06	27880
819.2	28067
819.341	28059
819.481	28082
819.622	28295
819.762	28466
819.903	28280
820.043	28166
820.184	28382
820.324	28272
820.465	28322
820.605	28139
820.746	28029
820.886	28116
821.026	28253
821.167	28063
821.307	28242
821.447	28219
821.588	27987
821.728	27876
821.868	27682
822.008	27519
822.149	27450
822.289	27534
822.429	27424
822.569	27211
822.709	27329
822.849	27047
822.99	26986
823.13	27043
823.27	26982
823.41	26963
823.55	26861
823.69	26864
823.83	26940
823.97	26883
824.11	26629
824.25	26590
824.389	26769
824.529	26781
824.669	26807
824.809	26868
824.949	26842
825.089	26925
825.228	26853
825.368	26564
825.508	26522
825.648	26594
825.787	26769
825.927	26762
826.067	26518
826.206	26480
826.346	26659
826.485	26655
826.625	26705
826.765	26845
826.904	26625
827.044	26457
827.183	26385
827.323	26358
827.462	26465
827.601	26282
827.741	26332
827.88	26488
828.02	26286
828.159	26317
828.298	26252
828.437	26358
828.577	26210
828.716	26423
828.855	26092
828.994	26046
829.134	26096
829.273	26164
829.412	26001
829.551	25837
829.69	26005
829.829	26100
829.968	26176
830.107	26069
830.246	26001
830.385	25830
830.524	25833
830.663	25841
830.802	25761
830.941	25712
831.08	25571
831.219	25670
831.357	25719
831.496	25799
831.635	25693
831.774	25556
831.913	25464
832.051	25510
832.19	25426
832.329	25403
832.467	25263
832.606	25312
832.744	25198
832.883	25381
833.022	25308
833.16	25331
833.299	25449
833.437	25301
833.576	25354
833.714	25430
833.852	25407
833.991	25460
834.129	25499
834.267	25453
834.406	25335
834.544	25266
834.682	25339
834.821	25312
834.959	25476
835.097	25331
835.235	25369
835.373	25403
835.511	25217
835.65	25232
835.788	25324
835.926	25061
836.064	25000
836.202	25015
836.34	25194
836.478	25225
836.615	25255
836.753	25156
836.891	25187
837.029	25031
837.167	25080
837.305	25038
837.443	25171
837.58	25133
837.718	25023
837.856	24920
837.993	24871
838.131	25004
838.269	24916
838.406	24989
838.544	24890
838.681	24661
838.819	24677
838.956	24365
839.094	24433
839.231	24464
839.369	24551
839.506	24791
839.643	24703
839.781	24399
839.918	24414
840.055	24410
840.193	24369
840.33	24323
840.467	24483
840.604	24429
840.742	24639
840.879	24235
841.016	24171
841.153	24281
841.29	24521
841.427	24422
841.564	24422
841.701	24361
841.838	24273
841.975	24201
842.112	24300
842.249	24258
842.385	24194
842.522	24353
842.659	24098
842.796	24194
842.933	24144
843.069	24102
843.206	23988
843.343	24308
843.479	23980
843.616	24079
843.752	23984
843.889	23992
844.025	24117
844.162	23969
844.298	24038
844.435	23874
844.571	23821
844.708	23882
844.844	24117
844.98	24125
845.117	24129
845.253	23866
845.389	23691
845.525	23748
845.661	23870
845.798	23680
845.934	23802
846.07	23653
846.206	23821
846.342	23802
846.478	23615
846.614	23497
846.75	23372
846.886	23387
847.022	23337
847.158	23398
847.294	23307
847.429	23455
847.565	23379
847.701	23619
847.837	23159
847.972	22999
848.108	23162
848.244	23140
848.379	22995
848.515	22923
848.65	22965
848.786	22908
848.921	22927
849.057	23132
849.192	23006
849.328	23075
849.463	23102
849.598	22946
849.734	22881
849.869	22858
850.004	22748
850.14	22755
850.275	22748
850.41	22596
850.545	22687
850.68	22618
850.815	22660
850.95	22675
851.085	23014
851.22	22774
851.355	22687
851.49	22649
851.625	22759
851.76	22660
851.895	22767
852.03	22634
852.165	22736
852.299	22755
852.434	22938
852.569	22706
852.703	22805
852.838	22862
852.973	22835
853.107	22892
853.242	22752
853.376	22561
853.511	22459
853.645	22470
853.78	22649
853.914	22618
854.048	22607
854.183	22611
854.317	22493
854.451	22805
854.585	22542
854.72	22573
854.854	22634
854.988	22596
855.122	22565
855.256	22367
855.39	22569
855.524	22675
855.658	22645
855.792	22485
855.926	22542
856.06	22687
856.194	22660
856.327	22550
856.461	22481
856.595	22554
856.729	22615
856.862	22675
856.996	22637
857.13	22557
857.263	22607
857.397	22516
857.53	22573
857.664	22569
857.797	22573
857.931	22592
858.064	22599
858.197	22656
858.331	22535
858.464	22436
858.597	22348
858.731	22485
858.864	22535
858.997	22569
859.13	22500
859.263	22592
859.396	22622
859.529	22519
859.662	22626
859.795	22527
859.928	22440
860.061	22706
860.194	22759
860.327	22588
860.46	22550
860.592	22702
860.725	22748
860.858	22713
860.99	22516
861.123	22523
861.256	22535
861.388	22592
861.521	23178
861.653	22611
861.786	22402
861.918	22299
862.05	22337
862.183	22527
862.315	22481
862.447	22489
862.58	22447
862.712	22234
862.844	22162
862.976	22371
863.108	22421
863.24	22672
863.372	22207
863.504	22306
863.636	22223
863.768	22257
863.9	22390
864.032	22196
864.164	22185
864.296	22310
864.428	22379
864.559	22196
864.691	22280
864.823	22242
864.954	22185
865.086	22185
865.217	22097
865.349	22143
865.48	22082
865.612	22101
865.743	22242
865.875	22109
866.006	22124
866.137	22143
866.269	21991
866.4	22086
866.531	22124
866.662	22002
866.793	22025
866.924	22090
867.055	22055
867.186	21937
867.317	21998
867.448	21937
867.579	22078
867.71	21926
867.841	21983
867.972	22017
868.103	21983
868.233	22120
868.364	22048
868.495	22059
868.625	22226
868.756	22417
868.886	22181
869.017	22265
869.147	22402
869.278	22459
869.408	22333
869.539	22348
869.669	22291
869.799	22360
869.929	22485
870.06	22470
870.19	22637
870.32	22508
870.45	22721
870.58	22778
870.71	22809
870.84	22759
870.97	22523
871.1	22698
871.23	22908
871.36	22835
871.489	22774
871.619	22831
871.749	22896
871.879	22839
872.008	22995
872.138	22980
872.267	22866
872.397	22797
872.526	22710
872.656	22820
872.785	22653
872.915	22972
873.044	23006
873.173	22892
873.303	22881
873.432	22965
873.561	22961
873.69	22866
873.819	22927
873.948	23060
874.077	22869
874.206	22824
874.335	22987
874.464	23029
874.593	23056
874.722	22995
874.851	23223
874.979	23086
875.108	23155
875.237	23041
875.365	23048
875.494	23121
875.623	23258
875.751	23143
875.88	23105
876.008	23280
876.136	23265
876.265	23433
876.393	23745
876.521	23490
876.65	23516
876.778	23596
876.906	23646
877.034	23364
877.162	23512
877.29	23611
877.418	23433
877.546	23444
877.674	23421
877.802	23402
877.93	23406
878.058	23509
878.185	23299
878.313	23421
878.441	23444
878.568	23376
878.696	23360
878.824	23516
878.951	23668
879.079	23623
879.206	23703
879.333	23566
879.461	23520
879.588	23661
879.715	23623
879.842	23638
879.97	23501
880.097	23261
880.224	23296
880.351	23334
880.478	23261
880.605	23277
880.732	23197
880.859	23459
880.986	23246
881.112	23341
881.239	23090
881.366	23018
881.493	23003
881.619	22919
881.746	22809
881.872	22793
881.999	22858
882.125	22786
882.252	22850
882.378	22927
882.505	22972
882.631	22710
882.757	22546
882.883	22599
883.01	22508
883.136	22500
883.262	22226
883.388	22219
883.514	22535
883.64	22634
883.766	22432
883.892	22204
884.018	22356
884.143	22557
884.269	22599
884.395	22230
884.52	22128
884.646	22185
884.772	22105
884.897	22086
885.023	22158
885.148	22207
885.274	22303
885.399	22204
885.524	22185
885.65	22188
885.775	22192
885.9	22147
886.025	22272
886.15	22242
886.275	22128
886.4	22029
886.525	22029
886.65	22169
886.775	22017
886.9	22428
887.025	22371
887.149	22154
887.274	21975
887.399	21960
887.523	21842
887.648	21800
887.773	21827
887.897	22044
888.021	21975
888.146	21827
888.27	22036
888.395	22112
888.519	21949
888.643	21956
888.767	21991
888.891	21819
889.015	21682
889.139	21774
889.263	21736
889.387	21724
889.511	21911
889.635	21785
889.759	21663
889.883	21755
890.006	21766
890.13	21694
890.254	21561
890.377	21694
890.501	21469
890.624	21439
890.748	21469
890.871	21351
890.995	21230
891.118	21218
891.241	21321
891.364	21374
891.488	21374
891.611	21275
891.734	21245
891.857	21138
891.98	21359
892.103	21443
892.226	21192
892.349	21252
892.471	21043
892.594	21112
892.717	21218
892.839	21195
892.962	21161
893.085	21222
893.207	21096
893.33	21017
893.452	20937
893.575	21233
893.697	21135
893.819	21291
893.941	21355
894.064	21317
894.186	21104
894.308	20998
894.43	21157
894.552	21214
894.674	21192
894.796	21100
894.918	21001
895.04	21055
895.161	21237
895.283	21146
895.405	21043
895.526	21089
895.648	21074
895.769	21214
895.891	21146
896.012	21135
896.134	21180
896.255	21157
896.376	21009
896.498	21131
896.619	21062
896.74	21131
896.861	21199
896.982	21370
897.103	21667
897.224	21378
897.345	21264
897.466	21393
897.587	21298
897.708	21530
897.828	21310
897.949	21359
898.07	21089
898.19	21310
898.311	21542
898.431	21344
898.552	21393
898.672	21405
898.792	21367
898.913	21275
899.033	21256
899.153	21165
899.273	21013
899.393	21055
899.513	21108
899.633	21074
899.753	21150
899.873	20971
899.993	21020
900.113	21001
900.232	20960
900.352	20925
900.472	20845
900.591	20769
900.711	20918
900.83	20792
900.95	20891
901.069	20902
901.189	20781
901.308	20438
901.427	20332
901.546	20370
901.665	20571
901.784	20438
901.904	20229
902.023	20138
902.141	20024
902.26	19814
902.379	19955
902.498	19890
902.617	19811
902.735	19928
902.854	19856
902.973	19712
903.091	19635
903.21	19613
903.328	19556
903.446	19460
903.565	19331
903.683	19369
903.801	19308
903.919	19285
904.038	19274
904.156	19084
904.274	19129
904.392	19099
904.51	19042
904.627	19091
904.745	19137
904.863	19122
904.981	18856
905.098	18791
905.216	18779
905.334	18757
905.451	18684
905.569	18776
905.686	18734
905.803	18779
905.921	18593
906.038	18688
906.155	18525
906.272	18456
906.389	18448
906.506	18296
906.623	18277
906.74	18334
906.857	18125
906.974	18270
907.091	18395
907.208	18540
907.324	18201
907.441	18155
907.557	18019
907.674	18049
907.79	17942
907.907	17893
908.023	17950
908.139	18102
908.256	17996
908.372	18019
908.488	17817
908.604	17729
908.72	17668
908.836	17680
908.952	17615
909.068	17676
909.184	17843
909.3	17695
909.415	17779
909.531	17764
909.647	17444
909.762	17516
909.878	17322
909.993	17501
910.108	17429
910.224	17341
910.339	17452
910.454	17307
910.57	17223
910.685	17250
910.8	17425
910.915	17402
911.03	17280
911.145	17037
911.259	17006
911.374	16991
911.489	16869
911.604	16885
911.718	16706
911.833	16740
911.947	16752
912.062	16580
912.176	16736
912.291	16763
912.405	16786
912.519	16995
912.633	17029
912.748	16812
912.862	16717
912.976	16656
913.09	16504
913.204	16538
913.318	16561
913.431	16626
913.545	16725
913.659	16622
913.772	16554
913.886	16580
914	16367
914.113	16462
914.226	16485
914.34	16443
914.453	16158
914.566	16371
914.68	16207
914.793	16135
914.906	16025
915.019	15987
915.132	15907
915.245	15941
915.358	15960
915.47	15941
915.583	15922
915.696	15945
915.809	16074
915.921	16059
916.034	15812
916.146	15880
916.259	15823
916.371	15994
916.483	15797
916.595	15747
916.708	15724
916.82	15743
916.932	15713
917.044	15705
917.156	15637
917.268	15606
917.38	15633
917.491	15534
917.603	15561
917.715	15709
917.826	15698
917.938	15511
918.049	15443
918.161	15485
918.272	15698
918.384	15622
918.495	15488
918.606	15435
918.717	15230
918.828	15302
918.939	15321
919.05	15127
919.161	15211
919.272	15192
919.383	15116
919.494	15287
919.604	15481
919.715	15325
919.826	15230
919.936	15218
920.047	15287
920.157	15344
920.267	15435
920.378	15298
920.488	15199
920.598	15576
920.708	15496
920.818	15428
920.928	15389
921.038	15488
921.148	15591
921.258	15226
921.368	15112
921.477	14899
921.587	14899
921.697	14838
921.806	14941
921.916	14765
922.025	14663
922.134	14674
922.244	14488
922.353	14594
922.462	14526
922.571	14480
922.68	14248
922.789	14191
922.898	14263
923.007	14195
923.116	14202
923.224	14210
923.333	14195
923.442	14096
923.55	14012
923.659	14081
923.767	14077
923.876	14035
923.984	14065
924.092	13963
924.201	14039
924.309	14005
924.417	14020
924.525	13906
924.633	13845
924.741	14693
924.849	13662
924.956	13833
925.064	13715
925.172	13571
925.279	13540
925.387	13594
925.494	13563
925.602	13658
925.709	13658
925.816	13537
925.924	13582
926.031	13605
926.138	13533
926.245	13552
926.352	13533
926.459	13662
926.566	13639
926.673	13384
926.779	13362
926.886	13369
926.993	13183
927.099	13156
927.206	13091
927.312	13156
927.419	13217
927.525	13118
927.631	13114
927.737	13038
927.843	13091
927.95	12951
928.056	12977
928.162	12993
928.267	12909
928.373	13666
928.479	13069
928.585	12901
928.69	12905
928.796	12920
928.901	12814
929.007	12662
929.112	12795
929.218	12730
929.323	12776
929.428	12711
929.533	12779
929.638	12658
929.743	12654
929.848	12631
929.953	12566
930.058	12566
930.163	12399
930.267	12372
930.372	12536
930.477	12319
930.581	12517
930.685	12353
930.79	12315
930.894	12277
930.998	12220
931.103	12330
931.207	11996
931.311	11878
931.415	11741
931.519	11630
931.623	11539
