Data from test_V78500241_2257.txt Node
Date: Fri Mar 25 15:57:26 CST 2022
User: usil
Spectrometer: V785-0024
Trigger mode: 0
Integration Time (sec): 4.000000E-1
Scans to average: 1
Nonlinearity correction enabled: false
Boxcar width: 0
Storing dark spectrum: false
XAxis mode: Wavelengths
Number of Pixels in Spectrum: 1024
>>>>>Begin Spectral Data<<<<<
801.071	29220
801.214	29220
801.356	28938
801.499	28980
801.641	28767
801.783	28713
801.926	28858
802.068	28698
802.211	28869
802.353	28672
802.496	28538
802.638	28573
802.78	28519
802.923	28398
803.065	28363
803.208	28485
803.35	28588
803.492	28740
803.635	28801
803.777	28561
803.919	28687
804.061	29162
804.204	28881
804.346	28637
804.488	28729
804.63	28847
804.773	28843
804.915	28915
805.057	28892
805.199	28782
805.341	28877
805.483	29083
805.626	28930
805.768	28938
805.91	28824
806.052	29025
806.194	28858
806.336	29159
806.478	29025
806.62	28995
806.762	29140
806.904	29269
807.046	29402
807.188	29345
807.33	29444
807.472	29471
807.614	29406
807.756	29391
807.898	29402
808.04	29303
808.182	29410
808.324	29334
808.465	29398
808.607	29501
808.749	29733
808.891	29798
809.033	29923
809.174	29707
809.316	29661
809.458	29707
809.6	29661
809.741	29760
809.883	29859
810.025	29984
810.166	30095
810.308	30057
810.45	29984
810.591	29718
810.733	29847
810.875	29649
811.016	29668
811.158	29604
811.299	29783
811.441	29824
811.582	29920
811.724	29630
811.865	29805
812.007	29684
812.148	29649
812.29	29764
812.431	29832
812.573	30007
812.714	30190
812.855	30224
812.997	30349
813.138	30547
813.279	30353
813.421	30308
813.562	30114
813.703	30038
813.845	30026
813.986	29585
814.127	29638
814.268	29452
814.41	29398
814.551	29440
814.692	29455
814.833	29353
814.974	29429
815.115	29429
815.256	29212
815.397	29155
815.539	29166
815.68	29296
815.821	29261
815.962	29200
816.103	29280
816.244	29170
816.385	29010
816.526	29052
816.666	28957
816.807	28702
816.948	28767
817.089	28831
817.23	28911
817.371	28607
817.512	28854
817.653	28774
817.793	28710
817.934	28702
818.075	28797
818.216	28702
818.356	28683
818.497	28675
818.638	28409
818.778	28645
818.919	28611
819.06	28523
819.2	28740
819.341	28809
819.481	28740
819.622	28915
819.762	29170
819.903	28999
820.043	28961
820.184	28946
820.324	28911
820.465	28991
820.605	28942
820.746	28934
820.886	28881
821.026	29037
821.167	28946
821.307	28869
821.447	28816
821.588	28679
821.728	28622
821.868	28436
822.008	28272
822.149	28268
822.289	28211
822.429	27956
822.569	28059
822.709	27994
822.849	27766
822.99	27808
823.13	27739
823.27	27751
823.41	27515
823.55	27454
823.69	27743
823.83	27603
823.97	27595
824.11	27447
824.25	27370
824.389	27462
824.529	27530
824.669	27401
824.809	27671
824.949	27523
825.089	27492
825.228	27557
825.368	27245
825.508	27279
825.648	27344
825.787	27344
825.927	27275
826.067	27291
826.206	27310
826.346	27382
826.485	27382
826.625	27424
826.765	27431
826.904	27370
827.044	27093
827.183	27146
827.323	26967
827.462	27203
827.601	27032
827.741	27207
827.88	27154
828.02	27055
828.159	27032
828.298	27028
828.437	27039
828.577	27028
828.716	27119
828.855	27146
828.994	26727
829.134	26758
829.273	26906
829.412	26792
829.551	26785
829.69	26689
829.829	26724
829.968	26815
830.107	26796
830.246	26598
830.385	26640
830.524	26644
830.663	26526
830.802	26419
830.941	26431
831.08	26282
831.219	26294
831.357	26453
831.496	26530
831.635	26317
831.774	26282
831.913	26229
832.051	26111
832.19	26191
832.329	26210
832.467	25982
832.606	25947
832.744	25959
832.883	25989
833.022	25955
833.16	25921
833.299	26012
833.437	25989
833.576	26164
833.714	26168
833.852	26081
833.991	26107
834.129	26221
834.267	26130
834.406	26199
834.544	26142
834.682	26031
834.821	25963
834.959	26202
835.097	26016
835.235	26111
835.373	26119
835.511	26081
835.65	25989
835.788	25982
835.926	25879
836.064	25685
836.202	25723
836.34	25769
836.478	25932
836.615	25803
836.753	25871
836.891	26088
837.029	26043
837.167	25841
837.305	25845
837.443	25723
837.58	25719
837.718	25772
837.856	25689
837.993	25734
838.131	25704
838.269	25552
838.406	25704
838.544	25483
838.681	25350
838.819	25304
838.956	25171
839.094	25129
839.231	25110
839.369	25274
839.506	25491
839.643	25559
839.781	25175
839.918	25038
840.055	25156
840.193	25175
840.33	24992
840.467	25057
840.604	25050
840.742	25434
840.879	24871
841.016	25027
841.153	24920
841.29	25263
841.427	25019
841.564	25069
841.701	24932
841.838	25156
841.975	25031
842.112	24875
842.249	24905
842.385	24829
842.522	25213
842.659	24863
842.796	24791
842.933	24844
843.069	24741
843.206	24688
843.343	24981
843.479	24768
843.616	24738
843.752	24578
843.889	24582
844.025	24684
844.162	24585
844.298	24726
844.435	24673
844.571	24566
844.708	24623
844.844	24878
844.98	24844
845.117	24658
845.253	24623
845.389	24422
845.525	24479
845.661	24547
845.798	24357
845.934	24467
846.07	24300
846.206	24243
846.342	24369
846.478	24300
846.614	24178
846.75	24114
846.886	24110
847.022	24121
847.158	24091
847.294	23973
847.429	23999
847.565	23999
847.701	24220
847.837	23802
847.972	23775
848.108	23885
848.244	23836
848.379	23623
848.515	23653
848.65	23566
848.786	23630
848.921	23714
849.057	23627
849.192	23737
849.328	23710
849.463	23623
849.598	23570
849.734	23493
849.869	23627
850.004	23459
850.14	23318
850.275	23360
850.41	23315
850.545	23334
850.68	23318
850.815	23318
850.95	23353
851.085	23516
851.22	23509
851.355	23387
851.49	23471
851.625	23421
851.76	23372
851.895	23330
852.03	23410
852.165	23376
852.299	23368
852.434	23410
852.569	23410
852.703	23356
852.838	23387
852.973	23531
853.107	23486
853.242	23341
853.376	23261
853.511	23071
853.645	23197
853.78	23250
853.914	23151
854.048	23075
854.183	23140
854.317	23254
854.451	23391
854.585	23174
854.72	23094
854.854	23242
854.988	23128
855.122	23166
855.256	23094
855.39	23113
855.524	23174
855.658	23189
855.792	23216
855.926	23254
856.06	23200
856.194	23166
856.327	23136
856.461	23117
856.595	23280
856.729	23216
856.862	23292
856.996	23277
857.13	23277
857.263	23277
857.397	23341
857.53	23261
857.664	23250
857.797	23258
857.931	23220
858.064	23307
858.197	23299
858.331	23235
858.464	23067
858.597	23018
858.731	23098
858.864	23067
858.997	23155
859.13	23200
859.263	23204
859.396	23239
859.529	23204
859.662	23132
859.795	23109
859.928	23246
860.061	23269
860.194	23478
860.327	23193
860.46	23235
860.592	23200
860.725	23288
860.858	23345
860.99	23250
861.123	23162
861.256	23121
861.388	23254
861.521	23847
861.653	23022
861.786	22995
861.918	23029
862.05	23067
862.183	23174
862.315	23178
862.447	23197
862.58	23018
862.712	22885
862.844	22892
862.976	22957
863.108	22961
863.24	23490
863.372	22850
863.504	22980
863.636	22869
863.768	22896
863.9	22759
864.032	22820
864.164	22835
864.296	22877
864.428	23029
864.559	22991
864.691	22869
864.823	23083
864.954	22774
865.086	22881
865.217	22759
865.349	22694
865.48	22759
865.612	22828
865.743	22809
865.875	22782
866.006	22713
866.137	22801
866.269	22809
866.4	22809
866.531	22656
866.662	22626
866.793	22694
866.924	22683
867.055	22812
867.186	22599
867.317	22721
867.448	22592
867.579	22626
867.71	22554
867.841	22554
867.972	22805
868.103	22535
868.233	22523
868.364	22713
868.495	22889
868.625	22881
868.756	23105
868.886	22908
869.017	22801
869.147	23067
869.278	22976
869.408	22972
869.539	22850
869.669	23044
869.799	22976
869.929	23098
870.06	23083
870.19	23162
870.32	23208
870.45	23235
870.58	23318
870.71	23444
870.84	23425
870.97	23296
871.1	23368
871.23	23566
871.36	23539
871.489	23493
871.619	23535
871.749	23501
871.879	23535
872.008	23592
872.138	23581
872.267	23562
872.397	23509
872.526	23345
872.656	23311
872.785	23360
872.915	23577
873.044	23718
873.173	23463
873.303	23585
873.432	23638
873.561	23589
873.69	23570
873.819	23551
873.948	23585
874.077	23596
874.206	23554
874.335	23406
874.464	23615
874.593	23798
874.722	23786
874.851	23855
874.979	23882
875.108	23741
875.237	23805
875.365	23566
875.494	23741
875.623	23748
875.751	23752
875.88	23779
876.008	23889
876.136	23935
876.265	24110
876.393	24125
876.521	24239
876.65	24224
876.778	24045
876.906	24049
877.034	24038
877.162	24049
877.29	24038
877.418	24121
877.546	24163
877.674	24110
877.802	24106
877.93	24117
878.058	24174
878.185	24064
878.313	24049
878.441	23977
878.568	23802
878.696	23969
878.824	24087
878.951	24106
879.079	24277
879.206	24353
879.333	24281
879.461	24007
879.588	24190
879.715	24159
879.842	24361
879.97	24095
880.097	23977
880.224	23988
880.351	24015
880.478	23904
880.605	23802
880.732	23863
880.859	24235
880.986	23733
881.112	23882
881.239	23748
881.366	23634
881.493	23554
881.619	23326
881.746	23444
881.872	23524
881.999	23429
882.125	23471
882.252	23455
882.378	23406
882.505	23493
882.631	23265
882.757	23140
882.883	23197
883.01	23140
883.136	23048
883.262	22957
883.388	22965
883.514	22987
883.64	23204
883.766	22976
883.892	22862
884.018	22991
884.143	22934
884.269	23071
884.395	22801
884.52	22664
884.646	22801
884.772	22672
884.897	22596
885.023	22687
885.148	22904
885.274	22854
885.399	22908
885.524	22740
885.65	22843
885.775	22584
885.9	22771
886.025	22717
886.15	22896
886.275	22805
886.4	22531
886.525	22733
886.65	22675
886.775	22660
886.9	22771
887.025	22953
887.149	22710
887.274	22470
887.399	22596
887.523	22569
887.648	22356
887.773	22440
887.897	22531
888.021	22489
888.146	22299
888.27	22596
888.395	22459
888.519	22527
888.643	22489
888.767	22683
888.891	22352
889.015	22188
889.139	22379
889.263	22265
889.387	22535
889.511	22409
889.635	22356
889.759	22310
889.883	22246
890.006	22173
890.13	22382
890.254	22147
890.377	22246
890.501	22082
890.624	22006
890.748	21972
890.871	21979
890.995	21766
891.118	21736
891.241	21743
891.364	21789
891.488	21949
891.611	21869
891.734	21736
891.857	21918
891.98	21770
892.103	21770
892.226	21690
892.349	21705
892.471	21675
892.594	21686
892.717	21762
892.839	21682
892.962	21663
893.085	21793
893.207	21713
893.33	21580
893.452	21511
893.575	21641
893.697	21751
893.819	21751
893.941	21812
894.064	21899
894.186	21660
894.308	21538
894.43	21766
894.552	21766
894.674	21766
894.796	21625
894.918	21618
895.04	21530
895.161	21682
895.283	21713
895.405	21599
895.526	21663
895.648	21755
895.769	21644
895.891	21625
896.012	21701
896.134	21580
896.255	21663
896.376	21705
896.498	21641
896.619	21561
896.74	21660
896.861	21644
896.982	21926
897.103	22147
897.224	21915
897.345	21823
897.466	21774
897.587	22002
897.708	21918
897.828	21797
897.949	21759
898.07	21709
898.19	21751
898.311	21854
898.431	21671
898.552	21800
898.672	21842
898.792	21842
898.913	21732
899.033	21755
899.153	21576
899.273	21561
899.393	21500
899.513	21507
899.633	21568
899.753	21504
899.873	21454
899.993	21488
900.113	21458
900.232	21561
900.352	21564
900.472	21382
900.591	21287
900.711	21298
900.83	21279
900.95	21310
901.069	21416
901.189	21256
901.308	20918
901.427	20933
901.546	20842
901.665	20956
901.784	20902
901.904	20765
902.023	20629
902.141	20419
902.26	20393
902.379	20396
902.498	20408
902.617	20393
902.735	20343
902.854	20362
902.973	20286
903.091	20138
903.21	20130
903.328	20100
903.446	19890
903.565	19734
903.683	19826
903.801	19769
903.919	19856
904.038	19658
904.156	19605
904.274	19571
904.392	19514
904.51	19556
904.627	19521
904.745	19597
904.863	19597
904.981	19453
905.098	19308
905.216	19236
905.334	19259
905.451	19164
905.569	19259
905.686	19160
905.803	19202
905.921	18989
906.038	19023
906.155	19027
906.272	18932
906.389	18886
906.506	18779
906.623	18795
906.74	18764
906.857	18730
906.974	18620
907.091	18806
907.208	18829
907.324	18837
907.441	18661
907.557	18536
907.674	18509
907.79	18357
907.907	18372
908.023	18494
908.139	18388
908.256	18521
908.372	18285
908.488	18311
908.604	18110
908.72	18117
908.836	18213
908.952	18258
909.068	18163
909.184	18140
909.3	18136
909.415	18266
909.531	18129
909.647	17893
909.762	17897
909.878	17984
909.993	17843
910.108	17779
910.224	17836
910.339	17771
910.454	17718
910.57	17680
910.685	17573
910.8	17889
910.915	17729
911.03	17592
911.145	17421
911.259	17459
911.374	17368
911.489	17391
911.604	17307
911.718	17117
911.833	17170
911.947	17086
912.062	16976
912.176	17166
912.291	17185
912.405	17151
912.519	17337
912.633	17315
912.748	17208
912.862	17185
912.976	16991
913.09	16824
913.204	17025
913.318	16987
913.431	17029
913.545	17143
913.659	17102
913.772	16866
913.886	16763
914	16782
914.113	16847
914.226	16885
914.34	16824
914.453	16675
914.566	16710
914.68	16698
914.793	16542
914.906	16478
915.019	16379
915.132	16329
915.245	16230
915.358	16341
915.47	16204
915.583	16257
915.696	16329
915.809	16470
915.921	16466
916.034	16223
916.146	16105
916.259	16135
916.371	16310
916.483	16261
916.595	16135
916.708	16143
916.82	16097
916.932	15960
917.044	16071
917.156	16101
917.268	15975
917.38	16010
917.491	15926
917.603	15895
917.715	16021
917.826	15975
917.938	15778
918.049	15766
918.161	15823
918.272	16078
918.384	15964
918.495	15808
918.606	15732
918.717	15622
918.828	15694
918.939	15671
919.05	15644
919.161	15561
919.272	15462
919.383	15488
919.494	15637
919.604	15819
919.715	15690
919.826	15458
919.936	15561
920.047	15747
920.157	15701
920.267	15842
920.378	15622
920.488	15515
920.598	15713
920.708	15831
920.818	15720
920.928	15789
921.038	15911
921.148	15869
921.258	15481
921.368	15515
921.477	15272
921.587	15374
921.697	15184
921.806	15233
921.916	15138
922.025	14944
922.134	14956
922.244	14796
922.353	14982
922.462	14838
922.571	14678
922.68	14610
922.789	14552
922.898	14655
923.007	14526
923.116	14545
923.224	14499
923.333	14560
923.442	14355
923.55	14320
923.659	14434
923.767	14366
923.876	14332
923.984	14400
924.092	14225
924.201	14252
924.309	14309
924.417	14138
924.525	14130
924.633	14142
924.741	14971
924.849	13959
924.956	14126
925.064	13868
925.172	13898
925.279	13799
925.387	13906
925.494	13993
925.602	13989
925.709	13974
925.816	13772
925.924	13807
926.031	13894
926.138	13784
926.245	13860
926.352	13845
926.459	13902
926.566	13932
926.673	13742
926.779	13655
926.886	13571
926.993	13441
927.099	13529
927.206	13369
927.312	13278
927.419	13369
927.525	13449
927.631	13441
927.737	13419
927.843	13327
927.95	13152
928.056	13187
928.162	13209
928.267	13285
928.373	13970
928.479	13369
928.585	13107
928.69	13171
928.796	13175
928.901	13171
929.007	13000
929.112	13179
929.218	13057
929.323	12962
929.428	13015
929.533	12996
929.638	12856
929.743	12821
929.848	12996
929.953	12924
930.058	12806
930.163	12578
930.267	12646
930.372	12768
930.477	12582
930.581	12726
930.685	12623
930.79	12467
930.894	12540
930.998	12486
931.103	12642
931.207	12258
931.311	12163
931.415	12041
931.519	11828
931.623	11843
