Data from test_V78500241_563.txt Node
Date: Fri Mar 25 15:45:42 CST 2022
User: usil
Spectrometer: V785-0024
Trigger mode: 0
Integration Time (sec): 4.000000E-1
Scans to average: 1
Nonlinearity correction enabled: false
Boxcar width: 0
Storing dark spectrum: false
XAxis mode: Wavelengths
Number of Pixels in Spectrum: 1024
>>>>>Begin Spectral Data<<<<<
801.071	27412
801.214	27325
801.356	27264
801.499	27058
801.641	27047
801.783	26910
801.926	27013
802.068	27009
802.211	26910
802.353	26807
802.496	26724
802.638	26670
802.78	26598
802.923	26507
803.065	26499
803.208	26590
803.35	26575
803.492	26655
803.635	26754
803.777	26674
803.919	26811
804.061	27127
804.204	26811
804.346	26629
804.488	26602
804.63	26781
804.773	26560
804.915	26800
805.057	26990
805.199	26785
805.341	26777
805.483	26739
805.626	26807
805.768	26804
805.91	26872
806.052	26967
806.194	26872
806.336	27013
806.478	26975
806.62	26811
806.762	26982
806.904	27283
807.046	27298
807.188	27359
807.33	27363
807.472	27298
807.614	27199
807.756	27207
807.898	27222
808.04	27017
808.182	27188
808.324	27055
808.465	27161
808.607	27389
808.749	27378
808.891	27416
809.033	27564
809.174	27435
809.316	27526
809.458	27526
809.6	27496
809.741	27648
809.883	27629
810.025	27713
810.166	27736
810.308	27854
810.45	27705
810.591	27751
810.733	27511
810.875	27515
811.016	27412
811.158	27469
811.299	27625
811.441	27656
811.582	27667
811.724	27397
811.865	27568
812.007	27420
812.148	27469
812.29	27545
812.431	27641
812.573	27934
812.714	27736
812.855	27945
812.997	28169
813.138	28215
813.279	28207
813.421	28105
813.562	27865
813.703	27770
813.845	27774
813.986	27439
814.127	27287
814.268	27165
814.41	26994
814.551	27169
814.692	27306
814.833	27001
814.974	27222
815.115	27085
815.256	27074
815.397	27017
815.539	27001
815.68	26979
815.821	26811
815.962	26918
816.103	26982
816.244	26815
816.385	26693
816.526	26845
816.666	26659
816.807	26469
816.948	26511
817.089	26499
817.23	26549
817.371	26385
817.512	26442
817.653	26412
817.793	26415
817.934	26385
818.075	26457
818.216	26473
818.356	26408
818.497	26355
818.638	26309
818.778	26225
818.919	26069
819.06	26271
819.2	26286
819.341	26469
819.481	26473
819.622	26514
819.762	26621
819.903	26564
820.043	26731
820.184	26613
820.324	26457
820.465	26537
820.605	26689
820.746	26583
820.886	26377
821.026	26537
821.167	26434
821.307	26457
821.447	26400
821.588	26415
821.728	26343
821.868	25951
822.008	26008
822.149	25978
822.289	25841
822.429	25715
822.569	25548
822.709	25704
822.849	25403
822.99	25381
823.13	25411
823.27	25247
823.41	25065
823.55	25221
823.69	25225
823.83	25152
823.97	25164
824.11	25145
824.25	25038
824.389	24916
824.529	25122
824.669	24943
824.809	25247
824.949	24951
825.089	25069
825.228	25148
825.368	24745
825.508	24798
825.648	24928
825.787	24970
825.927	25050
826.067	24909
826.206	24821
826.346	24913
826.485	25015
826.625	24817
826.765	25053
826.904	24989
827.044	24582
827.183	24612
827.323	24582
827.462	24608
827.601	24623
827.741	24513
827.88	24426
828.02	24433
828.159	24669
828.298	24593
828.437	24681
828.577	24604
828.716	24669
828.855	24483
828.994	24334
829.134	24197
829.273	24372
829.412	24365
829.551	24319
829.69	24319
829.829	24311
829.968	24277
830.107	24262
830.246	24273
830.385	24163
830.524	24281
830.663	24125
830.802	23984
830.941	23946
831.08	23897
831.219	24022
831.357	24057
831.496	24311
831.635	23927
831.774	23832
831.913	23741
832.051	23775
832.19	23638
832.329	23726
832.467	23558
832.606	23455
832.744	23436
832.883	23558
833.022	23543
833.16	23589
833.299	23604
833.437	23585
833.576	23668
833.714	23665
833.852	23668
833.991	23627
834.129	23726
834.267	23699
834.406	23551
834.544	23714
834.682	23707
834.821	23638
834.959	23821
835.097	23653
835.235	23668
835.373	23554
835.511	23585
835.65	23444
835.788	23414
835.926	23406
836.064	23239
836.202	23372
836.34	23463
836.478	23547
836.615	23440
836.753	23398
836.891	23676
837.029	23436
837.167	23387
837.305	23505
837.443	23353
837.58	23246
837.718	23417
837.856	23284
837.993	23288
838.131	23193
838.269	23280
838.406	23155
838.544	23121
838.681	22976
838.819	22942
838.956	22892
839.094	22908
839.231	22839
839.369	22995
839.506	23159
839.643	22938
839.781	22862
839.918	22774
840.055	22858
840.193	22824
840.33	22679
840.467	22786
840.604	22634
840.742	22991
840.879	22474
841.016	22717
841.153	22691
841.29	22778
841.427	22839
841.564	22710
841.701	22687
841.838	22470
841.975	22763
842.112	22660
842.249	22508
842.385	22531
842.522	22710
842.659	22565
842.796	22478
842.933	22512
843.069	22417
843.206	22447
843.343	22462
843.479	22519
843.616	22497
843.752	22246
843.889	22257
844.025	22371
844.162	22280
844.298	22295
844.435	22223
844.571	22246
844.708	22272
844.844	22436
844.98	22337
845.117	22382
845.253	22154
845.389	22082
845.525	22173
845.661	22086
845.798	21991
845.934	22036
846.07	21915
846.206	21987
846.342	22147
846.478	21953
846.614	21804
846.75	21610
846.886	21759
847.022	21743
847.158	21713
847.294	21705
847.429	21816
847.565	21633
847.701	21865
847.837	21492
847.972	21412
848.108	21545
848.244	21583
848.379	21298
848.515	21340
848.65	21294
848.786	21302
848.921	21272
849.057	21321
849.192	21401
849.328	21279
849.463	21268
849.598	21279
849.734	21192
849.869	21157
850.004	20979
850.14	21108
850.275	21013
850.41	21005
850.545	21055
850.68	21001
850.815	21039
850.95	21100
851.085	21245
851.22	21135
851.355	21066
851.49	21093
851.625	21055
851.76	21161
851.895	20971
852.03	21043
852.165	21020
852.299	21055
852.434	21051
852.569	21089
852.703	20944
852.838	21127
852.973	21180
853.107	21264
853.242	20948
853.376	20944
853.511	20758
853.645	20880
853.78	21051
853.914	20914
854.048	20914
854.183	20807
854.317	20777
854.451	21077
854.585	20960
854.72	20842
854.854	20918
854.988	20739
855.122	20895
855.256	20762
855.39	20994
855.524	20960
855.658	20948
855.792	20895
855.926	20967
856.06	20979
856.194	20899
856.327	20876
856.461	20826
856.595	20902
856.729	20857
856.862	20956
856.996	20876
857.13	20921
857.263	20921
857.397	20887
857.53	20792
857.664	21051
857.797	21055
857.931	20933
858.064	20902
858.197	20887
858.331	20811
858.464	20948
858.597	20819
858.731	20967
858.864	20861
858.997	20914
859.13	21005
859.263	20918
859.396	20963
859.529	20883
859.662	20941
859.795	20906
859.928	20921
860.061	21058
860.194	21100
860.327	21009
860.46	20910
860.592	21024
860.725	21036
860.858	21081
860.99	20910
861.123	20864
861.256	20887
861.388	20975
861.521	21485
861.653	20735
861.786	20743
861.918	20777
862.05	20796
862.183	20830
862.315	20864
862.447	20864
862.58	20872
862.712	20670
862.844	20545
862.976	20701
863.108	20735
863.24	21081
863.372	20640
863.504	20651
863.636	20746
863.768	20769
863.9	20632
864.032	20484
864.164	20609
864.296	20670
864.428	20686
864.559	20785
864.691	20636
864.823	20583
864.954	20655
865.086	20560
865.217	20492
865.349	20495
865.48	20571
865.612	20545
865.743	20583
865.875	20522
866.006	20526
866.137	20514
866.269	20575
866.4	20408
866.531	20522
866.662	20396
866.793	20488
866.924	20514
867.055	20492
867.186	20442
867.317	20438
867.448	20339
867.579	20454
867.71	20389
867.841	20282
867.972	20427
868.103	20347
868.233	20431
868.364	20469
868.495	20568
868.625	20686
868.756	20902
868.886	20613
869.017	20716
869.147	20788
869.278	20800
869.408	20868
869.539	20674
869.669	20746
869.799	20739
869.929	20842
870.06	20765
870.19	21009
870.32	21100
870.45	21222
870.58	20990
870.71	21180
870.84	21096
870.97	20998
871.1	21112
871.23	21367
871.36	21306
871.489	21173
871.619	21428
871.749	21310
871.879	21355
872.008	21458
872.138	21241
872.267	21211
872.397	21222
872.526	21081
872.656	21173
872.785	21131
872.915	21454
873.044	21386
873.173	21336
873.303	21241
873.432	21317
873.561	21359
873.69	21313
873.819	21344
873.948	21500
874.077	21340
874.206	21351
874.335	21340
874.464	21340
874.593	21496
874.722	21557
874.851	21633
874.979	21614
875.108	21644
875.237	21637
875.365	21447
875.494	21450
875.623	21660
875.751	21637
875.88	21572
876.008	21637
876.136	21838
876.265	21979
876.393	22010
876.521	22086
876.65	22059
876.778	22017
876.906	21884
877.034	21804
877.162	22010
877.29	21717
877.418	21975
877.546	22021
877.674	21941
877.802	21850
877.93	21895
878.058	21861
878.185	21797
878.313	21762
878.441	21994
878.568	21857
878.696	21679
878.824	21960
878.951	22101
879.079	22162
879.206	22166
879.333	22055
879.461	22040
879.588	21960
879.715	22105
879.842	22265
879.97	21907
880.097	21854
880.224	21808
880.351	21850
880.478	21842
880.605	21713
880.732	21614
880.859	22105
880.986	21720
881.112	21800
881.239	21591
881.366	21507
881.493	21450
881.619	21355
881.746	21412
881.872	21355
881.999	21298
882.125	21237
882.252	21340
882.378	21355
882.505	21351
882.631	21249
882.757	21066
882.883	21165
883.01	21081
883.136	20925
883.262	20758
883.388	20853
883.514	20963
883.64	21005
883.766	20899
883.892	20785
884.018	20845
884.143	20914
884.269	21089
884.395	20682
884.52	20697
884.646	20667
884.772	20590
884.897	20545
885.023	20686
885.148	20762
885.274	20823
885.399	20819
885.524	20613
885.65	20617
885.775	20693
885.9	20587
886.025	20724
886.15	20785
886.275	20587
886.4	20503
886.525	20682
886.65	20583
886.775	20575
886.9	20758
887.025	20796
887.149	20625
887.274	20503
887.399	20530
887.523	20438
887.648	20450
887.773	20313
887.897	20564
888.021	20457
888.146	20400
888.27	20541
888.395	20651
888.519	20530
888.643	20461
888.767	20374
888.891	20431
889.015	20305
889.139	20332
889.263	20309
889.387	20336
889.511	20537
889.635	20290
889.759	20168
889.883	20180
890.006	20225
890.13	20339
890.254	20126
890.377	20111
890.501	19978
890.624	19959
890.748	20119
890.871	19871
890.995	19746
891.118	19738
891.241	19841
891.364	19776
891.488	20043
891.611	19852
891.734	19757
891.857	19970
891.98	19791
892.103	19890
892.226	19826
892.349	19814
892.471	19632
892.594	19708
892.717	19753
892.839	19761
892.962	19746
893.085	19761
893.207	19807
893.33	19772
893.452	19616
893.575	19856
893.697	19780
893.819	19814
893.941	19871
894.064	20001
894.186	19552
894.308	19761
894.43	19833
894.552	19883
894.674	19879
894.796	19658
894.918	19658
895.04	19651
895.161	19738
895.283	19799
895.405	19738
895.526	19731
895.648	19807
895.769	19845
895.891	19746
896.012	19795
896.134	19753
896.255	19784
896.376	19715
896.498	19791
896.619	19685
896.74	19807
896.861	19769
896.982	20172
897.103	20320
897.224	19944
897.345	19989
897.466	19944
897.587	19955
897.708	20035
897.828	20062
897.949	19955
898.07	19921
898.19	19944
898.311	20164
898.431	19921
898.552	20005
898.672	19997
898.792	20062
898.913	19993
899.033	19814
899.153	19788
899.273	19628
899.393	19700
899.513	19769
899.633	19830
899.753	19887
899.873	19677
899.993	19772
900.113	19727
900.232	19670
900.352	19624
900.472	19575
900.591	19533
900.711	19506
900.83	19392
900.95	19499
901.069	19613
901.189	19441
901.308	19168
901.427	19080
901.546	19145
901.665	19126
901.784	19103
901.904	19031
902.023	18886
902.141	18620
902.26	18608
902.379	18711
902.498	18547
902.617	18566
902.735	18570
902.854	18566
902.973	18509
903.091	18399
903.21	18220
903.328	18209
903.446	18262
903.565	18186
903.683	18129
903.801	17980
903.919	18095
904.038	18114
904.156	17912
904.274	17923
904.392	17885
904.51	17866
904.627	17874
904.745	17923
904.863	17893
904.981	17676
905.098	17581
905.216	17532
905.334	17482
905.451	17577
905.569	17535
905.686	17592
905.803	17608
905.921	17334
906.038	17512
906.155	17326
906.272	17212
906.389	17303
906.506	16995
906.623	17208
906.74	17105
906.857	16961
906.974	17132
907.091	17083
907.208	17246
907.324	17212
907.441	16965
907.557	16873
907.674	16873
907.79	16782
907.907	16649
908.023	16771
908.139	16828
908.256	16710
908.372	16748
908.488	16763
908.604	16527
908.72	16531
908.836	16497
908.952	16485
909.068	16538
909.184	16641
909.3	16493
909.415	16615
909.531	16618
909.647	16162
909.762	16341
909.878	16131
909.993	16230
910.108	16169
910.224	16181
910.339	16192
910.454	16116
910.57	16017
910.685	15907
910.8	16322
910.915	16219
911.03	16032
911.145	15895
911.259	15808
911.374	15808
911.489	15698
911.604	15591
911.718	15553
911.833	15599
911.947	15519
912.062	15363
912.176	15644
912.291	15629
912.405	15720
912.519	15759
912.633	15827
912.748	15637
912.862	15526
912.976	15348
913.09	15306
913.204	15397
913.318	15447
913.431	15435
913.545	15439
913.659	15469
913.772	15439
913.886	15138
914	15104
914.113	15325
914.226	15386
914.34	15344
914.453	15074
914.566	15165
914.68	15081
914.793	15028
914.906	14933
915.019	14804
915.132	14735
915.245	14804
915.358	14899
915.47	14849
915.583	14941
915.696	14758
915.809	14800
915.921	14864
916.034	14777
916.146	14735
916.259	14648
916.371	14823
916.483	14796
916.595	14602
916.708	14724
916.82	14636
916.932	14571
917.044	14610
917.156	14541
917.268	14488
917.38	14514
917.491	14480
917.603	14393
917.715	14606
917.826	14606
917.938	14377
918.049	14381
918.161	14526
918.272	14583
918.384	14632
918.495	14408
918.606	14298
918.717	14202
918.828	14290
918.939	14282
919.05	14233
919.161	14172
919.272	14134
919.383	14157
919.494	14320
919.604	14328
919.715	14233
919.826	14187
919.936	14225
920.047	14271
920.157	14259
920.267	14423
920.378	14244
920.488	14275
920.598	14343
920.708	14552
920.818	14351
920.928	14278
921.038	14575
921.148	14450
921.258	14126
921.368	14081
921.477	13967
921.587	13940
921.697	13830
921.806	14012
921.916	13803
922.025	13696
922.134	13597
922.244	13601
922.353	13651
922.462	13548
922.571	13476
922.68	13358
922.789	13202
922.898	13171
923.007	13149
923.116	13346
923.224	13232
923.333	13122
923.442	13095
923.55	13080
923.659	13076
923.767	13099
923.876	13080
923.984	13038
924.092	12916
924.201	13034
924.309	12989
924.417	13099
924.525	12886
924.633	12954
924.741	13890
924.849	12852
924.956	12844
925.064	12730
925.172	12608
925.279	12623
925.387	12677
925.494	12646
925.602	12829
925.709	12787
925.816	12642
925.924	12635
926.031	12681
926.138	12662
926.245	12669
926.352	12509
926.459	12669
926.566	12783
926.673	12547
926.779	12445
926.886	12528
926.993	12414
927.099	12350
927.206	12270
927.312	12239
927.419	12311
927.525	12216
927.631	12376
927.737	12235
927.843	12213
927.95	12060
928.056	12144
928.162	12224
928.267	12220
928.373	12806
928.479	12175
928.585	12007
928.69	12098
928.796	12064
928.901	11980
929.007	11805
929.112	11996
929.218	11942
929.323	11958
929.428	11843
929.533	12034
929.638	11809
929.743	11794
929.848	11836
929.953	11813
930.058	11615
930.163	11532
930.267	11596
930.372	11703
930.477	11497
930.581	11726
930.685	11573
930.79	11398
930.894	11501
930.998	11452
931.103	11539
931.207	11227
931.311	11109
931.415	11071
931.519	10862
931.623	10790
