Data from test_V78500241_446.txt Node
Date: Fri Mar 25 15:44:53 CST 2022
User: usil
Spectrometer: V785-0024
Trigger mode: 0
Integration Time (sec): 4.000000E-1
Scans to average: 1
Nonlinearity correction enabled: false
Boxcar width: 0
Storing dark spectrum: false
XAxis mode: Wavelengths
Number of Pixels in Spectrum: 1024
>>>>>Begin Spectral Data<<<<<
801.071	27873
801.214	27762
801.356	27538
801.499	27477
801.641	27340
801.783	27386
801.926	27447
802.068	27359
802.211	27363
802.353	27237
802.496	26990
802.638	26944
802.78	26967
802.923	26975
803.065	26990
803.208	26811
803.35	27077
803.492	27108
803.635	27096
803.777	27028
803.919	27180
804.061	27291
804.204	27116
804.346	27138
804.488	27020
804.63	26971
804.773	27024
804.915	27096
805.057	27192
805.199	27062
805.341	27009
805.483	27199
805.626	27154
805.768	27222
805.91	27104
806.052	27146
806.194	27119
806.336	27325
806.478	27222
806.62	27199
806.762	27321
806.904	27389
807.046	27739
807.188	27629
807.33	27553
807.472	27606
807.614	27580
807.756	27542
807.898	27458
808.04	27374
808.182	27287
808.324	27382
808.465	27435
808.607	27675
808.749	27717
808.891	27880
809.033	27911
809.174	27911
809.316	27778
809.458	27816
809.6	27884
809.741	27816
809.883	27911
810.025	28017
810.166	28021
810.308	28120
810.45	28101
810.591	28032
810.733	27759
810.875	27736
811.016	27679
811.158	27705
811.299	27861
811.441	27854
811.582	27983
811.724	27816
811.865	27686
812.007	27736
812.148	27701
812.29	27804
812.431	27728
812.573	27937
812.714	28246
812.855	28379
812.997	28223
813.138	28550
813.279	28394
813.421	28287
813.562	28253
813.703	28055
813.845	27926
813.986	27682
814.127	27397
814.268	27378
814.41	27382
814.551	27424
814.692	27492
814.833	27233
814.974	27370
815.115	27515
815.256	27161
815.397	27313
815.539	27169
815.68	27165
815.821	27028
815.962	27169
816.103	27135
816.244	27051
816.385	26952
816.526	26982
816.666	26785
816.807	26648
816.948	26564
817.089	26731
817.23	26537
817.371	26686
817.512	26659
817.653	26549
817.793	26499
817.934	26598
818.075	26495
818.216	26769
818.356	26602
818.497	26484
818.638	26393
818.778	26465
818.919	26301
819.06	26309
819.2	26495
819.341	26587
819.481	26503
819.622	26629
819.762	26834
819.903	26781
820.043	26727
820.184	26712
820.324	26590
820.465	26758
820.605	26648
820.746	26511
820.886	26385
821.026	26773
821.167	26625
821.307	26845
821.447	26552
821.588	26514
821.728	26362
821.868	26100
822.008	25986
822.149	25951
822.289	26115
822.429	25864
822.569	25750
822.709	25723
822.849	25521
822.99	25472
823.13	25392
823.27	25441
823.41	25282
823.55	25145
823.69	25407
823.83	25434
823.97	25240
824.11	25114
824.25	24932
824.389	25118
824.529	25156
824.669	25114
824.809	25133
824.949	25255
825.089	25187
825.228	25076
825.368	24947
825.508	24833
825.648	25031
825.787	24962
825.927	24996
826.067	24878
826.206	24878
826.346	25072
826.485	24947
826.625	24890
826.765	24901
826.904	24901
827.044	24829
827.183	24745
827.323	24692
827.462	24631
827.601	24700
827.741	24563
827.88	24696
828.02	24319
828.159	24490
828.298	24665
828.437	24677
828.577	24521
828.716	24913
828.855	24505
828.994	24452
829.134	24350
829.273	24433
829.412	24174
829.551	24330
829.69	24292
829.829	24258
829.968	24407
830.107	24372
830.246	24380
830.385	24304
830.524	24296
830.663	24064
830.802	24087
830.941	23904
831.08	23832
831.219	23969
831.357	24018
831.496	24232
831.635	23775
831.774	23794
831.913	23741
832.051	23600
832.19	23528
832.329	23798
832.467	23535
832.606	23417
832.744	23528
832.883	23497
833.022	23543
833.16	23436
833.299	23395
833.437	23592
833.576	23592
833.714	23668
833.852	23581
833.991	23630
834.129	23589
834.267	23611
834.406	23516
834.544	23573
834.682	23551
834.821	23493
834.959	23668
835.097	23528
835.235	23687
835.373	23520
835.511	23482
835.65	23455
835.788	23501
835.926	23204
836.064	23136
836.202	23132
836.34	23284
836.478	23509
836.615	23391
836.753	23493
836.891	23581
837.029	23326
837.167	23311
837.305	23292
837.443	23341
837.58	23162
837.718	23311
837.856	23273
837.993	23166
838.131	23322
838.269	23109
838.406	23105
838.544	23075
838.681	23048
838.819	22869
838.956	22805
839.094	22687
839.231	22820
839.369	22828
839.506	23033
839.643	22919
839.781	22675
839.918	22771
840.055	22744
840.193	22698
840.33	22710
840.467	22645
840.604	22660
840.742	22938
840.879	22436
841.016	22542
841.153	22550
841.29	22752
841.427	22607
841.564	22500
841.701	22546
841.838	22634
841.975	22413
842.112	22394
842.249	22504
842.385	22363
842.522	22580
842.659	22413
842.796	22314
842.933	22367
843.069	22204
843.206	22116
843.343	22455
843.479	22428
843.616	22272
843.752	22090
843.889	22109
844.025	22204
844.162	22173
844.298	22086
844.435	22116
844.571	21968
844.708	22158
844.844	22246
844.98	22238
845.117	22150
845.253	21998
845.389	21895
845.525	22021
845.661	21960
845.798	21835
845.934	21850
846.07	21831
846.206	21800
846.342	21972
846.478	21899
846.614	21542
846.75	21416
846.886	21530
847.022	21542
847.158	21450
847.294	21545
847.429	21610
847.565	21511
847.701	21816
847.837	21207
847.972	21176
848.108	21405
848.244	21226
848.379	21169
848.515	21249
848.65	21096
848.786	21157
848.921	21176
849.057	21268
849.192	21173
849.328	21237
849.463	21173
849.598	21001
849.734	20990
849.869	20883
850.004	20845
850.14	20921
850.275	20861
850.41	20857
850.545	20819
850.68	20800
850.815	20857
850.95	20785
851.085	21081
851.22	21066
851.355	20834
851.49	20781
851.625	20826
851.76	20906
851.895	20792
852.03	20830
852.165	20887
852.299	20899
852.434	20902
852.569	20910
852.703	20811
852.838	20944
852.973	20921
853.107	21009
853.242	20834
853.376	20819
853.511	20507
853.645	20568
853.78	20819
853.914	20727
854.048	20613
854.183	20697
854.317	20735
854.451	20720
854.585	20648
854.72	20549
854.854	20815
854.988	20735
855.122	20617
855.256	20450
855.39	20583
855.524	20800
855.658	20788
855.792	20804
855.926	20777
856.06	20659
856.194	20796
856.327	20670
856.461	20609
856.595	20743
856.729	20636
856.862	20644
856.996	20724
857.13	20739
857.263	20781
857.397	20830
857.53	20697
857.664	20773
857.797	20667
857.931	20826
858.064	20720
858.197	20800
858.331	20716
858.464	20689
858.597	20579
858.731	20659
858.864	20705
858.997	20621
859.13	20659
859.263	20720
859.396	20769
859.529	20750
859.662	20697
859.795	20571
859.928	20606
860.061	20845
860.194	20864
860.327	20739
860.46	20579
860.592	20762
860.725	20777
860.858	20876
860.99	20644
861.123	20716
861.256	20648
861.388	20705
861.521	21279
861.653	20609
861.786	20385
861.918	20560
862.05	20564
862.183	20629
862.315	20602
862.447	20762
862.58	20686
862.712	20415
862.844	20419
862.976	20450
863.108	20514
863.24	20876
863.372	20290
863.504	20313
863.636	20393
863.768	20415
863.9	20381
864.032	20358
864.164	20351
864.296	20473
864.428	20492
864.559	20434
864.691	20514
864.823	20446
864.954	20328
865.086	20275
865.217	20358
865.349	20240
865.48	20362
865.612	20290
865.743	20343
865.875	20362
866.006	20294
866.137	20263
866.269	20377
866.4	20309
866.531	20286
866.662	20210
866.793	20256
866.924	20248
867.055	20259
867.186	20229
867.317	20149
867.448	20164
867.579	20126
867.71	20088
867.841	20164
867.972	20259
868.103	20199
868.233	20252
868.364	20221
868.495	20358
868.625	20286
868.756	20571
868.886	20465
869.017	20427
869.147	20590
869.278	20629
869.408	20393
869.539	20484
869.669	20564
869.799	20568
869.929	20609
870.06	20602
870.19	20727
870.32	20792
870.45	20762
870.58	20819
870.71	20941
870.84	20906
870.97	20823
871.1	20868
871.23	21074
871.36	21066
871.489	20979
871.619	20990
871.749	21085
871.879	21195
872.008	21138
872.138	21100
872.267	21093
872.397	20933
872.526	20921
872.656	20834
872.785	20929
872.915	21066
873.044	21211
873.173	21146
873.303	21207
873.432	21154
873.561	21135
873.69	21043
873.819	21157
873.948	21066
874.077	21252
874.206	21169
874.335	20990
874.464	21310
874.593	21431
874.722	21237
874.851	21424
874.979	21393
875.108	21344
875.237	21363
875.365	21252
875.494	21237
875.623	21351
875.751	21287
875.88	21397
876.008	21450
876.136	21481
876.265	21762
876.393	21975
876.521	21846
876.65	21759
876.778	21800
876.906	21728
877.034	21648
877.162	21717
877.29	21610
877.418	21751
877.546	21720
877.674	21633
877.802	21686
877.93	21656
878.058	21739
878.185	21591
878.313	21637
878.441	21599
878.568	21549
878.696	21637
878.824	21739
878.951	21793
879.079	21899
879.206	22078
879.333	21835
879.461	21789
879.588	21873
879.715	21812
879.842	21934
879.97	21857
880.097	21561
880.224	21443
880.351	21595
880.478	21538
880.605	21424
880.732	21435
880.859	21804
880.986	21473
881.112	21557
881.239	21412
881.366	21382
881.493	21268
881.619	21142
881.746	21180
881.872	21154
881.999	21077
882.125	21138
882.252	21123
882.378	21310
882.505	21226
882.631	20990
882.757	20929
882.883	20750
883.01	20842
883.136	20735
883.262	20705
883.388	20762
883.514	20834
883.64	20895
883.766	20724
883.892	20503
884.018	20613
884.143	20731
884.269	20823
884.395	20655
884.52	20476
884.646	20408
884.772	20469
884.897	20415
885.023	20480
885.148	20545
885.274	20560
885.399	20571
885.524	20503
885.65	20488
885.775	20484
885.9	20313
886.025	20564
886.15	20461
886.275	20473
886.4	20256
886.525	20533
886.65	20404
886.775	20328
886.9	20568
887.025	20602
887.149	20400
887.274	20305
887.399	20202
887.523	20214
887.648	20176
887.773	20100
887.897	20282
888.021	20259
888.146	20092
888.27	20317
888.395	20347
888.519	20176
888.643	20229
888.767	20442
888.891	20126
889.015	20065
889.139	20164
889.263	20043
889.387	20134
889.511	20282
889.635	20050
889.759	20050
889.883	19936
890.006	19993
890.13	20005
890.254	19986
890.377	19978
890.501	19799
890.624	19734
890.748	19852
890.871	19582
890.995	19609
891.118	19499
891.241	19548
891.364	19594
891.488	19704
891.611	19525
891.734	19704
891.857	19597
891.98	19666
892.103	19689
892.226	19609
892.349	19518
892.471	19491
892.594	19582
892.717	19552
892.839	19594
892.962	19590
893.085	19575
893.207	19499
893.33	19567
893.452	19502
893.575	19609
893.697	19533
893.819	19639
893.941	19639
894.064	19647
894.186	19464
894.308	19434
894.43	19548
894.552	19586
894.674	19556
894.796	19396
894.918	19453
895.04	19472
895.161	19548
895.283	19567
895.405	19510
895.526	19548
895.648	19453
895.769	19525
895.891	19457
896.012	19616
896.134	19616
896.255	19681
896.376	19506
896.498	19609
896.619	19533
896.74	19575
896.861	19624
896.982	19925
897.103	20081
897.224	19936
897.345	19776
897.466	19753
897.587	19761
897.708	19879
897.828	19868
897.949	19696
898.07	19651
898.19	19563
898.311	19803
898.431	19734
898.552	19704
898.672	19890
898.792	19822
898.913	19674
899.033	19616
899.153	19533
899.273	19472
899.393	19567
899.513	19628
899.633	19449
899.753	19533
899.873	19476
899.993	19476
900.113	19419
900.232	19597
900.352	19422
900.472	19362
900.591	19278
900.711	19438
900.83	19381
900.95	19449
901.069	19491
901.189	19213
901.308	19103
901.427	18916
901.546	18958
901.665	18901
901.784	18844
901.904	18802
902.023	18646
902.141	18506
902.26	18506
902.379	18544
902.498	18460
902.617	18365
902.735	18494
902.854	18403
902.973	18315
903.091	18045
903.21	18148
903.328	18095
903.446	18015
903.565	17935
903.683	18019
903.801	17798
903.919	17908
904.038	17798
904.156	17684
904.274	17813
904.392	17642
904.51	17676
904.627	17585
904.745	17665
904.863	17794
904.981	17509
905.098	17349
905.216	17334
905.334	17383
905.451	17216
905.569	17337
905.686	17406
905.803	17429
905.921	17124
906.038	17280
906.155	17265
906.272	17075
906.389	17132
906.506	16900
906.623	16828
906.74	16828
906.857	16733
906.974	16759
907.091	16873
907.208	16984
907.324	16927
907.441	16790
907.557	16588
907.674	16554
907.79	16508
907.907	16489
908.023	16478
908.139	16535
908.256	16481
908.372	16538
908.488	16363
908.604	16363
908.72	16276
908.836	16299
908.952	16238
909.068	16375
909.184	16409
909.3	16238
909.415	16333
909.531	16299
909.647	16071
909.762	16044
909.878	15991
909.993	15930
910.108	15945
910.224	16002
910.339	15998
910.454	15857
910.57	15774
910.685	15808
910.8	16032
910.915	15911
911.03	15857
911.145	15603
911.259	15549
911.374	15603
911.489	15538
911.604	15526
911.718	15412
911.833	15256
911.947	15325
912.062	15195
912.176	15397
912.291	15317
912.405	15374
912.519	15595
912.633	15504
912.748	15382
912.862	15306
912.976	15184
913.09	15062
913.204	15089
913.318	15184
913.431	15287
913.545	15249
913.659	15230
913.772	15116
913.886	15074
914	14948
914.113	14982
914.226	15081
914.34	14990
914.453	14853
914.566	15112
914.68	14849
914.793	14819
914.906	14640
915.019	14625
915.132	14427
915.245	14571
915.358	14621
915.47	14640
915.583	14575
915.696	14606
915.809	14689
915.921	14720
916.034	14621
916.146	14412
916.259	14438
916.371	14659
916.483	14484
916.595	14518
916.708	14434
916.82	14427
916.932	14514
917.044	14419
917.156	14404
917.268	14282
917.38	14298
917.491	14271
917.603	14263
917.715	14339
917.826	14294
917.938	14252
918.049	14111
918.161	14301
918.272	14362
918.384	14328
918.495	14218
918.606	14050
918.717	14016
918.828	14062
918.939	14088
919.05	13989
919.161	14039
919.272	13769
919.383	13925
919.494	14043
919.604	14267
919.715	13955
919.826	13936
919.936	14126
920.047	14065
920.157	13986
920.267	14153
920.378	13906
920.488	14001
920.598	14221
920.708	14336
920.818	14134
920.928	14202
921.038	14263
921.148	14286
921.258	13890
921.368	13868
921.477	13765
921.587	13780
921.697	13567
921.806	13643
921.916	13605
922.025	13464
922.134	13480
922.244	13354
922.353	13335
922.462	13282
922.571	13202
922.68	13023
922.789	13095
922.898	13008
923.007	13023
923.116	13164
923.224	12966
923.333	13031
923.442	12932
923.55	12886
923.659	12935
923.767	12993
923.876	12856
923.984	12886
924.092	12810
924.201	12749
924.309	12730
924.417	12833
924.525	12677
924.633	12768
924.741	13468
924.849	12566
924.956	12726
925.064	12593
925.172	12448
925.279	12441
925.387	12684
925.494	12464
925.602	12566
925.709	12540
925.816	12384
925.924	12475
926.031	12528
926.138	12506
926.245	12521
926.352	12315
926.459	12475
926.566	12502
926.673	12388
926.779	12338
926.886	12315
926.993	12148
927.099	12095
927.206	11999
927.312	11965
927.419	12110
927.525	12114
927.631	12114
927.737	11980
927.843	12003
927.95	11889
928.056	12015
928.162	11863
928.267	12034
928.373	12570
928.479	11973
928.585	11790
928.69	11923
928.796	11908
928.901	11786
929.007	11638
929.112	11821
929.218	11726
929.323	11657
929.428	11688
929.533	11809
929.638	11566
929.743	11630
929.848	11707
929.953	11657
930.058	11573
930.163	11372
930.267	11315
930.372	11516
930.477	11284
930.581	11532
930.685	11448
930.79	11216
930.894	11231
930.998	11204
931.103	11379
931.207	11056
931.311	10953
931.415	10771
931.519	10618
931.623	10626
