Data from test_V78500241_253.txt Node
Date: Fri Mar 25 15:43:33 CST 2022
User: usil
Spectrometer: V785-0024
Trigger mode: 0
Integration Time (sec): 4.000000E-1
Scans to average: 1
Nonlinearity correction enabled: false
Boxcar width: 0
Storing dark spectrum: false
XAxis mode: Wavelengths
Number of Pixels in Spectrum: 1024
>>>>>Begin Spectral Data<<<<<
801.071	29999
801.214	29813
801.356	29707
801.499	29482
801.641	29478
801.783	29539
801.926	29589
802.068	29482
802.211	29292
802.353	29307
802.496	29166
802.638	29064
802.78	29136
802.923	29022
803.065	29090
803.208	29090
803.35	29098
803.492	29246
803.635	29197
803.777	29261
803.919	29315
804.061	29452
804.204	29322
804.346	29284
804.488	29341
804.63	29277
804.773	29044
804.915	29322
805.057	29421
805.199	29204
805.341	29303
805.483	29421
805.626	29322
805.768	29227
805.91	29273
806.052	29429
806.194	29341
806.336	29516
806.478	29353
806.62	29391
806.762	29558
806.904	29676
807.046	29996
807.188	29786
807.33	29847
807.472	29726
807.614	29771
807.756	29634
807.898	29707
808.04	29615
808.182	29668
808.324	29627
808.465	29638
808.607	29813
808.749	30022
808.891	30194
809.033	30213
809.174	30091
809.316	29965
809.458	30110
809.6	29878
809.741	30015
809.883	29969
810.025	30304
810.166	30258
810.308	30422
810.45	30216
810.591	30285
810.733	30053
810.875	30076
811.016	29893
811.158	29973
811.299	30117
811.441	30228
811.582	30144
811.724	29901
811.865	30030
812.007	29923
812.148	30068
812.29	30022
812.431	30228
812.573	30513
812.714	30311
812.855	30525
812.997	30574
813.138	30658
813.279	30616
813.421	30582
813.562	30460
813.703	30304
813.845	30174
813.986	29969
814.127	29821
814.268	29539
814.41	29691
814.551	29634
814.692	29741
814.833	29604
814.974	29562
815.115	29718
815.256	29505
815.397	29619
815.539	29372
815.68	29368
815.821	29345
815.962	29360
816.103	29524
816.244	29220
816.385	29079
816.526	29185
816.666	28987
816.807	28774
816.948	28991
817.089	28946
817.23	28835
817.371	28816
817.512	28881
817.653	28782
817.793	28782
817.934	28843
818.075	28915
818.216	28938
818.356	28809
818.497	28736
818.638	28611
818.778	28500
818.919	28569
819.06	28843
819.2	28672
819.341	28630
819.481	28930
819.622	28908
819.762	29143
819.903	29124
820.043	28953
820.184	28930
820.324	28847
820.465	28801
820.605	28892
820.746	28790
820.886	28850
821.026	28957
821.167	28873
821.307	28881
821.447	28771
821.588	28668
821.728	28493
821.868	28474
822.008	28234
822.149	28249
822.289	28112
822.429	28067
822.569	27926
822.709	27819
822.849	27732
822.99	27793
823.13	27606
823.27	27633
823.41	27568
823.55	27389
823.69	27504
823.83	27557
823.97	27393
824.11	27298
824.25	27340
824.389	27370
824.529	27382
824.669	27340
824.809	27477
824.949	27462
825.089	27561
825.228	27401
825.368	27249
825.508	27199
825.648	27245
825.787	27378
825.927	27180
826.067	27184
826.206	27306
826.346	27192
826.485	27291
826.625	27131
826.765	27329
826.904	27241
827.044	27104
827.183	26906
827.323	26872
827.462	26785
827.601	26982
827.741	26883
827.88	26963
828.02	26716
828.159	26925
828.298	26792
828.437	26823
828.577	26834
828.716	26830
828.855	26678
828.994	26682
829.134	26545
829.273	26636
829.412	26511
829.551	26362
829.69	26469
829.829	26590
829.968	26469
830.107	26648
830.246	26473
830.385	26408
830.524	26259
830.663	26278
830.802	26202
830.941	26073
831.08	26035
831.219	26336
831.357	26191
831.496	26343
831.635	26096
831.774	25944
831.913	26073
832.051	25887
832.19	25940
832.329	25974
832.467	25776
832.606	25818
832.744	25761
832.883	25700
833.022	25689
833.16	25814
833.299	25727
833.437	25693
833.576	25693
833.714	25811
833.852	25780
833.991	25791
834.129	25723
834.267	25818
834.406	25639
834.544	25712
834.682	25731
834.821	25674
834.959	25963
835.097	25666
835.235	25700
835.373	25811
835.511	25700
835.65	25483
835.788	25609
835.926	25331
836.064	25464
836.202	25578
836.34	25411
836.478	25655
836.615	25449
836.753	25544
836.891	25746
837.029	25578
837.167	25582
837.305	25438
837.443	25438
837.58	25312
837.718	25464
837.856	25335
837.993	25324
838.131	25365
838.269	25228
838.406	25244
838.544	25240
838.681	25057
838.819	24962
838.956	24848
839.094	24810
839.231	24920
839.369	24981
839.506	25194
839.643	24973
839.781	24677
839.918	24509
840.055	24738
840.193	24711
840.33	24612
840.467	24715
840.604	24730
840.742	25023
840.879	24467
841.016	24544
841.153	24593
841.29	24684
841.427	24654
841.564	24696
841.701	24601
841.838	24593
841.975	24547
842.112	24627
842.249	24422
842.385	24502
842.522	24574
842.659	24494
842.796	24308
842.933	24296
843.069	24342
843.206	24304
843.343	24380
843.479	24304
843.616	24281
843.752	24224
843.889	24209
844.025	24182
844.162	24106
844.298	24270
844.435	24136
844.571	24057
844.708	24140
844.844	24342
844.98	24220
845.117	24072
845.253	24136
845.389	23996
845.525	23992
845.661	24026
845.798	23870
845.934	23847
846.07	23783
846.206	23942
846.342	23920
846.478	23855
846.614	23630
846.75	23516
846.886	23459
847.022	23566
847.158	23573
847.294	23581
847.429	23596
847.565	23452
847.701	23840
847.837	23315
847.972	23090
848.108	23398
848.244	23254
848.379	23269
848.515	23159
848.65	22984
848.786	23220
848.921	23067
849.057	23094
849.192	23102
849.328	23041
849.463	23071
849.598	23029
849.734	22984
849.869	22991
850.004	22915
850.14	22942
850.275	22930
850.41	22812
850.545	22809
850.68	22767
850.815	22805
850.95	22828
851.085	22965
851.22	22873
851.355	22923
851.49	22694
851.625	22771
851.76	22816
851.895	22691
852.03	22733
852.165	22938
852.299	22820
852.434	22957
852.569	22843
852.703	22805
852.838	22854
852.973	22824
853.107	22828
853.242	22801
853.376	22603
853.511	22557
853.645	22702
853.78	22862
853.914	22649
854.048	22622
854.183	22637
854.317	22702
854.451	22782
854.585	22618
854.72	22599
854.854	22744
854.988	22542
855.122	22527
855.256	22352
855.39	22500
855.524	22660
855.658	22622
855.792	22611
855.926	22584
856.06	22649
856.194	22733
856.327	22596
856.461	22447
856.595	22538
856.729	22512
856.862	22679
856.996	22527
857.13	22645
857.263	22736
857.397	22615
857.53	22367
857.664	22687
857.797	22683
857.931	22675
858.064	22523
858.197	22622
858.331	22527
858.464	22417
858.597	22489
858.731	22409
858.864	22466
858.997	22462
859.13	22611
859.263	22630
859.396	22588
859.529	22504
859.662	22512
859.795	22432
859.928	22561
860.061	22778
860.194	22668
860.327	22554
860.46	22519
860.592	22561
860.725	22679
860.858	22649
860.99	22668
861.123	22421
861.256	22459
861.388	22702
861.521	23349
861.653	22390
861.786	22402
861.918	22538
862.05	22504
862.183	22455
862.315	22516
862.447	22527
862.58	22550
862.712	22215
862.844	22352
862.976	22379
863.108	22363
863.24	22706
863.372	22169
863.504	22211
863.636	22185
863.768	22318
863.9	22253
864.032	22135
864.164	22177
864.296	22196
864.428	22356
864.559	22371
864.691	22375
864.823	22211
864.954	22223
865.086	22051
865.217	22139
865.349	22025
865.48	22055
865.612	22181
865.743	22124
865.875	22078
866.006	22048
866.137	22143
866.269	22017
866.4	22082
866.531	22044
866.662	22040
866.793	22051
866.924	21998
867.055	21956
867.186	21964
867.317	21960
867.448	22029
867.579	21987
867.71	21880
867.841	21922
867.972	22070
868.103	22017
868.233	22059
868.364	22010
868.495	22166
868.625	22344
868.756	22375
868.886	22177
869.017	22230
869.147	22329
869.278	22386
869.408	22284
869.539	22196
869.669	22390
869.799	22249
869.929	22382
870.06	22333
870.19	22618
870.32	22531
870.45	22573
870.58	22744
870.71	22698
870.84	22702
870.97	22710
871.1	22691
871.23	22854
871.36	22927
871.489	22816
871.619	22725
871.749	22812
871.879	22805
872.008	22915
872.138	22972
872.267	22957
872.397	22729
872.526	22641
872.656	22607
872.785	22622
872.915	22771
873.044	22930
873.173	22767
873.303	22854
873.432	22828
873.561	22930
873.69	22915
873.819	22919
873.948	22972
874.077	22793
874.206	22801
874.335	22831
874.464	22957
874.593	23121
874.722	23064
874.851	23151
874.979	23136
875.108	23140
875.237	23075
875.365	22942
875.494	22938
875.623	23083
875.751	23056
875.88	23105
876.008	23159
876.136	23288
876.265	23509
876.393	23627
876.521	23531
876.65	23630
876.778	23436
876.906	23364
877.034	23463
877.162	23493
877.29	23288
877.418	23406
877.546	23315
877.674	23570
877.802	23379
877.93	23379
878.058	23368
878.185	23429
878.313	23364
878.441	23356
878.568	23212
878.696	23387
878.824	23547
878.951	23539
879.079	23752
879.206	23653
879.333	23718
879.461	23539
879.588	23581
879.715	23623
879.842	23695
879.97	23474
880.097	23178
880.224	23239
880.351	23189
880.478	23193
880.605	23280
880.732	23239
880.859	23524
880.986	23254
881.112	23246
881.239	23132
881.366	22908
881.493	22869
881.619	22904
881.746	22904
881.872	22831
881.999	22687
882.125	22778
882.252	22843
882.378	22809
882.505	22957
882.631	22713
882.757	22493
882.883	22626
883.01	22531
883.136	22481
883.262	22333
883.388	22287
883.514	22516
883.64	22512
883.766	22459
883.892	22272
884.018	22291
884.143	22512
884.269	22519
884.395	22360
884.52	22112
884.646	22131
884.772	22021
884.897	22029
885.023	22135
885.148	22120
885.274	22325
885.399	22215
885.524	22059
885.65	22051
885.775	22044
885.9	22055
886.025	22166
886.15	22261
886.275	22150
886.4	22017
886.525	22032
886.65	21915
886.775	22074
886.9	22200
887.025	22443
887.149	22143
887.274	21907
887.399	21804
887.523	21930
887.648	21838
887.773	21717
887.897	21812
888.021	21831
888.146	21888
888.27	21953
888.395	22025
888.519	21964
888.643	21823
888.767	21960
888.891	21876
889.015	21667
889.139	21732
889.263	21591
889.387	21762
889.511	21797
889.635	21793
889.759	21652
889.883	21682
890.006	21557
890.13	21660
890.254	21534
890.377	21462
890.501	21405
890.624	21405
890.748	21317
890.871	21256
890.995	21188
891.118	21096
891.241	21203
891.364	21165
891.488	21359
891.611	21275
891.734	21093
891.857	21249
891.98	21104
892.103	21298
892.226	21135
892.349	21081
892.471	20982
892.594	21043
892.717	21047
892.839	21077
892.962	20971
893.085	21123
893.207	21085
893.33	21009
893.452	21024
893.575	21081
893.697	21108
893.819	21249
893.941	21199
894.064	21260
894.186	20979
894.308	20960
894.43	21108
894.552	21218
894.674	21161
894.796	21032
894.918	21131
895.04	21039
895.161	21264
895.283	21062
895.405	20910
895.526	21017
895.648	21013
895.769	20967
895.891	21119
896.012	21096
896.134	21184
896.255	21157
896.376	21039
896.498	21077
896.619	21070
896.74	21150
896.861	21226
896.982	21416
897.103	21485
897.224	21321
897.345	21329
897.466	21359
897.587	21211
897.708	21298
897.828	21272
897.949	21176
898.07	21188
898.19	21260
898.311	21431
898.431	21230
898.552	21249
898.672	21355
898.792	21325
898.913	21192
899.033	21116
899.153	21108
899.273	20918
899.393	21062
899.513	20933
899.633	20857
899.753	20975
899.873	20830
899.993	21058
900.113	20952
900.232	20857
900.352	20769
900.472	20910
900.591	20796
900.711	20648
900.83	20644
900.95	20800
901.069	20838
901.189	20575
901.308	20385
901.427	20351
901.546	20454
901.665	20237
901.784	20282
901.904	20119
902.023	20062
902.141	19837
902.26	19738
902.379	19928
902.498	19833
902.617	19712
902.735	19811
902.854	19776
902.973	19563
903.091	19487
903.21	19460
903.328	19343
903.446	19339
903.565	19304
903.683	19244
903.801	19091
903.919	19278
904.038	19152
904.156	19103
904.274	18993
904.392	19004
904.51	18875
904.627	19004
904.745	18970
904.863	19057
904.981	18798
905.098	18608
905.216	18669
905.334	18555
905.451	18798
905.569	18585
905.686	18654
905.803	18719
905.921	18388
906.038	18536
906.155	18391
906.272	18350
906.389	18327
906.506	18209
906.623	18266
906.74	18133
906.857	18060
906.974	18125
907.091	18201
907.208	18273
907.324	18209
907.441	18019
907.557	17889
907.674	17847
907.79	17805
907.907	17901
908.023	17893
908.139	17908
908.256	17672
908.372	17684
908.488	17691
908.604	17672
908.72	17524
908.836	17512
908.952	17402
909.068	17551
909.184	17539
909.3	17398
909.415	17570
909.531	17516
909.647	17231
909.762	17261
909.878	17242
909.993	17208
910.108	17235
910.224	17113
910.339	17212
910.454	17075
910.57	16953
910.685	16957
910.8	17296
910.915	17147
911.03	16911
911.145	16812
911.259	16797
911.374	16717
911.489	16615
911.604	16592
911.718	16569
911.833	16519
911.947	16493
912.062	16386
912.176	16554
912.291	16546
912.405	16630
912.519	16679
912.633	16656
912.748	16470
912.862	16504
912.976	16234
913.09	16150
913.204	16303
913.318	16242
913.431	16451
913.545	16394
913.659	16436
913.772	16207
913.886	16230
914	16101
914.113	16143
914.226	16223
914.34	16181
914.453	16025
914.566	16173
914.68	16032
914.793	15899
914.906	15774
915.019	15732
915.132	15660
915.245	15614
915.358	15770
915.47	15743
915.583	15732
915.696	15724
915.809	15865
915.921	15876
916.034	15595
916.146	15614
916.259	15587
916.371	15709
916.483	15534
916.595	15473
916.708	15595
916.82	15538
916.932	15568
917.044	15412
917.156	15420
917.268	15382
917.38	15359
917.491	15321
917.603	15382
917.715	15416
917.826	15435
917.938	15241
918.049	15116
918.161	15310
918.272	15405
918.384	15443
918.495	15245
918.606	15097
918.717	15085
918.828	15138
918.939	15085
919.05	14918
919.161	15116
919.272	14830
919.383	14933
919.494	15009
919.604	15211
919.715	14948
919.826	14933
919.936	15074
920.047	15047
920.157	14986
920.267	15085
920.378	14990
920.488	14990
920.598	15188
920.708	15294
920.818	15100
920.928	15157
921.038	15268
921.148	15294
921.258	14998
921.368	14910
921.477	14724
921.587	14712
921.697	14518
921.806	14708
921.916	14556
922.025	14370
922.134	14324
922.244	14229
922.353	14419
922.462	14267
922.571	14088
922.68	14016
922.789	13978
922.898	14031
923.007	13928
923.116	13871
923.224	13936
923.333	13978
923.442	13845
923.55	13715
923.659	13772
923.767	13830
923.876	13788
923.984	13784
924.092	13655
924.201	13738
924.309	13616
924.417	13708
924.525	13613
924.633	13677
924.741	14374
924.849	13491
924.956	13521
925.064	13480
925.172	13472
925.279	13396
925.387	13415
925.494	13381
925.602	13529
925.709	13400
925.816	13369
925.924	13266
926.031	13358
926.138	13327
926.245	13335
926.352	13263
926.459	13343
926.566	13373
926.673	13190
926.779	13114
926.886	13034
926.993	13019
927.099	12947
927.206	12825
927.312	12821
927.419	12962
927.525	12878
927.631	12943
927.737	12787
927.843	12700
927.95	12696
928.056	12677
928.162	12764
928.267	12669
928.373	13422
928.479	12825
928.585	12585
928.69	12738
928.796	12665
928.901	12582
929.007	12384
929.112	12528
929.218	12471
929.323	12445
929.428	12388
929.533	12570
929.638	12365
929.743	12273
929.848	12418
929.953	12353
930.058	12353
930.163	12087
930.267	12129
930.372	12243
930.477	12022
930.581	12270
930.685	12102
930.79	11954
930.894	11992
930.998	12007
931.103	12114
931.207	11741
931.311	11596
931.415	11482
931.519	11292
931.623	11356
