Data from test_V78500241_3638.txt Node
Date: Fri Mar 25 16:07:00 CST 2022
User: usil
Spectrometer: V785-0024
Trigger mode: 0
Integration Time (sec): 4.000000E-1
Scans to average: 1
Nonlinearity correction enabled: false
Boxcar width: 0
Storing dark spectrum: false
XAxis mode: Wavelengths
Number of Pixels in Spectrum: 1024
>>>>>Begin Spectral Data<<<<<
801.071	27747
801.214	27717
801.356	27431
801.499	27321
801.641	27237
801.783	27272
801.926	27344
802.068	27245
802.211	27161
802.353	27131
802.496	26918
802.638	26891
802.78	26849
802.923	26918
803.065	26826
803.208	26887
803.35	26952
803.492	27184
803.635	27108
803.777	26937
803.919	26979
804.061	27496
804.204	27077
804.346	27013
804.488	26994
804.63	27096
804.773	27066
804.915	27169
805.057	27218
805.199	27100
805.341	27135
805.483	27188
805.626	27214
805.768	27116
805.91	27226
806.052	27203
806.194	27165
806.336	27222
806.478	27169
806.62	27127
806.762	27203
806.904	27618
807.046	27979
807.188	27564
807.33	27705
807.472	27774
807.614	27686
807.756	27667
807.898	27466
808.04	27374
808.182	27397
808.324	27507
808.465	27454
808.607	27781
808.749	27911
808.891	27914
809.033	27964
809.174	28013
809.316	27816
809.458	27934
809.6	27755
809.741	28097
809.883	27945
810.025	28067
810.166	28162
810.308	28166
810.45	28135
810.591	28131
810.733	27914
810.875	27956
811.016	27797
811.158	27838
811.299	27949
811.441	28032
811.582	27949
811.724	27876
811.865	27937
812.007	27888
812.148	27907
812.29	27987
812.431	28086
812.573	28367
812.714	28265
812.855	28474
812.997	28424
813.138	28546
813.279	28512
813.421	28352
813.562	28348
813.703	28185
813.845	28036
813.986	27690
814.127	27610
814.268	27557
814.41	27610
814.551	27507
814.692	27701
814.833	27443
814.974	27485
815.115	27519
815.256	27561
815.397	27568
815.539	27416
815.68	27382
815.821	27393
815.962	27427
816.103	27397
816.244	27032
816.385	27116
816.526	27070
816.666	27020
816.807	26750
816.948	27013
817.089	26899
817.23	26842
817.371	26826
817.512	26765
817.653	26724
817.793	26872
817.934	26708
818.075	26872
818.216	26929
818.356	26830
818.497	26621
818.638	26465
818.778	26640
818.919	26655
819.06	26678
819.2	26872
819.341	26849
819.481	26872
819.622	26960
819.762	27283
819.903	27005
820.043	26960
820.184	27077
820.324	26880
820.465	26982
820.605	26982
820.746	26940
820.886	26781
821.026	27017
821.167	26876
821.307	26902
821.447	26845
821.588	26785
821.728	26621
821.868	26442
822.008	26358
822.149	26366
822.289	26389
822.429	25986
822.569	25989
822.709	26039
822.849	25833
822.99	25841
823.13	25776
823.27	25830
823.41	25624
823.55	25552
823.69	25689
823.83	25693
823.97	25597
824.11	25373
824.25	25502
824.389	25384
824.529	25358
824.669	25438
824.809	25666
824.949	25537
825.089	25537
825.228	25472
825.368	25381
825.508	25297
825.648	25396
825.787	25350
825.927	25285
826.067	25293
826.206	25304
826.346	25472
826.485	25377
826.625	25365
826.765	25270
826.904	25304
827.044	25091
827.183	25129
827.323	25008
827.462	25088
827.601	25152
827.741	24962
827.88	24992
828.02	24848
828.159	24977
828.298	25061
828.437	25065
828.577	24882
828.716	25160
828.855	24951
828.994	24753
829.134	24665
829.273	24852
829.412	24623
829.551	24582
829.69	24688
829.829	24833
829.968	24837
830.107	24760
830.246	24757
830.385	24612
830.524	24445
830.663	24559
830.802	24475
830.941	24433
831.08	24384
831.219	24525
831.357	24338
831.496	24589
831.635	24330
831.774	24251
831.913	24350
832.051	24148
832.19	24087
832.329	24034
832.467	24060
832.606	23942
832.744	24030
832.883	24117
833.022	24136
833.16	24163
833.299	24064
833.437	24174
833.576	24140
833.714	24121
833.852	24205
833.991	24152
834.129	24114
834.267	24163
834.406	24148
834.544	24041
834.682	24011
834.821	24167
834.959	24228
835.097	24064
835.235	24125
835.373	24129
835.511	24060
835.65	24007
835.788	23977
835.926	23843
836.064	23790
836.202	23714
836.34	23996
836.478	23977
836.615	23977
836.753	23965
836.891	23946
837.029	23851
837.167	23904
837.305	23901
837.443	23722
837.58	23714
837.718	23984
837.856	23821
837.993	23672
838.131	23722
838.269	23623
838.406	23665
838.544	23577
838.681	23337
838.819	23406
838.956	23193
839.094	23231
839.231	23292
839.369	23395
839.506	23657
839.643	23471
839.781	23170
839.918	23185
840.055	23273
840.193	23098
840.33	23166
840.467	23311
840.604	23189
840.742	23292
840.879	22930
841.016	23060
841.153	23113
841.29	23178
841.427	23124
841.564	23231
841.701	23189
841.838	23025
841.975	22995
842.112	23102
842.249	22968
842.385	22957
842.522	23197
842.659	22957
842.796	22862
842.933	22824
843.069	22904
843.206	22881
843.343	23094
843.479	22862
843.616	22972
843.752	22793
843.889	22759
844.025	22885
844.162	22634
844.298	22740
844.435	22603
844.571	22740
844.708	22683
844.844	22771
844.98	22786
845.117	22805
845.253	22618
845.389	22516
845.525	22611
845.661	22615
845.798	22485
845.934	22489
846.07	22481
846.206	22516
846.342	22561
846.478	22440
846.614	22230
846.75	22070
846.886	22116
847.022	22432
847.158	22200
847.294	22143
847.429	22116
847.565	22280
847.701	22394
847.837	21846
847.972	21812
848.108	22025
848.244	22032
848.379	21831
848.515	21903
848.65	21739
848.786	21747
848.921	21808
849.057	21934
849.192	21850
849.328	21759
849.463	21705
849.598	21778
849.734	21557
849.869	21743
850.004	21485
850.14	21553
850.275	21530
850.41	21431
850.545	21481
850.68	21462
850.815	21488
850.95	21576
851.085	21641
851.22	21595
851.355	21469
851.49	21447
851.625	21481
851.76	21488
851.895	21466
852.03	21420
852.165	21523
852.299	21545
852.434	21690
852.569	21561
852.703	21382
852.838	21572
852.973	21603
853.107	21526
853.242	21405
853.376	21359
853.511	21294
853.645	21374
853.78	21450
853.914	21389
854.048	21184
854.183	21332
854.317	21504
854.451	21515
854.585	21268
854.72	21329
854.854	21428
854.988	21408
855.122	21367
855.256	21131
855.39	21329
855.524	21420
855.658	21317
855.792	21431
855.926	21431
856.06	21382
856.194	21485
856.327	21294
856.461	21245
856.595	21374
856.729	21363
856.862	21511
856.996	21321
857.13	21424
857.263	21351
857.397	21439
857.53	21344
857.664	21424
857.797	21332
857.931	21393
858.064	21367
858.197	21466
858.331	21332
858.464	21203
858.597	21264
858.731	21420
858.864	21294
858.997	21188
859.13	21336
859.263	21393
859.396	21283
859.529	21306
859.662	21367
859.795	21245
859.928	21313
860.061	21447
860.194	21496
860.327	21348
860.46	21389
860.592	21477
860.725	21485
860.858	21526
860.99	21405
861.123	21317
861.256	21302
861.388	21344
861.521	22131
861.653	21283
861.786	21077
861.918	21188
862.05	21245
862.183	21199
862.315	21272
862.447	21355
862.58	21310
862.712	21058
862.844	20998
862.976	21207
863.108	21032
863.24	21618
863.372	21024
863.504	21161
863.636	21116
863.768	21161
863.9	21009
864.032	20971
864.164	21028
864.296	21096
864.428	21127
864.559	21009
864.691	21222
864.823	21074
864.954	21093
865.086	20941
865.217	20925
865.349	20842
865.48	20975
865.612	20891
865.743	21070
865.875	20834
866.006	20998
866.137	20921
866.269	21028
866.4	20857
866.531	20963
866.662	20773
866.793	20990
866.924	20925
867.055	20986
867.186	20834
867.317	20963
867.448	20845
867.579	20788
867.71	20807
867.841	20883
867.972	20910
868.103	20902
868.233	20868
868.364	20895
868.495	20933
868.625	21142
868.756	21138
868.886	21085
869.017	21142
869.147	21252
869.278	21302
869.408	21135
869.539	21093
869.669	21279
869.799	21195
869.929	21268
870.06	21176
870.19	21507
870.32	21534
870.45	21477
870.58	21534
870.71	21591
870.84	21648
870.97	21614
871.1	21439
871.23	21705
871.36	21755
871.489	21709
871.619	21583
871.749	21759
871.879	21720
872.008	21846
872.138	21724
872.267	21720
872.397	21557
872.526	21587
872.656	21534
872.785	21595
872.915	21743
873.044	21873
873.173	21789
873.303	21861
873.432	21785
873.561	21884
873.69	21720
873.819	21637
873.948	21819
874.077	21747
874.206	21743
874.335	21751
874.464	21827
874.593	21953
874.722	21911
874.851	21991
874.979	22044
875.108	22063
875.237	21983
875.365	21922
875.494	22002
875.623	22032
875.751	22010
875.88	21972
876.008	22173
876.136	22177
876.265	22325
876.393	22538
876.521	22417
876.65	22462
876.778	22497
876.906	22207
877.034	22382
877.162	22265
877.29	22280
877.418	22299
877.546	22310
877.674	22356
877.802	22371
877.93	22303
878.058	22284
878.185	22242
878.313	22287
878.441	22436
878.568	22246
878.696	22230
878.824	22215
878.951	22443
879.079	22455
879.206	22733
879.333	22538
879.461	22485
879.588	22512
879.715	22493
879.842	22649
879.97	22497
880.097	22204
880.224	22116
880.351	22299
880.478	22181
880.605	22078
880.732	22128
880.859	22432
880.986	22120
881.112	22223
881.239	22063
881.366	21857
881.493	21915
881.619	21747
881.746	21823
881.872	21686
881.999	21751
882.125	21633
882.252	21846
882.378	21762
882.505	21831
882.631	21580
882.757	21633
882.883	21488
883.01	21428
883.136	21401
883.262	21310
883.388	21306
883.514	21374
883.64	21500
883.766	21469
883.892	21275
884.018	21272
884.143	21325
884.269	21534
884.395	21081
884.52	21169
884.646	21112
884.772	21157
884.897	21062
885.023	21077
885.148	21142
885.274	21142
885.399	21192
885.524	21108
885.65	21085
885.775	21066
885.9	21051
886.025	21252
886.15	21214
886.275	21039
886.4	21081
886.525	21017
886.65	20929
886.775	20975
886.9	21169
887.025	21237
887.149	20994
887.274	20929
887.399	20838
887.523	20705
887.648	20887
887.773	20655
887.897	20944
888.021	20876
888.146	20781
888.27	20948
888.395	20956
888.519	20777
888.643	20792
888.767	20937
888.891	20811
889.015	20735
889.139	20678
889.263	20564
889.387	20838
889.511	20883
889.635	20762
889.759	20602
889.883	20640
890.006	20632
890.13	20731
890.254	20469
890.377	20568
890.501	20476
890.624	20263
890.748	20476
890.871	20332
890.995	20077
891.118	20191
891.241	20298
891.364	20259
891.488	20415
891.611	20218
891.734	20252
891.857	20176
891.98	20210
892.103	20271
892.226	20176
892.349	20081
892.471	19982
892.594	20134
892.717	20229
892.839	20145
892.962	20149
893.085	20069
893.207	20062
893.33	19997
893.452	20100
893.575	20259
893.697	20126
893.819	20206
893.941	20339
894.064	20305
894.186	20088
894.308	19993
894.43	20077
894.552	20244
894.674	20191
894.796	19986
894.918	20130
895.04	20111
895.161	20149
895.283	20103
895.405	20050
895.526	20122
895.648	20081
895.769	20069
895.891	20164
896.012	20130
896.134	20206
896.255	20134
896.376	20081
896.498	20115
896.619	20225
896.74	20130
896.861	20138
896.982	20419
897.103	20571
897.224	20389
897.345	20305
897.466	20290
897.587	20309
897.708	20362
897.828	20294
897.949	20275
898.07	20244
898.19	20278
898.311	20385
898.431	20252
898.552	20317
898.672	20400
898.792	20389
898.913	20366
899.033	20176
899.153	20286
899.273	20039
899.393	20001
899.513	20149
899.633	20107
899.753	20138
899.873	20008
899.993	20081
900.113	20096
900.232	20103
900.352	20054
900.472	20020
900.591	19864
900.711	19913
900.83	19826
900.95	19925
901.069	19909
901.189	19723
901.308	19620
901.427	19350
901.546	19491
901.665	19388
901.784	19487
901.904	19350
902.023	19270
902.141	19027
902.26	19072
902.379	19008
902.498	18996
902.617	18954
902.735	18977
902.854	18966
902.973	18901
903.091	18760
903.21	18711
903.328	18582
903.446	18563
903.565	18464
903.683	18460
903.801	18426
903.919	18426
904.038	18388
904.156	18190
904.274	18292
904.392	18197
904.51	18174
904.627	18144
904.745	18182
904.863	18205
904.981	18003
905.098	17923
905.216	17912
905.334	17790
905.451	17866
905.569	17916
905.686	17965
905.803	17912
905.921	17703
906.038	17817
906.155	17745
906.272	17551
906.389	17577
906.506	17391
906.623	17395
906.74	17322
906.857	17151
906.974	17258
907.091	17528
907.208	17509
907.324	17486
907.441	17303
907.557	17254
907.674	17143
907.79	17079
907.907	17071
908.023	17189
908.139	17037
908.256	17162
908.372	17018
908.488	16900
908.604	16965
908.72	16778
908.836	16793
908.952	16740
909.068	16839
909.184	16915
909.3	16820
909.415	16904
909.531	16949
909.647	16577
909.762	16550
909.878	16580
909.993	16561
910.108	16516
910.224	16508
910.339	16649
910.454	16440
910.57	16268
910.685	16310
910.8	16580
910.915	16455
911.03	16276
911.145	16173
911.259	16185
911.374	16055
911.489	15956
911.604	16116
911.718	15850
911.833	15895
911.947	15781
912.062	15842
912.176	15903
912.291	15934
912.405	15922
912.519	16063
912.633	16109
912.748	15964
912.862	15838
912.976	15781
913.09	15553
913.204	15709
913.318	15736
913.431	15778
913.545	15873
913.659	15800
913.772	15728
913.886	15378
914	15496
914.113	15557
914.226	15686
914.34	15523
914.453	15355
914.566	15496
914.68	15370
914.793	15313
914.906	15207
915.019	15127
915.132	15081
915.245	15066
915.358	15184
915.47	15123
915.583	15062
915.696	15203
915.809	15157
915.921	15313
916.034	15047
916.146	15051
916.259	15036
916.371	15112
916.483	15077
916.595	14918
916.708	14971
916.82	14902
916.932	14887
917.044	14925
917.156	14849
917.268	14750
917.38	14731
917.491	14800
917.603	14834
917.715	14876
917.826	14853
917.938	14686
918.049	14598
918.161	14800
918.272	14769
918.384	14891
918.495	14678
918.606	14575
918.717	14450
918.828	14552
918.939	14545
919.05	14454
919.161	14476
919.272	14328
919.383	14412
919.494	14598
919.604	14762
919.715	14533
919.826	14518
919.936	14469
920.047	14602
920.157	14465
920.267	14545
920.378	14476
920.488	14454
920.598	14705
920.708	14746
920.818	14674
920.928	14640
921.038	14788
921.148	14610
921.258	14461
921.368	14446
921.477	14290
921.587	14278
921.697	14016
921.806	14229
921.916	14069
922.025	13906
922.134	13845
922.244	13818
922.353	13913
922.462	13807
922.571	13605
922.68	13537
922.789	13518
922.898	13544
923.007	13472
923.116	13544
923.224	13578
923.333	13525
923.442	13297
923.55	13324
923.659	13495
923.767	13491
923.876	13285
923.984	13343
924.092	13202
924.201	13213
924.309	13270
924.417	13270
924.525	13225
924.633	13247
924.741	14161
924.849	12962
924.956	13107
925.064	12989
925.172	12939
925.279	12943
925.387	12989
925.494	12890
925.602	13042
925.709	12985
925.816	12779
925.924	12886
926.031	12966
926.138	12802
926.245	12859
926.352	12810
926.459	12966
926.566	12962
926.673	12821
926.779	12707
926.886	12677
926.993	12517
927.099	12585
927.206	12483
927.312	12464
927.419	12540
927.525	12467
927.631	12536
927.737	12361
927.843	12300
927.95	12213
928.056	12403
928.162	12281
928.267	12452
928.373	13008
928.479	12380
928.585	12140
928.69	12178
928.796	12365
928.901	12235
929.007	12095
929.112	12235
929.218	12095
929.323	12098
929.428	12038
929.533	12155
929.638	11973
929.743	12053
929.848	12057
929.953	12034
930.058	11889
930.163	11737
930.267	11805
930.372	11908
930.477	11653
930.581	11920
930.685	11783
930.79	11691
930.894	11661
930.998	11482
931.103	11790
931.207	11417
931.311	11326
931.415	11258
931.519	11071
931.623	10965
