Data from test_V78500241_557.txt Node
Date: Fri Mar 25 15:45:39 CST 2022
User: usil
Spectrometer: V785-0024
Trigger mode: 0
Integration Time (sec): 4.000000E-1
Scans to average: 1
Nonlinearity correction enabled: false
Boxcar width: 0
Storing dark spectrum: false
XAxis mode: Wavelengths
Number of Pixels in Spectrum: 1024
>>>>>Begin Spectral Data<<<<<
801.071	27424
801.214	27237
801.356	27131
801.499	27028
801.641	26918
801.783	26902
801.926	27039
802.068	26895
802.211	26731
802.353	26686
802.496	26564
802.638	26393
802.78	26507
802.923	26381
803.065	26545
803.208	26438
803.35	26461
803.492	26571
803.635	26632
803.777	26514
803.919	26727
804.061	26998
804.204	26655
804.346	26754
804.488	26560
804.63	26625
804.773	26583
804.915	26617
805.057	26686
805.199	26686
805.341	26811
805.483	26891
805.626	26686
805.768	26693
805.91	26864
806.052	26670
806.194	26697
806.336	26975
806.478	26906
806.62	26765
806.762	27005
806.904	27096
807.046	27245
807.188	27264
807.33	27241
807.472	27317
807.614	27173
807.756	27074
807.898	26998
808.04	27039
808.182	26986
808.324	27112
808.465	27005
808.607	27230
808.749	27294
808.891	27389
809.033	27549
809.174	27523
809.316	27515
809.458	27485
809.6	27469
809.741	27523
809.883	27561
810.025	27622
810.166	27561
810.308	27701
810.45	27713
810.591	27496
810.733	27306
810.875	27374
811.016	27256
811.158	27332
811.299	27545
811.441	27591
811.582	27679
811.724	27374
811.865	27450
812.007	27416
812.148	27424
812.29	27507
812.431	27561
812.573	27701
812.714	27800
812.855	27869
812.997	28063
813.138	28101
813.279	27907
813.421	27876
813.562	27831
813.703	27648
813.845	27610
813.986	27332
814.127	27157
814.268	26998
814.41	27039
814.551	27070
814.692	27020
814.833	27051
814.974	27020
815.115	27017
815.256	26899
815.397	26925
815.539	26902
815.68	26849
815.821	26842
815.962	26830
816.103	26632
816.244	26758
816.385	26773
816.526	26530
816.666	26469
816.807	26275
816.948	26396
817.089	26377
817.23	26381
817.371	26286
817.512	26301
817.653	26290
817.793	26259
817.934	26256
818.075	26290
818.216	26431
818.356	26229
818.497	26271
818.638	26039
818.778	26031
818.919	25978
819.06	26172
819.2	26157
819.341	26271
819.481	26294
819.622	26419
819.762	26667
819.903	26629
820.043	26381
820.184	26415
820.324	26301
820.465	26518
820.605	26446
820.746	26415
820.886	26366
821.026	26366
821.167	26286
821.307	26571
821.447	26453
821.588	26336
821.728	26122
821.868	26016
822.008	25731
822.149	25814
822.289	25681
822.429	25590
822.569	25483
822.709	25365
822.849	25263
822.99	25316
823.13	25247
823.27	25194
823.41	25126
823.55	25034
823.69	25168
823.83	25145
823.97	25072
824.11	24947
824.25	24909
824.389	24821
824.529	24886
824.669	24916
824.809	25019
824.949	25076
825.089	24966
825.228	24928
825.368	24635
825.508	24696
825.648	24719
825.787	24741
825.927	24795
826.067	24768
826.206	24810
826.346	24779
826.485	24825
826.625	24825
826.765	24992
826.904	24741
827.044	24372
827.183	24475
827.323	24513
827.462	24437
827.601	24604
827.741	24433
827.88	24418
828.02	24319
828.159	24357
828.298	24513
828.437	24460
828.577	24517
828.716	24608
828.855	24460
828.994	24239
829.134	24235
829.273	24209
829.412	24136
829.551	24216
829.69	24030
829.829	24117
829.968	24372
830.107	24247
830.246	24228
830.385	24110
830.524	24102
830.663	23969
830.802	23897
830.941	23840
831.08	23722
831.219	23729
831.357	23874
831.496	24083
831.635	23779
831.774	23714
831.913	23687
832.051	23615
832.19	23505
832.329	23615
832.467	23448
832.606	23501
832.744	23505
832.883	23440
833.022	23307
833.16	23463
833.299	23547
833.437	23512
833.576	23474
833.714	23585
833.852	23478
833.991	23554
834.129	23661
834.267	23509
834.406	23402
834.544	23672
834.682	23543
834.821	23436
834.959	23714
835.097	23410
835.235	23539
835.373	23531
835.511	23471
835.65	23455
835.788	23341
835.926	23223
836.064	23136
836.202	23269
836.34	23433
836.478	23425
836.615	23227
836.753	23341
836.891	23459
837.029	23364
837.167	23341
837.305	23181
837.443	23296
837.58	23143
837.718	23246
837.856	23132
837.993	23006
838.131	23200
838.269	22972
838.406	23044
838.544	22980
838.681	22835
838.819	22805
838.956	22721
839.094	22622
839.231	22740
839.369	22854
839.506	22987
839.643	22946
839.781	22752
839.918	22565
840.055	22713
840.193	22675
840.33	22519
840.467	22618
840.604	22668
840.742	22858
840.879	22516
841.016	22508
841.153	22637
841.29	22782
841.427	22710
841.564	22607
841.701	22656
841.838	22622
841.975	22443
842.112	22398
842.249	22436
842.385	22398
842.522	22516
842.659	22390
842.796	22287
842.933	22398
843.069	22257
843.206	22268
843.343	22352
843.479	22352
843.616	22306
843.752	22124
843.889	22063
844.025	22223
844.162	22006
844.298	22215
844.435	22188
844.571	22128
844.708	22162
844.844	22333
844.98	22177
845.117	22086
845.253	22055
845.389	21979
845.525	21949
845.661	21922
845.798	21831
845.934	21937
846.07	21755
846.206	21873
846.342	21892
846.478	21975
846.614	21709
846.75	21523
846.886	21561
847.022	21671
847.158	21523
847.294	21477
847.429	21618
847.565	21526
847.701	21854
847.837	21287
847.972	21332
848.108	21435
848.244	21393
848.379	21199
848.515	21043
848.65	21119
848.786	21226
848.921	21173
849.057	21291
849.192	21306
849.328	21195
849.463	21310
849.598	21116
849.734	21131
849.869	21009
850.004	20929
850.14	20876
850.275	20967
850.41	20845
850.545	20994
850.68	20838
850.815	20998
850.95	20914
851.085	21066
851.22	20986
851.355	20990
851.49	20830
851.625	20834
851.76	20906
851.895	20807
852.03	20857
852.165	20910
852.299	20853
852.434	20967
852.569	20982
852.703	20937
852.838	20937
852.973	21066
853.107	20952
853.242	20868
853.376	20746
853.511	20705
853.645	20716
853.78	20861
853.914	20910
854.048	20716
854.183	20743
854.317	20830
854.451	20960
854.585	20785
854.72	20701
854.854	20849
854.988	20682
855.122	20788
855.256	20579
855.39	20773
855.524	20804
855.658	20815
855.792	20731
855.926	20697
856.06	20785
856.194	20910
856.327	20781
856.461	20655
856.595	20750
856.729	20667
856.862	20792
856.996	20853
857.13	20876
857.263	20887
857.397	20967
857.53	20731
857.664	20769
857.797	20781
857.931	20868
858.064	20705
858.197	20815
858.331	20701
858.464	20682
858.597	20629
858.731	20811
858.864	20781
858.997	20689
859.13	20804
859.263	20864
859.396	20823
859.529	20804
859.662	20689
859.795	20663
859.928	20895
860.061	20941
860.194	20902
860.327	20792
860.46	20621
860.592	20933
860.725	20948
860.858	20842
860.99	20815
861.123	20617
861.256	20716
861.388	20792
861.521	21306
861.653	20701
861.786	20556
861.918	20484
862.05	20659
862.183	20712
862.315	20659
862.447	20754
862.58	20693
862.712	20511
862.844	20522
862.976	20556
863.108	20530
863.24	20887
863.372	20370
863.504	20488
863.636	20431
863.768	20446
863.9	20454
864.032	20370
864.164	20461
864.296	20484
864.428	20507
864.559	20594
864.691	20465
864.823	20465
864.954	20415
865.086	20431
865.217	20389
865.349	20412
865.48	20320
865.612	20438
865.743	20560
865.875	20514
866.006	20427
866.137	20252
866.269	20393
866.4	20450
866.531	20374
866.662	20309
866.793	20412
866.924	20305
867.055	20298
867.186	20381
867.317	20290
867.448	20343
867.579	20259
867.71	20278
867.841	20191
867.972	20377
868.103	20248
868.233	20377
868.364	20271
868.495	20423
868.625	20480
868.756	20644
868.886	20495
869.017	20461
869.147	20750
869.278	20682
869.408	20503
869.539	20450
869.669	20594
869.799	20663
869.929	20682
870.06	20674
870.19	20842
870.32	20880
870.45	20895
870.58	20971
870.71	21081
870.84	21024
870.97	20960
871.1	20998
871.23	21169
871.36	21062
871.489	21005
871.619	21032
871.749	21154
871.879	21085
872.008	21245
872.138	21108
872.267	21077
872.397	21093
872.526	20960
872.656	20902
872.785	20921
872.915	21188
873.044	21157
873.173	21207
873.303	21359
873.432	21188
873.561	21233
873.69	21142
873.819	21146
873.948	21249
874.077	21157
874.206	21100
874.335	21214
874.464	21359
874.593	21466
874.722	21275
874.851	21477
874.979	21454
875.108	21447
875.237	21378
875.365	21424
875.494	21450
875.623	21500
875.751	21416
875.88	21431
876.008	21447
876.136	21557
876.265	21873
876.393	21884
876.521	21987
876.65	21930
876.778	21865
876.906	21694
877.034	21682
877.162	21728
877.29	21690
877.418	21717
877.546	21732
877.674	21789
877.802	21812
877.93	21751
878.058	21762
878.185	21644
878.313	21793
878.441	21690
878.568	21553
878.696	21610
878.824	21720
878.951	21861
879.079	22032
879.206	21983
879.333	22032
879.461	21671
879.588	21975
879.715	21998
879.842	21930
879.97	21915
880.097	21629
880.224	21542
880.351	21686
880.478	21553
880.605	21564
880.732	21526
880.859	21709
880.986	21644
881.112	21595
881.239	21542
881.366	21336
881.493	21260
881.619	21085
881.746	21184
881.872	21119
881.999	21127
882.125	21222
882.252	21195
882.378	21161
882.505	21150
882.631	21013
882.757	20880
882.883	21028
883.01	20838
883.136	20758
883.262	20697
883.388	20701
883.514	20971
883.64	20815
883.766	20956
883.892	20689
884.018	20842
884.143	20693
884.269	20834
884.395	20526
884.52	20590
884.646	20571
884.772	20362
884.897	20351
885.023	20495
885.148	20621
885.274	20689
885.399	20716
885.524	20617
885.65	20621
885.775	20530
885.9	20396
886.025	20678
886.15	20609
886.275	20404
886.4	20480
886.525	20347
886.65	20442
886.775	20476
886.9	20511
887.025	20773
887.149	20514
887.274	20324
887.399	20278
887.523	20275
887.648	20164
887.773	20275
887.897	20366
888.021	20336
888.146	20298
888.27	20400
888.395	20370
888.519	20461
888.643	20298
888.767	20347
888.891	20103
889.015	20210
889.139	20115
889.263	20157
889.387	20142
889.511	20305
889.635	20263
889.759	20016
889.883	20096
890.006	20039
890.13	20134
890.254	20008
890.377	20050
890.501	19807
890.624	19940
890.748	19811
890.871	19788
890.995	19742
891.118	19624
891.241	19605
891.364	19750
891.488	19727
891.611	19715
891.734	19635
891.857	19837
891.98	19734
892.103	19666
892.226	19609
892.349	19575
892.471	19445
892.594	19712
892.717	19677
892.839	19548
892.962	19662
893.085	19677
893.207	19575
893.33	19426
893.452	19533
893.575	19518
893.697	19480
893.819	19647
893.941	19791
894.064	19719
894.186	19582
894.308	19449
894.43	19655
894.552	19833
894.674	19647
894.796	19472
894.918	19571
895.04	19457
895.161	19651
895.283	19651
895.405	19525
895.526	19567
895.648	19594
895.769	19514
895.891	19681
896.012	19666
896.134	19658
896.255	19582
896.376	19548
896.498	19563
896.619	19662
896.74	19620
896.861	19681
896.982	19989
897.103	20077
897.224	19860
897.345	19864
897.466	19826
897.587	19784
897.708	20031
897.828	19868
897.949	19799
898.07	19655
898.19	19689
898.311	19955
898.431	19719
898.552	19833
898.672	19906
898.792	19917
898.913	19883
899.033	19814
899.153	19704
899.273	19556
899.393	19529
899.513	19666
899.633	19556
899.753	19632
899.873	19605
899.993	19582
900.113	19518
900.232	19613
900.352	19559
900.472	19468
900.591	19324
900.711	19388
900.83	19320
900.95	19460
901.069	19647
901.189	19308
901.308	19023
901.427	18920
901.546	19034
901.665	19046
901.784	18985
901.904	18951
902.023	18776
902.141	18525
902.26	18483
902.379	18604
902.498	18509
902.617	18372
902.735	18536
902.854	18407
902.973	18422
903.091	18243
903.21	18201
903.328	18235
903.446	18060
903.565	17980
903.683	18049
903.801	17824
903.919	17885
904.038	17901
904.156	17741
904.274	17809
904.392	17764
904.51	17767
904.627	17665
904.745	17794
904.863	17745
904.981	17638
905.098	17512
905.216	17448
905.334	17417
905.451	17486
905.569	17452
905.686	17509
905.803	17341
905.921	17185
906.038	17353
906.155	17261
906.272	17105
906.389	17151
906.506	16972
906.623	17083
906.74	16995
906.857	16885
906.974	16858
907.091	17037
907.208	17105
907.324	16911
907.441	16873
907.557	16691
907.674	16698
907.79	16660
907.907	16637
908.023	16675
908.139	16691
908.256	16550
908.372	16531
908.488	16489
908.604	16466
908.72	16371
908.836	16451
908.952	16443
909.068	16363
909.184	16481
909.3	16428
909.415	16436
909.531	16322
909.647	16135
909.762	16147
909.878	16017
909.993	16166
910.108	16067
910.224	16071
910.339	16131
910.454	15911
910.57	15888
910.685	15800
910.8	16162
910.915	16048
911.03	15884
911.145	15774
911.259	15766
911.374	15660
911.489	15641
911.604	15633
911.718	15496
911.833	15454
911.947	15405
912.062	15317
912.176	15439
912.291	15435
912.405	15500
912.519	15660
912.633	15682
912.748	15515
912.862	15420
912.976	15310
913.09	15214
913.204	15298
913.318	15226
913.431	15370
913.545	15325
913.659	15344
913.772	15161
913.886	15077
914	15127
914.113	15199
914.226	15199
914.34	15108
914.453	14982
914.566	15165
914.68	15051
914.793	14944
914.906	14735
915.019	14674
915.132	14663
915.245	14777
915.358	14682
915.47	14712
915.583	14731
915.696	14716
915.809	14807
915.921	14834
916.034	14758
916.146	14556
916.259	14625
916.371	14697
916.483	14674
916.595	14587
916.708	14625
916.82	14511
916.932	14602
917.044	14594
917.156	14404
917.268	14339
917.38	14381
917.491	14362
917.603	14408
917.715	14415
917.826	14503
917.938	14278
918.049	14362
918.161	14328
918.272	14488
918.384	14355
918.495	14305
918.606	14244
918.717	14069
918.828	14172
918.939	14168
919.05	14084
919.161	14130
919.272	13852
919.383	13951
919.494	14130
919.604	14336
919.715	14115
919.826	14065
919.936	14123
920.047	14180
920.157	14103
920.267	14355
920.378	14176
920.488	14096
920.598	14256
920.708	14438
920.818	14248
920.928	14240
921.038	14351
921.148	14263
921.258	14149
921.368	14031
921.477	13856
921.587	13894
921.697	13700
921.806	13841
921.916	13753
922.025	13643
922.134	13586
922.244	13540
922.353	13586
922.462	13388
922.571	13388
922.68	13209
922.789	13145
922.898	13225
923.007	13072
923.116	13206
923.224	13099
923.333	13000
923.442	13042
923.55	13000
923.659	13038
923.767	13126
923.876	12993
923.984	12981
924.092	12947
924.201	12962
924.309	12958
924.417	12943
924.525	12909
924.633	12848
924.741	13799
924.849	12658
924.956	12707
925.064	12700
925.172	12578
925.279	12612
925.387	12692
925.494	12669
925.602	12715
925.709	12627
925.816	12365
925.924	12513
926.031	12612
926.138	12681
926.245	12623
926.352	12407
926.459	12566
926.566	12612
926.673	12407
926.779	12369
926.886	12311
926.993	12136
927.099	12201
927.206	12216
927.312	12148
927.419	12159
927.525	12262
927.631	12232
927.737	11999
927.843	11946
927.95	11946
928.056	11969
928.162	12079
928.267	12045
928.373	12715
928.479	12136
928.585	11851
928.69	11977
928.796	11935
928.901	11927
929.007	11691
929.112	11916
929.218	11843
929.323	11748
929.428	11767
929.533	11870
929.638	11691
929.743	11672
929.848	11745
929.953	11680
930.058	11611
930.163	11501
930.267	11410
930.372	11604
930.477	11398
930.581	11562
930.685	11444
930.79	11364
930.894	11315
930.998	11223
931.103	11433
931.207	11117
931.311	10980
931.415	10911
931.519	10824
931.623	10618
