Data from test_V78500241_3196.txt Node
Date: Fri Mar 25 16:03:56 CST 2022
User: usil
Spectrometer: V785-0024
Trigger mode: 0
Integration Time (sec): 4.000000E-1
Scans to average: 1
Nonlinearity correction enabled: false
Boxcar width: 0
Storing dark spectrum: false
XAxis mode: Wavelengths
Number of Pixels in Spectrum: 1024
>>>>>Begin Spectral Data<<<<<
801.071	28596
801.214	28447
801.356	28284
801.499	28135
801.641	28093
801.783	28067
801.926	28173
802.068	28131
802.211	28067
802.353	27968
802.496	27865
802.638	27778
802.78	27869
802.923	27644
803.065	27614
803.208	27720
803.35	27812
803.492	27876
803.635	28010
803.777	27869
803.919	28162
804.061	28257
804.204	28013
804.346	28013
804.488	27865
804.63	27979
804.773	27918
804.915	28097
805.057	28196
805.199	27937
805.341	28188
805.483	28204
805.626	27975
805.768	28158
805.91	28112
806.052	28143
806.194	27987
806.336	28424
806.478	28169
806.62	28128
806.762	28325
806.904	28474
807.046	28656
807.188	28462
807.33	28596
807.472	28752
807.614	28561
807.756	28577
807.898	28272
808.04	28344
808.182	28341
808.324	28409
808.465	28470
808.607	28531
808.749	28858
808.891	28919
809.033	28987
809.174	28888
809.316	28721
809.458	28873
809.6	28885
809.741	28877
809.883	28877
810.025	29204
810.166	29143
810.308	29083
810.45	29060
810.591	28968
810.733	28915
810.875	28919
811.016	28752
811.158	28831
811.299	28805
811.441	29006
811.582	28999
811.724	28900
811.865	28888
812.007	28854
812.148	28858
812.29	28885
812.431	28980
812.573	29197
812.714	29250
812.855	29307
812.997	29509
813.138	29653
813.279	29501
813.421	29337
813.562	29360
813.703	29292
813.845	29151
813.986	28778
814.127	28691
814.268	28573
814.41	28542
814.551	28500
814.692	28679
814.833	28462
814.974	28596
815.115	28599
815.256	28462
815.397	28443
815.539	28459
815.68	28405
815.821	28261
815.962	28451
816.103	28280
816.244	28234
816.385	28124
816.526	28139
816.666	27835
816.807	28021
816.948	27899
817.089	27895
817.23	27922
817.371	27854
817.512	27888
817.653	27865
817.793	27808
817.934	27705
818.075	27911
818.216	27785
818.356	27857
818.497	27762
818.638	27637
818.778	27637
818.919	27675
819.06	27827
819.2	27816
819.341	27899
819.481	28017
819.622	28059
819.762	28067
819.903	28158
820.043	28086
820.184	28017
820.324	28025
820.465	28059
820.605	27998
820.746	28090
820.886	27812
821.026	27972
821.167	27846
821.307	27953
821.447	27751
821.588	27831
821.728	27633
821.868	27511
822.008	27313
822.149	27310
822.289	27310
822.429	27165
822.569	27051
822.709	27127
822.849	26967
822.99	26861
823.13	26872
823.27	26864
823.41	26670
823.55	26511
823.69	26701
823.83	26720
823.97	26773
824.11	26476
824.25	26480
824.389	26507
824.529	26549
824.669	26587
824.809	26686
824.949	26705
825.089	26640
825.228	26648
825.368	26385
825.508	26438
825.648	26434
825.787	26415
825.927	26511
826.067	26442
826.206	26473
826.346	26476
826.485	26355
826.625	26412
826.765	26545
826.904	26351
827.044	26168
827.183	26183
827.323	26202
827.462	26195
827.601	26210
827.741	26164
827.88	26214
828.02	26084
828.159	25993
828.298	26103
828.437	26062
828.577	25932
828.716	26256
828.855	25833
828.994	25830
829.134	25803
829.273	25811
829.412	25742
829.551	25852
829.69	25753
829.829	25811
829.968	25826
830.107	25852
830.246	25742
830.385	25753
830.524	25761
830.663	25651
830.802	25624
830.941	25533
831.08	25571
831.219	25525
831.357	25502
831.496	25651
831.635	25559
831.774	25384
831.913	25343
832.051	25209
832.19	25244
832.329	25240
832.467	25145
832.606	25099
832.744	24916
832.883	25023
833.022	25053
833.16	25148
833.299	25107
833.437	25034
833.576	25099
833.714	25088
833.852	25228
833.991	25198
834.129	25118
834.267	25118
834.406	25129
834.544	25137
834.682	25187
834.821	25053
834.959	25445
835.097	25095
835.235	25274
835.373	25156
835.511	25145
835.65	25034
835.788	25065
835.926	24817
836.064	24848
836.202	24890
836.34	24791
836.478	25057
836.615	24954
836.753	24962
836.891	25099
837.029	25065
837.167	24897
837.305	24840
837.443	24867
837.58	24722
837.718	24886
837.856	24787
837.993	24753
838.131	24764
838.269	24684
838.406	24673
838.544	24627
838.681	24483
838.819	24544
838.956	24296
839.094	24258
839.231	24380
839.369	24460
839.506	24631
839.643	24513
839.781	24270
839.918	24235
840.055	24281
840.193	24273
840.33	24121
840.467	24167
840.604	24213
840.742	24505
840.879	24057
841.016	24220
841.153	24114
841.29	24388
841.427	24041
841.564	24194
841.701	24125
841.838	24209
841.975	24140
842.112	23897
842.249	24114
842.385	23931
842.522	24163
842.659	23897
842.796	23843
842.933	23954
843.069	23958
843.206	23973
843.343	24015
843.479	23946
843.616	23961
843.752	23691
843.889	23733
844.025	23954
844.162	23661
844.298	23741
844.435	23661
844.571	23699
844.708	23703
844.844	23832
844.98	23824
845.117	23771
845.253	23703
845.389	23520
845.525	23623
845.661	23623
845.798	23634
845.934	23531
846.07	23337
846.206	23520
846.342	23444
846.478	23444
846.614	23227
846.75	23170
846.886	23185
847.022	23147
847.158	23181
847.294	23223
847.429	23189
847.565	23178
847.701	23341
847.837	22908
847.972	22889
848.108	23090
848.244	22927
848.379	22885
848.515	22786
848.65	22774
848.786	22733
848.921	22820
849.057	22828
849.192	22801
849.328	22831
849.463	22687
849.598	22748
849.734	22592
849.869	22634
850.004	22481
850.14	22592
850.275	22577
850.41	22447
850.545	22402
850.68	22481
850.815	22641
850.95	22516
851.085	22755
851.22	22626
851.355	22615
851.49	22481
851.625	22443
851.76	22519
851.895	22478
852.03	22352
852.165	22459
852.299	22466
852.434	22622
852.569	22561
852.703	22500
852.838	22618
852.973	22637
853.107	22615
853.242	22561
853.376	22443
853.511	22185
853.645	22318
853.78	22512
853.914	22322
854.048	22382
854.183	22333
854.317	22337
854.451	22565
854.585	22375
854.72	22356
854.854	22291
854.988	22230
855.122	22318
855.256	22238
855.39	22379
855.524	22466
855.658	22447
855.792	22325
855.926	22371
856.06	22443
856.194	22478
856.327	22310
856.461	22287
856.595	22341
856.729	22413
856.862	22436
856.996	22398
857.13	22341
857.263	22447
857.397	22550
857.53	22303
857.664	22493
857.797	22413
857.931	22462
858.064	22512
858.197	22367
858.331	22356
858.464	22314
858.597	22329
858.731	22329
858.864	22219
858.997	22257
859.13	22455
859.263	22306
859.396	22440
859.529	22352
859.662	22249
859.795	22185
859.928	22405
860.061	22531
860.194	22649
860.327	22466
860.46	22337
860.592	22527
860.725	22531
860.858	22485
860.99	22402
861.123	22306
861.256	22196
861.388	22280
861.521	22961
861.653	22371
861.786	22166
861.918	22253
862.05	22268
862.183	22200
862.315	22341
862.447	22386
862.58	22333
862.712	22097
862.844	21926
862.976	22162
863.108	22078
863.24	22462
863.372	22029
863.504	22051
863.636	21994
863.768	22109
863.9	21968
864.032	21934
864.164	22093
864.296	22082
864.428	22063
864.559	22086
864.691	22070
864.823	22143
864.954	22010
865.086	22044
865.217	22048
865.349	21880
865.48	21918
865.612	21903
865.743	22082
865.875	21991
866.006	21949
866.137	21892
866.269	21873
866.4	21876
866.531	21835
866.662	21880
866.793	21854
866.924	21953
867.055	21972
867.186	21941
867.317	21880
867.448	21743
867.579	21838
867.71	21797
867.841	21770
867.972	21899
868.103	21804
868.233	21918
868.364	21975
868.495	21880
868.625	21953
868.756	22181
868.886	22067
869.017	22215
869.147	22226
869.278	22204
869.408	22078
869.539	22059
869.669	22280
869.799	22143
869.929	22143
870.06	22128
870.19	22440
870.32	22436
870.45	22569
870.58	22421
870.71	22538
870.84	22611
870.97	22531
871.1	22379
871.23	22618
871.36	22584
871.489	22588
871.619	22824
871.749	22679
871.879	22740
872.008	22774
872.138	22645
872.267	22641
872.397	22611
872.526	22580
872.656	22637
872.785	22508
872.915	22687
873.044	22763
873.173	22778
873.303	22778
873.432	22725
873.561	22763
873.69	22744
873.819	22812
873.948	22866
874.077	22736
874.206	22763
874.335	22717
874.464	22919
874.593	22911
874.722	22934
874.851	23200
874.979	23003
875.108	23025
875.237	22938
875.365	22850
875.494	22896
875.623	22889
875.751	22881
875.88	22911
876.008	22934
876.136	23121
876.265	23235
876.393	23478
876.521	23402
876.65	23368
876.778	23467
876.906	23208
877.034	23299
877.162	23124
877.29	23231
877.418	23284
877.546	23258
877.674	23322
877.802	23265
877.93	23299
878.058	23239
878.185	23117
878.313	23212
878.441	23227
878.568	23162
878.696	23220
878.824	23250
878.951	23337
879.079	23539
879.206	23543
879.333	23395
879.461	23322
879.588	23372
879.715	23326
879.842	23509
879.97	23330
880.097	23174
880.224	23052
880.351	23113
880.478	23064
880.605	23124
880.732	23132
880.859	23414
880.986	23105
881.112	23174
881.239	22995
881.366	22862
881.493	22816
881.619	22725
881.746	22649
881.872	22634
881.999	22672
882.125	22577
882.252	22706
882.378	22641
882.505	22630
882.631	22561
882.757	22428
882.883	22470
883.01	22265
883.136	22356
883.262	22226
883.388	22211
883.514	22272
883.64	22413
883.766	22211
883.892	22173
884.018	22169
884.143	22234
884.269	22348
884.395	22093
884.52	22055
884.646	21918
884.772	21899
884.897	21842
885.023	22021
885.148	22135
885.274	22158
885.399	22086
885.524	21937
885.65	21934
885.775	22025
885.9	22044
886.025	22006
886.15	22048
886.275	21880
886.4	21842
886.525	21838
886.65	21785
886.775	21994
886.9	22143
887.025	22196
887.149	21880
887.274	21770
887.399	21663
887.523	21694
887.648	21698
887.773	21641
887.897	21781
888.021	21739
888.146	21610
888.27	21778
888.395	21857
888.519	21759
888.643	21804
888.767	21850
888.891	21545
889.015	21519
889.139	21671
889.263	21477
889.387	21583
889.511	21743
889.635	21656
889.759	21545
889.883	21515
890.006	21450
890.13	21629
890.254	21367
890.377	21450
890.501	21195
890.624	21249
890.748	21313
890.871	21135
890.995	21135
891.118	21077
891.241	21085
891.364	21066
891.488	21287
891.611	21081
891.734	20948
891.857	21112
891.98	21104
892.103	21051
892.226	21112
892.349	20937
892.471	20948
892.594	21039
892.717	21051
892.839	20937
892.962	20941
893.085	21123
893.207	20842
893.33	20979
893.452	20921
893.575	20960
893.697	20960
893.819	21108
893.941	21230
894.064	21116
894.186	20925
894.308	20971
894.43	21093
894.552	21039
894.674	21108
894.796	20952
894.918	20948
895.04	20762
895.161	20937
895.283	20986
895.405	20906
895.526	21047
895.648	20857
895.769	20998
895.891	20914
896.012	21123
896.134	20963
896.255	20967
896.376	20902
896.498	20918
896.619	20967
896.74	20952
896.861	21020
896.982	21161
897.103	21462
897.224	21207
897.345	21199
897.466	21093
897.587	21157
897.708	21226
897.828	21211
897.949	21146
898.07	21093
898.19	21058
898.311	21291
898.431	21218
898.552	21131
898.672	21313
898.792	21195
898.913	21043
899.033	21096
899.153	20921
899.273	20758
899.393	20902
899.513	20853
899.633	21009
899.753	20990
899.873	20887
899.993	20887
900.113	20830
900.232	20982
900.352	20727
900.472	20811
900.591	20526
900.711	20720
900.83	20701
900.95	20773
901.069	20705
901.189	20568
901.308	20313
901.427	20221
901.546	20259
901.665	20351
901.784	20229
901.904	20054
902.023	20054
902.141	19871
902.26	19662
902.379	19803
902.498	19788
902.617	19742
902.735	19731
902.854	19635
902.973	19624
903.091	19392
903.21	19327
903.328	19327
903.446	19228
903.565	19312
903.683	19228
903.801	19065
903.919	19122
904.038	19080
904.156	18928
904.274	18916
904.392	18970
904.51	18962
904.627	18935
904.745	18989
904.863	19008
904.981	18795
905.098	18642
905.216	18616
905.334	18639
905.451	18741
905.569	18593
905.686	18574
905.803	18589
905.921	18433
906.038	18494
906.155	18361
906.272	18311
906.389	18346
906.506	18087
906.623	18129
906.74	18155
906.857	18060
906.974	18064
907.091	18190
907.208	18216
907.324	18201
907.441	18030
907.557	17851
907.674	17927
907.79	17832
907.907	17790
908.023	17847
908.139	17897
908.256	17752
908.372	17699
908.488	17699
908.604	17661
908.72	17474
908.836	17707
908.952	17535
909.068	17577
909.184	17638
909.3	17493
909.415	17516
909.531	17490
909.647	17288
909.762	17193
909.878	17151
909.993	17280
910.108	17288
910.224	17220
910.339	17280
910.454	17056
910.57	17056
910.685	17121
910.8	17208
910.915	17128
911.03	17033
911.145	16927
911.259	16896
911.374	16809
911.489	16790
911.604	16618
911.718	16554
911.833	16615
911.947	16573
912.062	16478
912.176	16637
912.291	16580
912.405	16561
912.519	16771
912.633	16805
912.748	16577
912.862	16485
912.976	16466
913.09	16280
913.204	16356
913.318	16322
913.431	16474
913.545	16497
913.659	16436
913.772	16394
913.886	16238
914	16074
914.113	16268
914.226	16314
914.34	16196
914.453	16150
914.566	16196
914.68	16135
914.793	16048
914.906	15865
915.019	15804
915.132	15641
915.245	15747
915.358	15823
915.47	15755
915.583	15724
915.696	15720
915.809	15785
915.921	15907
916.034	15618
916.146	15641
916.259	15667
916.371	15823
916.483	15641
916.595	15633
916.708	15561
916.82	15538
916.932	15462
917.044	15553
917.156	15397
917.268	15496
917.38	15435
917.491	15344
917.603	15420
917.715	15511
917.826	15443
917.938	15397
918.049	15325
918.161	15329
918.272	15576
918.384	15439
918.495	15279
918.606	15237
918.717	15070
918.828	15245
918.939	15176
919.05	15112
919.161	15119
919.272	14990
919.383	15036
919.494	15154
919.604	15302
919.715	15146
919.826	14986
919.936	15051
920.047	15108
920.157	15047
920.267	15367
920.378	15119
920.488	15055
920.598	15275
920.708	15420
920.818	15272
920.928	15169
921.038	15336
921.148	15325
921.258	14979
921.368	14861
921.477	14861
921.587	14788
921.697	14651
921.806	14796
921.916	14610
922.025	14556
922.134	14389
922.244	14366
922.353	14526
922.462	14267
922.571	14324
922.68	14218
922.789	14119
922.898	14100
923.007	14111
923.116	14149
923.224	13967
923.333	14149
923.442	13928
923.55	13944
923.659	13928
923.767	13902
923.876	13849
923.984	13936
924.092	13887
924.201	13795
924.309	13830
924.417	13818
924.525	13761
924.633	13746
924.741	14480
924.849	13586
924.956	13636
925.064	13578
925.172	13327
925.279	13377
925.387	13502
925.494	13491
925.602	13628
925.709	13487
925.816	13388
925.924	13449
926.031	13582
926.138	13369
926.245	13441
926.352	13343
926.459	13480
926.566	13468
926.673	13240
926.779	13190
926.886	13297
926.993	13095
927.099	13050
927.206	12989
927.312	12966
927.419	13110
927.525	12993
927.631	12985
927.737	12966
927.843	12787
927.95	12760
928.056	12802
928.162	12814
928.267	12897
928.373	13381
928.479	12871
928.585	12684
928.69	12791
928.796	12840
928.901	12623
929.007	12623
929.112	12646
929.218	12688
929.323	12559
929.428	12513
929.533	12730
929.638	12471
929.743	12464
929.848	12570
929.953	12452
930.058	12441
930.163	12239
930.267	12220
930.372	12365
930.477	12239
930.581	12399
930.685	12334
930.79	12041
930.894	12194
930.998	12087
931.103	12175
931.207	11893
931.311	11737
931.415	11718
931.519	11467
931.623	11448
