Data from test_V78500241_2772.txt Node
Date: Fri Mar 25 16:01:00 CST 2022
User: usil
Spectrometer: V785-0024
Trigger mode: 0
Integration Time (sec): 4.000000E-1
Scans to average: 1
Nonlinearity correction enabled: false
Boxcar width: 0
Storing dark spectrum: false
XAxis mode: Wavelengths
Number of Pixels in Spectrum: 1024
>>>>>Begin Spectral Data<<<<<
801.071	29052
801.214	29117
801.356	28778
801.499	28816
801.641	28831
801.783	28607
801.926	28698
802.068	28626
802.211	28615
802.353	28675
802.496	28443
802.638	28447
802.78	28322
802.923	28272
803.065	28265
803.208	28394
803.35	28341
803.492	28668
803.635	28588
803.777	28580
803.919	28630
804.061	28972
804.204	28675
804.346	28645
804.488	28497
804.63	28656
804.773	28634
804.915	28740
805.057	28691
805.199	28664
805.341	28656
805.483	28771
805.626	28740
805.768	28668
805.91	28850
806.052	28911
806.194	28645
806.336	28976
806.478	28812
806.62	28892
806.762	28900
806.904	29166
807.046	29406
807.188	29303
807.33	29429
807.472	29280
807.614	29273
807.756	29113
807.898	29151
808.04	29044
808.182	29162
808.324	29284
808.465	29353
808.607	29398
808.749	29573
808.891	29680
809.033	29653
809.174	29554
809.316	29356
809.458	29596
809.6	29372
809.741	29520
809.883	29665
810.025	29813
810.166	30057
810.308	29866
810.45	29832
810.591	29703
810.733	29577
810.875	29668
811.016	29459
811.158	29493
811.299	29695
811.441	29748
811.582	29691
811.724	29497
811.865	29535
812.007	29524
812.148	29585
812.29	29718
812.431	29786
812.573	29935
812.714	29950
812.855	30159
812.997	30190
813.138	30349
813.279	30220
813.421	30152
813.562	29931
813.703	29942
813.845	29832
813.986	29516
814.127	29474
814.268	29250
814.41	29307
814.551	29220
814.692	29235
814.833	29364
814.974	29254
815.115	29315
815.256	29231
815.397	29018
815.539	29052
815.68	29200
815.821	29041
815.962	29124
816.103	29117
816.244	29064
816.385	29006
816.526	28862
816.666	28755
816.807	28740
816.948	28740
817.089	28767
817.23	28660
817.371	28573
817.512	28592
817.653	28516
817.793	28519
817.934	28596
818.075	28615
818.216	28653
818.356	28531
818.497	28440
818.638	28325
818.778	28356
818.919	28306
819.06	28470
819.2	28497
819.341	28618
819.481	28626
819.622	28767
819.762	29025
819.903	28869
820.043	28915
820.184	28763
820.324	28828
820.465	28843
820.605	28725
820.746	28816
820.886	28557
821.026	28645
821.167	28725
821.307	28793
821.447	28713
821.588	28497
821.728	28466
821.868	28268
822.008	28154
822.149	28139
822.289	27968
822.429	27781
822.569	27869
822.709	27774
822.849	27629
822.99	27770
823.13	27530
823.27	27652
823.41	27485
823.55	27447
823.69	27302
823.83	27504
823.97	27504
824.11	27173
824.25	27165
824.389	27355
824.529	27336
824.669	27439
824.809	27458
824.949	27294
825.089	27374
825.228	27340
825.368	27214
825.508	27233
825.648	27245
825.787	27131
825.927	27218
826.067	26982
826.206	27256
826.346	27184
826.485	27165
826.625	27218
826.765	27256
826.904	27192
827.044	26918
827.183	26857
827.323	26792
827.462	26933
827.601	26800
827.741	26807
827.88	26948
828.02	26880
828.159	26811
828.298	26963
828.437	27066
828.577	26933
828.716	26979
828.855	26804
828.994	26556
829.134	26549
829.273	26526
829.412	26511
829.551	26632
829.69	26469
829.829	26621
829.968	26571
830.107	26651
830.246	26621
830.385	26533
830.524	26438
830.663	26446
830.802	26358
830.941	26161
831.08	26134
831.219	26298
831.357	26278
831.496	26351
831.635	26161
831.774	26088
831.913	25906
832.051	25997
832.19	25951
832.329	26111
832.467	25826
832.606	25871
832.744	25769
832.883	25803
833.022	25784
833.16	25837
833.299	25898
833.437	25868
833.576	26008
833.714	25845
833.852	25974
833.991	26001
834.129	26001
834.267	26062
834.406	25887
834.544	25830
834.682	25868
834.821	25917
834.959	26024
835.097	25902
835.235	25959
835.373	25890
835.511	25993
835.65	25761
835.788	25784
835.926	25590
836.064	25655
836.202	25571
836.34	25772
836.478	25708
836.615	25658
836.753	25689
836.891	25689
837.029	25700
837.167	25571
837.305	25616
837.443	25666
837.58	25476
837.718	25590
837.856	25601
837.993	25403
838.131	25483
838.269	25419
838.406	25400
838.544	25187
838.681	25183
838.819	25190
838.956	25065
839.094	25088
839.231	25088
839.369	25270
839.506	25362
839.643	25297
839.781	25042
839.918	24829
840.055	25095
840.193	25004
840.33	24996
840.467	24939
840.604	24928
840.742	25148
840.879	24833
841.016	24878
841.153	24745
841.29	24947
841.427	24935
841.564	24852
841.701	24920
841.838	24867
841.975	24757
842.112	24848
842.249	24783
842.385	24726
842.522	24856
842.659	24806
842.796	24692
842.933	24726
843.069	24852
843.206	24601
843.343	24776
843.479	24711
843.616	24726
843.752	24433
843.889	24418
844.025	24677
844.162	24311
844.298	24692
844.435	24593
844.571	24365
844.708	24486
844.844	24620
844.98	24566
845.117	24688
845.253	24350
845.389	24285
845.525	24414
845.661	24456
845.798	24114
845.934	24201
846.07	24159
846.206	24281
846.342	24285
846.478	24148
846.614	24022
846.75	23965
846.886	23980
847.022	23779
847.158	23946
847.294	23783
847.429	23912
847.565	23847
847.701	24083
847.837	23672
847.972	23653
848.108	23756
848.244	23665
848.379	23429
848.515	23486
848.65	23273
848.786	23520
848.921	23444
849.057	23611
849.192	23627
849.328	23368
849.463	23581
849.598	23258
849.734	23330
849.869	23330
850.004	23200
850.14	23155
850.275	23303
850.41	23227
850.545	23242
850.68	23204
850.815	23307
850.95	23311
851.085	23501
851.22	23425
851.355	23174
851.49	23277
851.625	23208
851.76	23227
851.895	23185
852.03	23121
852.165	23273
852.299	23330
852.434	23356
852.569	23311
852.703	23204
852.838	23296
852.973	23376
853.107	23288
853.242	23128
853.376	23094
853.511	22961
853.645	23014
853.78	23147
853.914	23105
854.048	23132
854.183	23029
854.317	23140
854.451	23292
854.585	23136
854.72	22946
854.854	23193
854.988	23060
855.122	23128
855.256	23056
855.39	22999
855.524	23166
855.658	23056
855.792	23014
855.926	23056
856.06	22972
856.194	23022
856.327	23029
856.461	23006
856.595	22938
856.729	23071
856.862	23185
856.996	23067
857.13	23033
857.263	23189
857.397	23166
857.53	23033
857.664	23006
857.797	23261
857.931	23231
858.064	23212
858.197	23136
858.331	23079
858.464	22942
858.597	22904
858.731	23052
858.864	23117
858.997	22850
859.13	23102
859.263	23155
859.396	23094
859.529	23071
859.662	22881
859.795	22976
859.928	23086
860.061	23166
860.194	23235
860.327	23098
860.46	23132
860.592	23083
860.725	23124
860.858	23086
860.99	23098
861.123	23014
861.256	23025
861.388	22987
861.521	23733
861.653	23022
861.786	22752
861.918	22877
862.05	22987
862.183	22991
862.315	22961
862.447	23166
862.58	22965
862.712	22721
862.844	22721
862.976	22831
863.108	22889
863.24	23155
863.372	22759
863.504	22824
863.636	22782
863.768	22752
863.9	22839
864.032	22702
864.164	22691
864.296	22759
864.428	22919
864.559	22847
864.691	22828
864.823	22786
864.954	22820
865.086	22717
865.217	22691
865.349	22554
865.48	22588
865.612	22755
865.743	22854
865.875	22698
866.006	22645
866.137	22660
866.269	22679
866.4	22599
866.531	22493
866.662	22599
866.793	22588
866.924	22603
867.055	22694
867.186	22569
867.317	22615
867.448	22516
867.579	22554
867.71	22535
867.841	22421
867.972	22653
868.103	22584
868.233	22611
868.364	22653
868.495	22660
868.625	22816
868.756	22889
868.886	22767
869.017	22854
869.147	22831
869.278	23033
869.408	22809
869.539	22828
869.669	22812
869.799	22839
869.929	22995
870.06	23048
870.19	23147
870.32	23075
870.45	23132
870.58	23193
870.71	23311
870.84	23299
870.97	23227
871.1	23269
871.23	23379
871.36	23368
871.489	23292
871.619	23356
871.749	23417
871.879	23471
872.008	23642
872.138	23383
872.267	23398
872.397	23231
872.526	23376
872.656	23417
872.785	23273
872.915	23467
873.044	23436
873.173	23509
873.303	23539
873.432	23452
873.561	23516
873.69	23433
873.819	23493
873.948	23642
874.077	23471
874.206	23315
874.335	23577
874.464	23596
874.593	23695
874.722	23600
874.851	23680
874.979	23680
875.108	23714
875.237	23509
875.365	23551
875.494	23676
875.623	23790
875.751	23592
875.88	23600
876.008	23786
876.136	23726
876.265	24026
876.393	24174
876.521	24095
876.65	24038
876.778	24068
876.906	23916
877.034	23984
877.162	24041
877.29	23904
877.418	24007
877.546	24064
877.674	23996
877.802	23927
877.93	23996
878.058	23935
878.185	23901
878.313	23878
878.441	23897
878.568	23798
878.696	23897
878.824	24011
878.951	24076
879.079	24129
879.206	24266
879.333	24068
879.461	24060
879.588	24049
879.715	24102
879.842	24304
879.97	23988
880.097	23786
880.224	23657
880.351	23855
880.478	23840
880.605	23790
880.732	23847
880.859	23950
880.986	23684
881.112	23786
881.239	23623
881.366	23520
881.493	23516
881.619	23444
881.746	23433
881.872	23307
881.999	23402
882.125	23387
882.252	23318
882.378	23334
882.505	23509
882.631	23181
882.757	23022
882.883	23060
883.01	23025
883.136	22987
883.262	22930
883.388	22889
883.514	23022
883.64	23083
883.766	22790
883.892	22805
884.018	22748
884.143	22987
884.269	22881
884.395	22759
884.52	22664
884.646	22698
884.772	22637
884.897	22622
885.023	22771
885.148	22702
885.274	22759
885.399	22873
885.524	22637
885.65	22660
885.775	22615
885.9	22596
886.025	22812
886.15	22672
886.275	22569
886.4	22546
886.525	22660
886.65	22577
886.775	22637
886.9	22615
887.025	22984
887.149	22653
887.274	22485
887.399	22519
887.523	22516
887.648	22440
887.773	22272
887.897	22497
888.021	22474
888.146	22341
888.27	22459
888.395	22455
888.519	22432
888.643	22413
888.767	22436
888.891	22371
889.015	22226
889.139	22246
889.263	22181
889.387	22295
889.511	22451
889.635	22223
889.759	22128
889.883	22135
890.006	22173
890.13	22219
890.254	22021
890.377	22059
890.501	22074
890.624	21827
890.748	21983
890.871	21762
890.995	21778
891.118	21641
891.241	21701
891.364	21819
891.488	21873
891.611	21694
891.734	21663
891.857	21819
891.98	21671
892.103	21812
892.226	21705
892.349	21713
892.471	21450
892.594	21580
892.717	21789
892.839	21633
892.962	21679
893.085	21713
893.207	21587
893.33	21462
893.452	21431
893.575	21679
893.697	21587
893.819	21732
893.941	21728
894.064	21656
894.186	21485
894.308	21587
894.43	21656
894.552	21694
894.674	21644
894.796	21485
894.918	21553
895.04	21515
895.161	21629
895.283	21485
895.405	21538
895.526	21545
895.648	21492
895.769	21732
895.891	21511
896.012	21652
896.134	21671
896.255	21637
896.376	21549
896.498	21504
896.619	21637
896.74	21549
896.861	21675
896.982	21759
897.103	22055
897.224	21850
897.345	21861
897.466	21743
897.587	21641
897.708	21781
897.828	21918
897.949	21709
898.07	21591
898.19	21739
898.311	21918
898.431	21660
898.552	21732
898.672	21873
898.792	21800
898.913	21606
899.033	21641
899.153	21511
899.273	21526
899.393	21473
899.513	21629
899.633	21530
899.753	21519
899.873	21454
899.993	21500
900.113	21416
900.232	21416
900.352	21291
900.472	21241
900.591	21150
900.711	21226
900.83	21112
900.95	21313
901.069	21348
901.189	21055
901.308	20887
901.427	20735
901.546	20906
901.665	20781
901.784	20868
901.904	20705
902.023	20480
902.141	20469
902.26	20355
902.379	20400
902.498	20396
902.617	20244
902.735	20438
902.854	20206
902.973	20172
903.091	19993
903.21	20039
903.328	19921
903.446	19906
903.565	19784
903.683	19871
903.801	19628
903.919	19727
904.038	19750
904.156	19472
904.274	19559
904.392	19510
904.51	19460
904.627	19487
904.745	19483
904.863	19674
904.981	19255
905.098	19247
905.216	19152
905.334	19175
905.451	19133
905.569	19110
905.686	19285
905.803	19175
905.921	18897
906.038	18977
906.155	18985
906.272	18954
906.389	18951
906.506	18719
906.623	18802
906.74	18730
906.857	18593
906.974	18604
907.091	18753
907.208	18798
907.324	18772
907.441	18574
907.557	18300
907.674	18369
907.79	18372
907.907	18418
908.023	18536
908.139	18346
908.256	18365
908.372	18319
908.488	18251
908.604	18102
908.72	18129
908.836	18144
908.952	18076
909.068	18102
909.184	18136
909.3	18015
909.415	18182
909.531	18159
909.647	18026
909.762	17920
909.878	17767
909.993	17821
910.108	17695
910.224	17779
910.339	17642
910.454	17741
910.57	17520
910.685	17608
910.8	17760
910.915	17718
911.03	17589
911.145	17425
911.259	17337
911.374	17379
911.489	17398
911.604	17242
911.718	17098
911.833	17098
911.947	17067
912.062	16957
912.176	17041
912.291	17128
912.405	17159
912.519	17269
912.633	17284
912.748	17208
912.862	17052
912.976	16987
913.09	16744
913.204	16877
913.318	16934
913.431	16946
913.545	16957
913.659	17010
913.772	16881
913.886	16675
914	16706
914.113	16793
914.226	16828
914.34	16706
914.453	16603
914.566	16645
914.68	16603
914.793	16497
914.906	16390
915.019	16306
915.132	16124
915.245	16329
915.358	16352
915.47	16299
915.583	16322
915.696	16295
915.809	16394
915.921	16371
916.034	16196
916.146	16147
916.259	16036
916.371	16207
916.483	16116
916.595	16090
916.708	16048
916.82	16002
916.932	16112
917.044	16166
917.156	16017
917.268	15934
917.38	15922
917.491	15846
917.603	15888
917.715	15922
917.826	16071
917.938	15778
918.049	15728
918.161	15800
918.272	15941
918.384	15816
918.495	15797
918.606	15618
918.717	15519
918.828	15587
918.939	15633
919.05	15561
919.161	15667
919.272	15428
919.383	15454
919.494	15564
919.604	15804
919.715	15580
919.826	15466
919.936	15599
920.047	15584
920.157	15515
920.267	15781
920.378	15511
920.488	15530
920.598	15671
920.708	15865
920.818	15751
920.928	15667
921.038	15819
921.148	15705
921.258	15504
921.368	15363
921.477	15313
921.587	15127
921.697	15131
921.806	15313
921.916	15188
922.025	14948
922.134	14906
922.244	14872
922.353	14941
922.462	14693
922.571	14804
922.68	14598
922.789	14522
922.898	14488
923.007	14465
923.116	14625
923.224	14495
923.333	14476
923.442	14366
923.55	14298
923.659	14286
923.767	14461
923.876	14282
923.984	14366
924.092	14237
924.201	14252
924.309	14290
924.417	14153
924.525	14142
924.633	14043
924.741	15093
924.849	14005
924.956	14111
925.064	13890
925.172	13890
925.279	13818
925.387	13913
925.494	13898
925.602	13951
925.709	13875
925.816	13868
925.924	13818
926.031	13887
926.138	13856
926.245	13864
926.352	13674
926.459	13833
926.566	13860
926.673	13753
926.779	13738
926.886	13616
926.993	13556
927.099	13434
927.206	13335
927.312	13445
927.419	13495
927.525	13377
927.631	13468
927.737	13278
927.843	13202
927.95	13183
928.056	13179
928.162	13285
928.267	13350
928.373	13795
928.479	13316
928.585	13076
928.69	13255
928.796	13251
928.901	13046
929.007	12924
929.112	13057
929.218	12966
929.323	12935
929.428	12924
929.533	13080
929.638	12844
929.743	12932
929.848	12977
929.953	12814
930.058	12768
930.163	12639
930.267	12673
930.372	12654
930.477	12608
930.581	12776
930.685	12593
930.79	12414
930.894	12551
930.998	12361
931.103	12677
931.207	12167
931.311	12083
931.415	11996
931.519	11821
931.623	11813
