Data from test_V78500241_1056.txt Node
Date: Fri Mar 25 15:49:06 CST 2022
User: usil
Spectrometer: V785-0024
Trigger mode: 0
Integration Time (sec): 4.000000E-1
Scans to average: 1
Nonlinearity correction enabled: false
Boxcar width: 0
Storing dark spectrum: false
XAxis mode: Wavelengths
Number of Pixels in Spectrum: 1024
>>>>>Begin Spectral Data<<<<<
801.071	28440
801.214	28242
801.356	28051
801.499	27907
801.641	27930
801.783	27797
801.926	27949
802.068	27793
802.211	27781
802.353	27732
802.496	27561
802.638	27519
802.78	27401
802.923	27454
803.065	27359
803.208	27294
803.35	27530
803.492	27534
803.635	27698
803.777	27526
803.919	27724
804.061	28044
804.204	27679
804.346	27732
804.488	27625
804.63	27679
804.773	27580
804.915	27660
805.057	27751
805.199	27679
805.341	27709
805.483	27899
805.626	27831
805.768	27854
805.91	27861
806.052	27861
806.194	27781
806.336	28086
806.478	27922
806.62	27827
806.762	28211
806.904	28055
807.046	28428
807.188	28337
807.33	28272
807.472	28287
807.614	28341
807.756	28272
807.898	28310
808.04	28093
808.182	28112
808.324	28223
808.465	28303
808.607	28436
808.749	28588
808.891	28599
809.033	28634
809.174	28668
809.316	28615
809.458	28382
809.6	28405
809.741	28634
809.883	28725
810.025	28774
810.166	28691
810.308	28957
810.45	28778
810.591	28694
810.733	28599
810.875	28538
811.016	28352
811.158	28424
811.299	28664
811.441	28763
811.582	28672
811.724	28611
811.865	28497
812.007	28615
812.148	28702
812.29	28588
812.431	28771
812.573	28957
812.714	29018
812.855	29181
812.997	29227
813.138	29216
813.279	29303
813.421	29124
813.562	29151
813.703	28835
813.845	28869
813.986	28557
814.127	28462
814.268	28379
814.41	28150
814.551	28204
814.692	28246
814.833	28154
814.974	28265
815.115	28295
815.256	28246
815.397	28158
815.539	28196
815.68	27964
815.821	28074
815.962	28025
816.103	27888
816.244	27937
816.385	27884
816.526	27861
816.666	27747
816.807	27622
816.948	27595
817.089	27679
817.23	27622
817.371	27519
817.512	27583
817.653	27583
817.793	27545
817.934	27599
818.075	27679
818.216	27736
818.356	27610
818.497	27408
818.638	27351
818.778	27329
818.919	27363
819.06	27405
819.2	27439
819.341	27614
819.481	27648
819.622	27701
819.762	28010
819.903	27861
820.043	27720
820.184	27743
820.324	27732
820.465	27812
820.605	27720
820.746	27671
820.886	27713
821.026	27648
821.167	27614
821.307	27743
821.447	27701
821.588	27591
821.728	27348
821.868	27199
822.008	27112
822.149	27135
822.289	27081
822.429	26796
822.569	26830
822.709	26746
822.849	26621
822.99	26568
823.13	26533
823.27	26571
823.41	26545
823.55	26119
823.69	26533
823.83	26438
823.97	26381
824.11	26237
824.25	26263
824.389	26168
824.529	26377
824.669	26168
824.809	26355
824.949	26313
825.089	26320
825.228	26267
825.368	26092
825.508	26187
825.648	26130
825.787	26107
825.927	26107
826.067	26058
826.206	26172
826.346	26183
826.485	26149
826.625	26115
826.765	26206
826.904	26084
827.044	25856
827.183	25765
827.323	25822
827.462	25784
827.601	26065
827.741	25898
827.88	26012
828.02	25704
828.159	25670
828.298	25852
828.437	25925
828.577	25799
828.716	25951
828.855	25693
828.994	25601
829.134	25552
829.273	25510
829.412	25441
829.551	25388
829.69	25495
829.829	25594
829.968	25499
830.107	25533
830.246	25434
830.385	25388
830.524	25400
830.663	25236
830.802	25244
830.941	25114
831.08	25050
831.219	25232
831.357	25228
831.496	25487
831.635	25103
831.774	24989
831.913	24966
832.051	24916
832.19	24973
832.329	24970
832.467	24882
832.606	24825
832.744	24791
832.883	24825
833.022	24749
833.16	24882
833.299	24947
833.437	24970
833.576	24844
833.714	24901
833.852	24802
833.991	24852
834.129	24954
834.267	25012
834.406	24913
834.544	24909
834.682	24882
834.821	24791
834.959	25000
835.097	24817
835.235	24977
835.373	24829
835.511	24947
835.65	24730
835.788	24734
835.926	24604
836.064	24460
836.202	24570
836.34	24749
836.478	24715
836.615	24578
836.753	24684
836.891	24730
837.029	24730
837.167	24639
837.305	24452
837.443	24544
837.58	24532
837.718	24665
837.856	24464
837.993	24631
838.131	24585
838.269	24426
838.406	24369
838.544	24315
838.681	24110
838.819	24068
838.956	24049
839.094	23988
839.231	23992
839.369	24182
839.506	24323
839.643	24194
839.781	23992
839.918	24018
840.055	24026
840.193	24174
840.33	23885
840.467	23999
840.604	24060
840.742	24167
840.879	23809
841.016	23775
841.153	23771
841.29	23965
841.427	23767
841.564	23927
841.701	23904
841.838	23885
841.975	23824
842.112	23828
842.249	23733
842.385	23646
842.522	23901
842.659	23809
842.796	23581
842.933	23623
843.069	23543
843.206	23592
843.343	23695
843.479	23657
843.616	23604
843.752	23379
843.889	23440
844.025	23531
844.162	23299
844.298	23490
844.435	23395
844.571	23440
844.708	23406
844.844	23657
844.98	23562
845.117	23581
845.253	23288
845.389	23322
845.525	23356
845.661	23159
845.798	23147
845.934	23242
846.07	23128
846.206	23227
846.342	23246
846.478	23064
846.614	22911
846.75	22854
846.886	22847
847.022	22934
847.158	22873
847.294	22812
847.429	23029
847.565	22843
847.701	23056
847.837	22733
847.972	22611
848.108	22653
848.244	22634
848.379	22428
848.515	22531
848.65	22592
848.786	22557
848.921	22512
849.057	22611
849.192	22516
849.328	22504
849.463	22447
849.598	22432
849.734	22382
849.869	22363
850.004	22314
850.14	22192
850.275	22314
850.41	22238
850.545	22310
850.68	22242
850.815	22272
850.95	22242
851.085	22413
851.22	22409
851.355	22284
851.49	22109
851.625	22120
851.76	22287
851.895	22040
852.03	22192
852.165	22204
852.299	22398
852.434	22238
852.569	22291
852.703	22261
852.838	22303
852.973	22314
853.107	22360
853.242	22181
853.376	22154
853.511	21968
853.645	21956
853.78	22177
853.914	22280
854.048	22051
854.183	21899
854.317	22044
854.451	22238
854.585	22105
854.72	21991
854.854	22112
854.988	21987
855.122	22044
855.256	21888
855.39	22067
855.524	22128
855.658	22063
855.792	22169
855.926	22124
856.06	22166
856.194	22162
856.327	22017
856.461	22010
856.595	22040
856.729	22067
856.862	22207
856.996	22177
857.13	22143
857.263	22131
857.397	22112
857.53	22109
857.664	22097
857.797	22086
857.931	22166
858.064	22112
858.197	22192
858.331	22185
858.464	21934
858.597	21903
858.731	22040
858.864	22093
858.997	22029
859.13	22105
859.263	22002
859.396	22166
859.529	21850
859.662	21983
859.795	22025
859.928	22116
860.061	22124
860.194	22337
860.327	22204
860.46	22078
860.592	22242
860.725	22265
860.858	22219
860.99	22120
861.123	22013
861.256	21915
861.388	22177
861.521	22664
861.653	21911
861.786	21846
861.918	21854
862.05	21941
862.183	21918
862.315	21991
862.447	21998
862.58	22032
862.712	21823
862.844	21766
862.976	21816
863.108	21827
863.24	22181
863.372	21751
863.504	21797
863.636	21846
863.768	21789
863.9	21869
864.032	21667
864.164	21739
864.296	21850
864.428	21755
864.559	21842
864.691	21876
864.823	21789
864.954	21797
865.086	21827
865.217	21686
865.349	21686
865.48	21675
865.612	21679
865.743	21743
865.875	21641
866.006	21625
866.137	21660
866.269	21709
866.4	21671
866.531	21625
866.662	21469
866.793	21637
866.924	21416
867.055	21504
867.186	21534
867.317	21534
867.448	21576
867.579	21500
867.71	21504
867.841	21435
867.972	21644
868.103	21496
868.233	21583
868.364	21557
868.495	21667
868.625	21854
868.756	22025
868.886	21736
869.017	21888
869.147	21835
869.278	21850
869.408	21857
869.539	21781
869.669	21983
869.799	21968
869.929	21865
870.06	21869
870.19	22166
870.32	22112
870.45	21956
870.58	22166
870.71	22386
870.84	22318
870.97	22150
871.1	22192
871.23	22409
871.36	22287
871.489	22299
871.619	22432
871.749	22459
871.879	22382
872.008	22394
872.138	22341
872.267	22363
872.397	22272
872.526	22154
872.656	22143
872.785	22196
872.915	22489
873.044	22497
873.173	22382
873.303	22478
873.432	22656
873.561	22424
873.69	22405
873.819	22337
873.948	22470
874.077	22440
874.206	22348
874.335	22527
874.464	22557
874.593	22596
874.722	22580
874.851	22683
874.979	22660
875.108	22691
875.237	22580
875.365	22436
875.494	22580
875.623	22717
875.751	22672
875.88	22626
876.008	22911
876.136	22889
876.265	22991
876.393	23159
876.521	23147
876.65	23181
876.778	22923
876.906	22972
877.034	23060
877.162	22987
877.29	22892
877.418	22744
877.546	22923
877.674	22930
877.802	23067
877.93	22957
878.058	22934
878.185	22866
878.313	22976
878.441	22953
878.568	22752
878.696	22908
878.824	22900
878.951	23136
879.079	23185
879.206	23284
879.333	23113
879.461	22984
879.588	23083
879.715	23170
879.842	23303
879.97	23064
880.097	22850
880.224	22858
880.351	22850
880.478	22820
880.605	22748
880.732	22771
880.859	22934
880.986	22812
881.112	22869
881.239	22660
881.366	22584
881.493	22538
881.619	22440
881.746	22451
881.872	22352
881.999	22382
882.125	22306
882.252	22299
882.378	22272
882.505	22413
882.631	22238
882.757	21998
882.883	22112
883.01	22063
883.136	21987
883.262	21884
883.388	22013
883.514	21987
883.64	22093
883.766	21880
883.892	21861
884.018	21869
884.143	21918
884.269	22010
884.395	21743
884.52	21614
884.646	21747
884.772	21564
884.897	21496
885.023	21701
885.148	21690
885.274	21743
885.399	21698
885.524	21701
885.65	21838
885.775	21694
885.9	21564
886.025	21789
886.15	21831
886.275	21698
886.4	21519
886.525	21637
886.65	21591
886.775	21511
886.9	21781
887.025	21865
887.149	21572
887.274	21526
887.399	21412
887.523	21454
887.648	21408
887.773	21355
887.897	21511
888.021	21507
888.146	21420
888.27	21580
888.395	21500
888.519	21519
888.643	21496
888.767	21469
888.891	21374
889.015	21161
889.139	21180
889.263	21184
889.387	21428
889.511	21485
889.635	21397
889.759	21256
889.883	21233
890.006	21214
890.13	21321
890.254	21150
890.377	21249
890.501	20994
890.624	21039
890.748	21005
890.871	20769
890.995	20743
891.118	20701
891.241	20781
891.364	20792
891.488	20982
891.611	20861
891.734	20800
891.857	20883
891.98	20838
892.103	20876
892.226	20689
892.349	20682
892.471	20594
892.594	20716
892.717	20796
892.839	20724
892.962	20788
893.085	20819
893.207	20746
893.33	20609
893.452	20617
893.575	20686
893.697	20663
893.819	20853
893.941	20899
894.064	20921
894.186	20655
894.308	20594
894.43	20792
894.552	20777
894.674	20769
894.796	20609
894.918	20606
895.04	20625
895.161	20746
895.283	20716
895.405	20583
895.526	20629
895.648	20648
895.769	20640
895.891	20598
896.012	20834
896.134	20644
896.255	20670
896.376	20781
896.498	20682
896.619	20632
896.74	20727
896.861	20765
896.982	20986
897.103	21131
897.224	20937
897.345	20861
897.466	20887
897.587	20895
897.708	20921
897.828	20899
897.949	20880
898.07	20727
898.19	20739
898.311	20918
898.431	20823
898.552	20796
898.672	20963
898.792	21024
898.913	20998
899.033	20819
899.153	20762
899.273	20526
899.393	20632
899.513	20655
899.633	20583
899.753	20667
899.873	20545
899.993	20708
900.113	20609
900.232	20552
900.352	20507
900.472	20400
900.591	20313
900.711	20442
900.83	20339
900.95	20503
901.069	20370
901.189	20282
901.308	20092
901.427	20054
901.546	20100
901.665	19936
901.784	20020
901.904	19799
902.023	19750
902.141	19487
902.26	19434
902.379	19472
902.498	19407
902.617	19445
902.735	19487
902.854	19407
902.973	19297
903.091	19072
903.21	19183
903.328	19145
903.446	19023
903.565	18924
903.683	18932
903.801	18798
903.919	18901
904.038	18840
904.156	18757
904.274	18806
904.392	18795
904.51	18681
904.627	18658
904.745	18730
904.863	18722
904.981	18574
905.098	18380
905.216	18437
905.334	18418
905.451	18403
905.569	18281
905.686	18467
905.803	18429
905.921	18148
906.038	18152
906.155	18133
906.272	18144
906.389	18117
906.506	17942
906.623	17912
906.74	17920
906.857	17794
906.974	17908
907.091	17904
907.208	17946
907.324	17946
907.441	17760
907.557	17760
907.674	17687
907.79	17570
907.907	17558
908.023	17535
908.139	17558
908.256	17539
908.372	17433
908.488	17433
908.604	17459
908.72	17379
908.836	17414
908.952	17265
909.068	17402
909.184	17417
909.3	17364
909.415	17425
909.531	17318
909.647	17143
909.762	17052
909.878	17018
909.993	17056
910.108	17037
910.224	17033
910.339	16999
910.454	16949
910.57	16839
910.685	16809
910.8	17045
910.915	16946
911.03	16850
911.145	16653
911.259	16565
911.374	16694
911.489	16626
911.604	16531
911.718	16409
911.833	16451
911.947	16261
912.062	16287
912.176	16409
912.291	16462
912.405	16348
912.519	16519
912.633	16466
912.748	16371
912.862	16318
912.976	16181
913.09	16067
913.204	16071
913.318	16207
913.431	16200
913.545	16223
913.659	16169
913.772	16112
913.886	16002
914	15876
914.113	16135
914.226	16143
914.34	16101
914.453	15850
914.566	15987
914.68	15975
914.793	15869
914.906	15610
915.019	15568
915.132	15542
915.245	15606
915.358	15504
915.47	15656
915.583	15545
915.696	15545
915.809	15576
915.921	15682
916.034	15496
916.146	15382
916.259	15378
916.371	15553
916.483	15496
916.595	15447
916.708	15386
916.82	15401
916.932	15329
917.044	15340
917.156	15317
917.268	15199
917.38	15157
917.491	15199
917.603	15218
917.715	15313
917.826	15230
917.938	15199
918.049	15104
918.161	15150
918.272	15272
918.384	15237
918.495	15097
918.606	14986
918.717	14868
918.828	14937
918.939	14975
919.05	14899
919.161	14971
919.272	14804
919.383	14815
919.494	14986
919.604	15195
919.715	15009
919.826	14800
919.936	14826
920.047	14960
920.157	14933
920.267	15066
920.378	14921
920.488	14925
920.598	15108
920.708	15108
920.818	15047
920.928	14948
921.038	15135
921.148	15207
921.258	14823
921.368	14705
921.477	14629
921.587	14617
921.697	14503
921.806	14629
921.916	14476
922.025	14347
922.134	14252
922.244	14210
922.353	14301
922.462	14191
922.571	14145
922.68	13887
922.789	13951
922.898	13883
923.007	13807
923.116	14005
923.224	14035
923.333	13803
923.442	13753
923.55	13658
923.659	13769
923.767	13784
923.876	13704
923.984	13734
924.092	13620
924.201	13639
924.309	13597
924.417	13624
924.525	13605
924.633	13575
924.741	14370
924.849	13335
924.956	13460
925.064	13434
925.172	13240
925.279	13285
925.387	13339
925.494	13247
925.602	13327
925.709	13377
925.816	13149
925.924	13206
926.031	13373
926.138	13324
926.245	13217
926.352	13114
926.459	13228
926.566	13282
926.673	13126
926.779	13012
926.886	12996
926.993	12894
927.099	12878
927.206	12814
927.312	12810
927.419	12954
927.525	12757
927.631	12882
927.737	12856
927.843	12635
927.95	12631
928.056	12635
928.162	12642
928.267	12764
928.373	13190
928.479	12738
928.585	12471
928.69	12642
928.796	12703
928.901	12513
929.007	12407
929.112	12566
929.218	12563
929.323	12407
929.428	12391
929.533	12570
929.638	12300
929.743	12251
929.848	12426
929.953	12376
930.058	12228
930.163	12053
930.267	12144
930.372	12205
930.477	12041
930.581	12232
930.685	12095
930.79	11897
930.894	12041
930.998	11893
931.103	11946
931.207	11688
931.311	11615
931.415	11551
931.519	11330
931.623	11303
