Data from test_V78500241_210.txt Node
Date: Fri Mar 25 15:43:15 CST 2022
User: usil
Spectrometer: V785-0024
Trigger mode: 0
Integration Time (sec): 4.000000E-1
Scans to average: 1
Nonlinearity correction enabled: false
Boxcar width: 0
Storing dark spectrum: false
XAxis mode: Wavelengths
Number of Pixels in Spectrum: 1024
>>>>>Begin Spectral Data<<<<<
801.071	29813
801.214	29668
801.356	29474
801.499	29425
801.641	29375
801.783	29284
801.926	29421
802.068	29174
802.211	29132
802.353	29128
802.496	28995
802.638	28949
802.78	29075
802.923	28946
803.065	28888
803.208	28930
803.35	28953
803.492	28927
803.635	29147
803.777	28923
803.919	29064
804.061	29425
804.204	29143
804.346	28949
804.488	29003
804.63	28923
804.773	28809
804.915	29052
805.057	29189
805.199	29014
805.341	29075
805.483	29128
805.626	28999
805.768	29033
805.91	29189
806.052	29292
806.194	29113
806.336	29364
806.478	29006
806.62	29265
806.762	29337
806.904	29421
807.046	29531
807.188	29615
807.33	29490
807.472	29646
807.614	29425
807.756	29433
807.898	29292
808.04	29444
808.182	29311
808.324	29254
808.465	29284
808.607	29642
808.749	29726
808.891	29703
809.033	29954
809.174	29790
809.316	29748
809.458	29657
809.6	29741
809.741	29798
809.883	29779
810.025	29931
810.166	29992
810.308	30057
810.45	30053
810.591	29992
810.733	29859
810.875	29661
811.016	29661
811.158	29722
811.299	29843
811.441	29984
811.582	30007
811.724	29562
811.865	29714
812.007	29615
812.148	29596
812.29	29726
812.431	29798
812.573	30049
812.714	30133
812.855	30148
812.997	30159
813.138	30315
813.279	30369
813.421	30167
813.562	30186
813.703	29999
813.845	30003
813.986	29566
814.127	29296
814.268	29379
814.41	29349
814.551	29315
814.692	29345
814.833	29299
814.974	29398
815.115	29356
815.256	29178
815.397	29147
815.539	29010
815.68	29064
815.821	29079
815.962	29075
816.103	29044
816.244	28999
816.385	28767
816.526	28824
816.666	28607
816.807	28557
816.948	28584
817.089	28577
817.23	28554
817.371	28493
817.512	28451
817.653	28493
817.793	28535
817.934	28436
818.075	28485
818.216	28565
818.356	28226
818.497	28352
818.638	28310
818.778	28135
818.919	28143
819.06	28154
819.2	28291
819.341	28466
819.481	28493
819.622	28592
819.762	28881
819.903	28573
820.043	28432
820.184	28694
820.324	28451
820.465	28622
820.605	28546
820.746	28755
820.886	28421
821.026	28516
821.167	28481
821.307	28668
821.447	28375
821.588	28360
821.728	28223
821.868	27987
822.008	27941
822.149	27793
822.289	27823
822.429	27648
822.569	27488
822.709	27580
822.849	27336
822.99	27268
823.13	27245
823.27	27275
823.41	27028
823.55	26986
823.69	27093
823.83	27135
823.97	26929
824.11	26929
824.25	26891
824.389	26910
824.529	27058
824.669	27051
824.809	27116
824.949	26895
825.089	27009
825.228	27070
825.368	26712
825.508	26758
825.648	26853
825.787	26845
825.927	26834
826.067	26777
826.206	26705
826.346	26788
826.485	26830
826.625	26769
826.765	26796
826.904	26716
827.044	26522
827.183	26541
827.323	26351
827.462	26537
827.601	26457
827.741	26358
827.88	26492
828.02	26453
828.159	26381
828.298	26408
828.437	26385
828.577	26408
828.716	26526
828.855	26355
828.994	26130
829.134	26046
829.273	26062
829.412	26008
829.551	26035
829.69	26039
829.829	26103
829.968	26187
830.107	26240
830.246	26050
830.385	26084
830.524	25963
830.663	25700
830.802	25772
830.941	25677
831.08	25540
831.219	25772
831.357	25731
831.496	25742
831.635	25616
831.774	25525
831.913	25476
832.051	25510
832.19	25373
832.329	25377
832.467	25247
832.606	25206
832.744	25225
832.883	25301
833.022	25266
833.16	25407
833.299	25327
833.437	25152
833.576	25266
833.714	25289
833.852	25365
833.991	25411
834.129	25266
834.267	25316
834.406	25206
834.544	25392
834.682	25244
834.821	25316
834.959	25407
835.097	25190
835.235	25297
835.373	25297
835.511	25129
835.65	25084
835.788	25091
835.926	25061
836.064	24951
836.202	24996
836.34	24985
836.478	25152
836.615	25080
836.753	25053
836.891	25194
837.029	25053
837.167	25236
837.305	25126
837.443	24882
837.58	24871
837.718	25034
837.856	24962
837.993	24916
838.131	24958
838.269	24795
838.406	24806
838.544	24646
838.681	24517
838.819	24475
838.956	24296
839.094	24327
839.231	24422
839.369	24452
839.506	24665
839.643	24486
839.781	24330
839.918	24243
840.055	24437
840.193	24323
840.33	24174
840.467	24308
840.604	24194
840.742	24372
840.879	24034
841.016	24163
841.153	24083
841.29	24285
841.427	24167
841.564	24220
841.701	24201
841.838	24197
841.975	24098
842.112	24178
842.249	23973
842.385	23927
842.522	24167
842.659	23973
842.796	23870
842.933	23965
843.069	23912
843.206	23874
843.343	24022
843.479	23946
843.616	23969
843.752	23737
843.889	23547
844.025	23741
844.162	23699
844.298	23718
844.435	23573
844.571	23638
844.708	23611
844.844	23668
844.98	23748
845.117	23805
845.253	23505
845.389	23562
845.525	23558
845.661	23455
845.798	23326
845.934	23345
846.07	23212
846.206	23288
846.342	23387
846.478	23296
846.614	23185
846.75	23018
846.886	22911
847.022	23102
847.158	22987
847.294	23029
847.429	23014
847.565	22976
847.701	23235
847.837	22668
847.972	22736
848.108	22919
848.244	22873
848.379	22687
848.515	22569
848.65	22504
848.786	22554
848.921	22508
849.057	22660
849.192	22713
849.328	22668
849.463	22691
849.598	22622
849.734	22550
849.869	22417
850.004	22371
850.14	22344
850.275	22390
850.41	22226
850.545	22192
850.68	22284
850.815	22306
850.95	22306
851.085	22417
851.22	22470
851.355	22314
851.49	22257
851.625	22257
851.76	22386
851.895	22265
852.03	22215
852.165	22344
852.299	22299
852.434	22428
852.569	22367
852.703	22405
852.838	22390
852.973	22394
853.107	22386
853.242	22238
853.376	22268
853.511	21994
853.645	22166
853.78	22207
853.914	22207
854.048	22070
854.183	22150
854.317	22234
854.451	22295
854.585	22185
854.72	22166
854.854	22131
854.988	22040
855.122	22181
855.256	22029
855.39	22280
855.524	22143
855.658	22067
855.792	22055
855.926	22109
856.06	22143
856.194	22162
856.327	22192
856.461	22078
856.595	22010
856.729	22124
856.862	22272
856.996	22135
857.13	22181
857.263	22105
857.397	22162
857.53	22040
857.664	22188
857.797	22188
857.931	22196
858.064	22131
858.197	22253
858.331	22139
858.464	22105
858.597	21930
858.731	22143
858.864	21998
858.997	22059
859.13	22036
859.263	22139
859.396	22109
859.529	21998
859.662	21956
859.795	21983
859.928	21922
860.061	22234
860.194	22261
860.327	22101
860.46	22131
860.592	22196
860.725	22268
860.858	22090
860.99	22150
861.123	21991
861.256	21987
861.388	22143
861.521	22698
861.653	21956
861.786	21869
861.918	21918
862.05	21994
862.183	22013
862.315	22070
862.447	22112
862.58	22200
862.712	21759
862.844	21724
862.976	21789
863.108	21854
863.24	22051
863.372	21671
863.504	21774
863.636	21808
863.768	21873
863.9	21865
864.032	21637
864.164	21709
864.296	21755
864.428	21816
864.559	21679
864.691	21945
864.823	21751
864.954	21759
865.086	21686
865.217	21656
865.349	21587
865.48	21686
865.612	21705
865.743	21660
865.875	21686
866.006	21553
866.137	21606
866.269	21675
866.4	21709
866.531	21610
866.662	21515
866.793	21591
866.924	21595
867.055	21553
867.186	21587
867.317	21622
867.448	21485
867.579	21458
867.71	21466
867.841	21530
867.972	21542
868.103	21599
868.233	21564
868.364	21496
868.495	21606
868.625	21686
868.756	21800
868.886	21724
869.017	21751
869.147	21892
869.278	21880
869.408	21857
869.539	21892
869.669	21941
869.799	21816
869.929	21876
870.06	21903
870.19	22074
870.32	22059
870.45	22215
870.58	22344
870.71	22242
870.84	22306
870.97	22276
871.1	22063
871.23	22303
871.36	22268
871.489	22112
871.619	22352
871.749	22329
871.879	22550
872.008	22436
872.138	22386
872.267	22542
872.397	22253
872.526	22135
872.656	22238
872.785	22249
872.915	22493
873.044	22519
873.173	22459
873.303	22527
873.432	22432
873.561	22504
873.69	22329
873.819	22371
873.948	22386
874.077	22436
874.206	22341
874.335	22303
874.464	22504
874.593	22607
874.722	22626
874.851	22504
874.979	22679
875.108	22675
875.237	22588
875.365	22527
875.494	22470
875.623	22763
875.751	22679
875.88	22584
876.008	22877
876.136	22786
876.265	23025
876.393	23208
876.521	23155
876.65	23105
876.778	22961
876.906	22984
877.034	22889
877.162	23025
877.29	22835
877.418	22987
877.546	23033
877.674	23006
877.802	23018
877.93	22850
878.058	22877
878.185	22900
878.313	22919
878.441	23010
878.568	22881
878.696	22881
878.824	23037
878.951	23060
879.079	23071
879.206	23189
879.333	23193
879.461	22965
879.588	23071
879.715	23079
879.842	23189
879.97	22980
880.097	22759
880.224	22847
880.351	22816
880.478	22778
880.605	22702
880.732	22812
880.859	22968
880.986	22801
881.112	22774
881.239	22801
881.366	22500
881.493	22516
881.619	22421
881.746	22413
881.872	22394
881.999	22192
882.125	22318
882.252	22371
882.378	22360
882.505	22443
882.631	22215
882.757	22063
882.883	22200
883.01	22265
883.136	21911
883.262	21854
883.388	21953
883.514	22124
883.64	22002
883.766	21922
883.892	21895
884.018	21941
884.143	21987
884.269	22067
884.395	21823
884.52	21774
884.646	21736
884.772	21641
884.897	21599
885.023	21690
885.148	21770
885.274	21827
885.399	21838
885.524	21728
885.65	21694
885.775	21641
885.9	21549
886.025	21827
886.15	21690
886.275	21595
886.4	21477
886.525	21618
886.65	21583
886.775	21633
886.9	21747
887.025	21766
887.149	21625
887.274	21466
887.399	21397
887.523	21443
887.648	21382
887.773	21340
887.897	21564
888.021	21424
888.146	21389
888.27	21530
888.395	21488
888.519	21462
888.643	21386
888.767	21485
888.891	21291
889.015	21207
889.139	21260
889.263	21066
889.387	21272
889.511	21447
889.635	21310
889.759	21104
889.883	21230
890.006	21112
890.13	21275
890.254	21085
890.377	21150
890.501	20887
890.624	20861
890.748	20986
890.871	20887
890.995	20716
891.118	20701
891.241	20876
891.364	20720
891.488	20876
891.611	20826
891.734	20777
891.857	20739
891.98	20686
892.103	20872
892.226	20769
892.349	20659
892.471	20514
892.594	20746
892.717	20762
892.839	20613
892.962	20743
893.085	20746
893.207	20598
893.33	20454
893.452	20629
893.575	20560
893.697	20640
893.819	20769
893.941	20971
894.064	20765
894.186	20579
894.308	20571
894.43	20689
894.552	20864
894.674	20811
894.796	20457
894.918	20640
895.04	20705
895.161	20758
895.283	20670
895.405	20552
895.526	20758
895.648	20530
895.769	20651
895.891	20750
896.012	20720
896.134	20807
896.255	20575
896.376	20735
896.498	20632
896.619	20663
896.74	20720
896.861	20750
896.982	21119
897.103	21123
897.224	20921
897.345	20868
897.466	20765
897.587	20876
897.708	21077
897.828	20838
897.949	20807
898.07	20762
898.19	20762
898.311	20925
898.431	20781
898.552	20834
898.672	20933
898.792	20785
898.913	20868
899.033	20773
899.153	20598
899.273	20564
899.393	20533
899.513	20579
899.633	20560
899.753	20526
899.873	20465
899.993	20484
900.113	20457
900.232	20541
900.352	20465
900.472	20454
900.591	20290
900.711	20351
900.83	20358
900.95	20393
901.069	20332
901.189	20168
901.308	20084
901.427	19921
901.546	19906
901.665	19860
901.784	19875
901.904	19791
902.023	19590
902.141	19518
902.26	19487
902.379	19556
902.498	19350
902.617	19411
902.735	19426
902.854	19346
902.973	19301
903.091	19069
903.21	19103
903.328	19133
903.446	18958
903.565	18951
903.683	18852
903.801	18715
903.919	18783
904.038	18787
904.156	18677
904.274	18700
904.392	18502
904.51	18589
904.627	18536
904.745	18582
904.863	18585
904.981	18467
905.098	18308
905.216	18247
905.334	18197
905.451	18342
905.569	18239
905.686	18380
905.803	18327
905.921	18095
906.038	18159
906.155	18102
906.272	18060
906.389	17996
906.506	17813
906.623	17771
906.74	17665
906.857	17684
906.974	17668
907.091	17882
907.208	17889
907.324	17843
907.441	17619
907.557	17417
907.674	17490
907.79	17448
907.907	17433
908.023	17486
908.139	17444
908.256	17341
908.372	17429
908.488	17402
908.604	17235
908.72	17132
908.836	17208
908.952	17170
909.068	17083
909.184	17185
909.3	17102
909.415	17151
909.531	17128
909.647	16934
909.762	16839
909.878	16881
909.993	16949
910.108	16820
910.224	16904
910.339	16828
910.454	16793
910.57	16679
910.685	16626
910.8	16885
910.915	16774
911.03	16664
911.145	16466
911.259	16443
911.374	16504
911.489	16402
911.604	16379
911.718	16200
911.833	16204
911.947	16097
912.062	16162
912.176	16226
912.291	16200
912.405	16013
912.519	16356
912.633	16337
912.748	16154
912.862	16230
912.976	15934
913.09	15880
913.204	15949
913.318	16010
913.431	16040
913.545	15968
913.659	16071
913.772	15842
913.886	15808
914	15793
914.113	15991
914.226	15739
914.34	15774
914.453	15736
914.566	15739
914.68	15682
914.793	15568
914.906	15382
915.019	15359
915.132	15310
915.245	15325
915.358	15458
915.47	15397
915.583	15359
915.696	15336
915.809	15485
915.921	15545
916.034	15306
916.146	15222
916.259	15298
916.371	15275
916.483	15268
916.595	15180
916.708	15222
916.82	15207
916.932	15207
917.044	15127
917.156	15058
917.268	15047
917.38	15039
917.491	14963
917.603	15043
917.715	15108
917.826	15074
917.938	14933
918.049	14781
918.161	14937
918.272	15066
918.384	15058
918.495	14933
918.606	14800
918.717	14655
918.828	14769
918.939	14788
919.05	14701
919.161	14689
919.272	14533
919.383	14564
919.494	14743
919.604	14895
919.715	14678
919.826	14632
919.936	14640
920.047	14712
920.157	14606
920.267	14830
920.378	14743
920.488	14640
920.598	14849
920.708	14960
920.818	14902
920.928	14819
921.038	14914
921.148	14975
921.258	14571
921.368	14511
921.477	14332
921.587	14370
921.697	14278
921.806	14454
921.916	14202
922.025	14100
922.134	14073
922.244	14054
922.353	14020
922.462	13997
922.571	13738
922.68	13715
922.789	13677
922.898	13723
923.007	13571
923.116	13700
923.224	13609
923.333	13632
923.442	13502
923.55	13430
923.659	13559
923.767	13491
923.876	13430
923.984	13514
924.092	13312
924.201	13457
924.309	13358
924.417	13358
924.525	13430
924.633	13407
924.741	14168
924.849	13095
924.956	13240
925.064	13152
925.172	13084
925.279	13015
925.387	13110
925.494	13053
925.602	13137
925.709	13095
925.816	12947
925.924	13019
926.031	13164
926.138	12970
926.245	13038
926.352	12867
926.459	12996
926.566	13152
926.673	12924
926.779	12867
926.886	12814
926.993	12681
927.099	12574
927.206	12604
927.312	12559
927.419	12738
927.525	12635
927.631	12585
927.737	12551
927.843	12418
927.95	12376
928.056	12460
928.162	12399
928.267	12540
928.373	13129
928.479	12506
928.585	12300
928.69	12418
928.796	12361
928.901	12342
929.007	12144
929.112	12258
929.218	12289
929.323	12186
929.428	12125
929.533	12342
929.638	12057
929.743	12148
929.848	12076
929.953	12140
930.058	12041
930.163	11897
930.267	11897
930.372	11965
930.477	11824
930.581	12030
930.685	11824
930.79	11722
930.894	11699
930.998	11809
931.103	11794
931.207	11467
931.311	11360
931.415	11360
931.519	11155
931.623	11090
