Data from test_V78500241_2120.txt Node
Date: Fri Mar 25 15:56:29 CST 2022
User: usil
Spectrometer: V785-0024
Trigger mode: 0
Integration Time (sec): 4.000000E-1
Scans to average: 1
Nonlinearity correction enabled: false
Boxcar width: 0
Storing dark spectrum: false
XAxis mode: Wavelengths
Number of Pixels in Spectrum: 1024
>>>>>Begin Spectral Data<<<<<
801.071	29041
801.214	28957
801.356	28790
801.499	28694
801.641	28649
801.783	28660
801.926	28649
802.068	28740
802.211	28538
802.353	28550
802.496	28284
802.638	28284
802.78	28230
802.923	28291
803.065	28268
803.208	28211
803.35	28413
803.492	28440
803.635	28523
803.777	28363
803.919	28630
804.061	29064
804.204	28588
804.346	28561
804.488	28523
804.63	28519
804.773	28546
804.915	28626
805.057	28881
805.199	28664
805.341	28645
805.483	28835
805.626	28702
805.768	28630
805.91	28767
806.052	28801
806.194	28710
806.336	28847
806.478	28664
806.62	28771
806.762	28915
806.904	28980
807.046	29178
807.188	29136
807.33	29117
807.472	29296
807.614	29181
807.756	29178
807.898	29086
808.04	29102
808.182	29121
808.324	29083
808.465	29261
808.607	29231
808.749	29482
808.891	29444
809.033	29566
809.174	29516
809.316	29417
809.458	29531
809.6	29379
809.741	29577
809.883	29638
810.025	29771
810.166	29756
810.308	29661
810.45	29718
810.591	29684
810.733	29452
810.875	29558
811.016	29360
811.158	29436
811.299	29630
811.441	29707
811.582	29615
811.724	29520
811.865	29425
812.007	29433
812.148	29474
812.29	29627
812.431	29619
812.573	29790
812.714	30026
812.855	29965
812.997	30079
813.138	30247
813.279	30125
813.421	29977
813.562	29988
813.703	29897
813.845	29771
813.986	29429
814.127	29303
814.268	29223
814.41	29155
814.551	29250
814.692	29337
814.833	29155
814.974	29136
815.115	29330
815.256	29044
815.397	29155
815.539	29124
815.68	29010
815.821	29010
815.962	28976
816.103	29041
816.244	28854
816.385	28835
816.526	28752
816.666	28637
816.807	28512
816.948	28531
817.089	28656
817.23	28531
817.371	28417
817.512	28470
817.653	28455
817.793	28352
817.934	28546
818.075	28497
818.216	28436
818.356	28512
818.497	28451
818.638	28219
818.778	28276
818.919	28356
819.06	28367
819.2	28337
819.341	28546
819.481	28702
819.622	28809
819.762	28843
819.903	28809
820.043	28691
820.184	28771
820.324	28710
820.465	28767
820.605	28626
820.746	28634
820.886	28561
821.026	28622
821.167	28755
821.307	28694
821.447	28645
821.588	28390
821.728	28375
821.868	28162
822.008	28082
822.149	28093
822.289	27949
822.429	27781
822.569	27663
822.709	27682
822.849	27542
822.99	27610
823.13	27561
823.27	27473
823.41	27336
823.55	27165
823.69	27298
823.83	27386
823.97	27302
824.11	27192
824.25	27199
824.389	27195
824.529	27100
824.669	27154
824.809	27226
824.949	27173
825.089	27241
825.228	27332
825.368	27119
825.508	26994
825.648	26990
825.787	27058
825.927	27070
826.067	26864
826.206	27066
826.346	27150
826.485	27024
826.625	26986
826.765	27089
826.904	27138
827.044	26914
827.183	26823
827.323	26864
827.462	26864
827.601	26727
827.741	26636
827.88	26785
828.02	26670
828.159	26830
828.298	26800
828.437	26800
828.577	26762
828.716	26762
828.855	26739
828.994	26480
829.134	26663
829.273	26617
829.412	26575
829.551	26480
829.69	26545
829.829	26606
829.968	26579
830.107	26579
830.246	26465
830.385	26324
830.524	26278
830.663	26202
830.802	26248
830.941	26054
831.08	26122
831.219	26142
831.357	26001
831.496	26240
831.635	26103
831.774	25841
831.913	25940
832.051	25921
832.19	25868
832.329	25997
832.467	25715
832.606	25670
832.744	25685
832.883	25757
833.022	25677
833.16	25700
833.299	25662
833.437	25780
833.576	25814
833.714	25791
833.852	25772
833.991	25818
834.129	25951
834.267	25890
834.406	25803
834.544	25826
834.682	25700
834.821	25928
834.959	25906
835.097	25776
835.235	25788
835.373	25700
835.511	25746
835.65	25883
835.788	25685
835.926	25491
836.064	25400
836.202	25346
836.34	25441
836.478	25719
836.615	25419
836.753	25643
836.891	25689
837.029	25704
837.167	25533
837.305	25544
837.443	25514
837.58	25449
837.718	25578
837.856	25335
837.993	25373
838.131	25457
838.269	25343
838.406	25377
838.544	25282
838.681	25194
838.819	25046
838.956	24996
839.094	24875
839.231	24932
839.369	24981
839.506	25225
839.643	25080
839.781	25031
839.918	24916
840.055	24852
840.193	24924
840.33	24779
840.467	24821
840.604	24901
840.742	25072
840.879	24616
841.016	24673
841.153	24601
841.29	24916
841.427	24768
841.564	24776
841.701	24901
841.838	24768
841.975	24715
842.112	24768
842.249	24677
842.385	24563
842.522	24757
842.659	24677
842.796	24532
842.933	24494
843.069	24429
843.206	24479
843.343	24589
843.479	24601
843.616	24555
843.752	24525
843.889	24258
844.025	24346
844.162	24243
844.298	24369
844.435	24270
844.571	24388
844.708	24285
844.844	24467
844.98	24410
845.117	24426
845.253	24407
845.389	24030
845.525	24194
845.661	24155
845.798	24022
845.934	24038
846.07	24068
846.206	24148
846.342	24129
846.478	24026
846.614	23828
846.75	23802
846.886	23783
847.022	23942
847.158	23920
847.294	23836
847.429	23904
847.565	23638
847.701	24060
847.837	23501
847.972	23452
848.108	23608
848.244	23463
848.379	23455
848.515	23429
848.65	23387
848.786	23452
848.921	23474
849.057	23520
849.192	23455
849.328	23440
849.463	23364
849.598	23364
849.734	23345
849.869	23166
850.004	23121
850.14	23056
850.275	23185
850.41	23029
850.545	22968
850.68	22946
850.815	23140
850.95	23140
851.085	23364
851.22	23227
851.355	23185
851.49	23197
851.625	23121
851.76	23178
851.895	23102
852.03	23048
852.165	23060
852.299	23124
852.434	23086
852.569	23147
852.703	23220
852.838	23185
852.973	23117
853.107	23113
853.242	23010
853.376	23048
853.511	22930
853.645	22862
853.78	23044
853.914	22915
854.048	22820
854.183	23018
854.317	23014
854.451	23022
854.585	22923
854.72	22889
854.854	22976
854.988	22881
855.122	23090
855.256	22820
855.39	22934
855.524	22949
855.658	23056
855.792	22927
855.926	22953
856.06	22991
856.194	22938
856.327	22934
856.461	22828
856.595	22946
856.729	22885
856.862	23025
856.996	22961
857.13	23064
857.263	23079
857.397	22987
857.53	23014
857.664	22911
857.797	23029
857.931	22972
858.064	23022
858.197	22961
858.331	22999
858.464	22862
858.597	22786
858.731	22847
858.864	22934
858.997	22839
859.13	22850
859.263	23010
859.396	23083
859.529	22942
859.662	23075
859.795	22828
859.928	22972
860.061	23162
860.194	23121
860.327	23014
860.46	22942
860.592	23094
860.725	23128
860.858	23048
860.99	22938
861.123	22885
861.256	22831
861.388	22881
861.521	23638
861.653	22774
861.786	22660
861.918	22809
862.05	22850
862.183	22854
862.315	22881
862.447	22980
862.58	22816
862.712	22656
862.844	22641
862.976	22736
863.108	22672
863.24	23136
863.372	22580
863.504	22557
863.636	22645
863.768	22672
863.9	22516
864.032	22771
864.164	22710
864.296	22660
864.428	22843
864.559	22835
864.691	22729
864.823	22713
864.954	22523
865.086	22679
865.217	22561
865.349	22421
865.48	22466
865.612	22459
865.743	22626
865.875	22694
866.006	22356
866.137	22615
866.269	22493
866.4	22474
866.531	22497
866.662	22436
866.793	22440
866.924	22489
867.055	22459
867.186	22382
867.317	22424
867.448	22379
867.579	22485
867.71	22276
867.841	22322
867.972	22508
868.103	22398
868.233	22436
868.364	22462
868.495	22626
868.625	22744
868.756	22805
868.886	22478
869.017	22478
869.147	22816
869.278	22736
869.408	22660
869.539	22603
869.669	22748
869.799	22607
869.929	22771
870.06	22835
870.19	23102
870.32	22957
870.45	22942
870.58	22961
870.71	23189
870.84	23269
870.97	23079
871.1	23071
871.23	23193
871.36	23254
871.489	23185
871.619	23220
871.749	23334
871.879	23364
872.008	23341
872.138	23311
872.267	23261
872.397	23197
872.526	23124
872.656	23151
872.785	23136
872.915	23303
873.044	23376
873.173	23326
873.303	23395
873.432	23334
873.561	23364
873.69	23292
873.819	23296
873.948	23254
874.077	23242
874.206	23292
874.335	23315
874.464	23376
874.593	23516
874.722	23528
874.851	23531
874.979	23562
875.108	23429
875.237	23296
875.365	23318
875.494	23474
875.623	23547
875.751	23554
875.88	23554
876.008	23509
876.136	23779
876.265	23878
876.393	23958
876.521	23954
876.65	23988
876.778	23870
876.906	23786
877.034	23904
877.162	23802
877.29	23817
877.418	23764
877.546	23885
877.674	23779
877.802	23828
877.93	23821
878.058	23847
878.185	23695
878.313	23779
878.441	23798
878.568	23733
878.696	23718
878.824	23882
878.951	23920
879.079	24026
879.206	23999
879.333	24072
879.461	23942
879.588	23889
879.715	24049
879.842	24072
879.97	23863
880.097	23691
880.224	23695
880.351	23642
880.478	23748
880.605	23653
880.732	23611
880.859	23916
880.986	23805
881.112	23676
881.239	23634
881.366	23391
881.493	23421
881.619	23212
881.746	23140
881.872	23261
881.999	23303
882.125	23246
882.252	23166
882.378	23075
882.505	23318
882.631	23022
882.757	22934
882.883	22987
883.01	22927
883.136	22793
883.262	22717
883.388	22755
883.514	22816
883.64	22881
883.766	22641
883.892	22702
884.018	22797
884.143	22805
884.269	22847
884.395	22721
884.52	22417
884.646	22599
884.772	22371
884.897	22478
885.023	22561
885.148	22542
885.274	22599
885.399	22618
885.524	22546
885.65	22691
885.775	22466
885.9	22550
886.025	22599
886.15	22554
886.275	22618
886.4	22500
886.525	22527
886.65	22413
886.775	22497
886.9	22565
887.025	22748
887.149	22481
887.274	22333
887.399	22367
887.523	22329
887.648	22158
887.773	22105
887.897	22428
888.021	22295
888.146	22078
888.27	22344
888.395	22287
888.519	22352
888.643	22166
888.767	22207
888.891	22196
889.015	22128
889.139	22154
889.263	22116
889.387	22200
889.511	22211
889.635	22322
889.759	21979
889.883	21937
890.006	22185
890.13	22051
890.254	22017
890.377	22013
890.501	21903
890.624	21793
890.748	21850
890.871	21603
890.995	21572
891.118	21526
891.241	21568
891.364	21561
891.488	21789
891.611	21610
891.734	21583
891.857	21606
891.98	21618
892.103	21675
892.226	21580
892.349	21587
892.471	21207
892.594	21469
892.717	21355
892.839	21435
892.962	21374
893.085	21492
893.207	21606
893.33	21416
893.452	21336
893.575	21443
893.697	21477
893.819	21557
893.941	21679
894.064	21595
894.186	21370
894.308	21367
894.43	21507
894.552	21641
894.674	21553
894.796	21405
894.918	21443
895.04	21431
895.161	21583
895.283	21580
895.405	21370
895.526	21431
895.648	21485
895.769	21458
895.891	21523
896.012	21553
896.134	21382
896.255	21420
896.376	21424
896.498	21393
896.619	21587
896.74	21393
896.861	21481
896.982	21713
897.103	21759
897.224	21698
897.345	21656
897.466	21690
897.587	21572
897.708	21762
897.828	21625
897.949	21629
898.07	21473
898.19	21557
898.311	21751
898.431	21561
898.552	21686
898.672	21709
898.792	21648
898.913	21580
899.033	21507
899.153	21439
899.273	21306
899.393	21363
899.513	21389
899.633	21359
899.753	21325
899.873	21370
899.993	21477
900.113	21249
900.232	21321
900.352	21241
900.472	21154
900.591	21066
900.711	21100
900.83	21066
900.95	21138
901.069	21135
901.189	21009
901.308	20705
901.427	20743
901.546	20765
901.665	20788
901.784	20746
901.904	20526
902.023	20358
902.141	20168
902.26	20267
902.379	20355
902.498	20111
902.617	20164
902.735	20187
902.854	20100
902.973	20142
903.091	19811
903.21	19826
903.328	19769
903.446	19734
903.565	19670
903.683	19468
903.801	19605
903.919	19632
904.038	19480
904.156	19430
904.274	19430
904.392	19350
904.51	19343
904.627	19346
904.745	19438
904.863	19441
904.981	19061
905.098	19065
905.216	19114
905.334	18958
905.451	19095
905.569	18966
905.686	19156
905.803	19008
905.921	18913
906.038	18939
906.155	18852
906.272	18738
906.389	18787
906.506	18623
906.623	18593
906.74	18585
906.857	18380
906.974	18410
907.091	18574
907.208	18688
907.324	18623
907.441	18483
907.557	18346
907.674	18361
907.79	18228
907.907	18258
908.023	18171
908.139	18304
908.256	18289
908.372	18121
908.488	18140
908.604	17954
908.72	17999
908.836	18076
908.952	18068
909.068	18053
909.184	18129
909.3	18022
909.415	18034
909.531	18102
909.647	17790
909.762	17668
909.878	17653
909.993	17741
910.108	17695
910.224	17600
910.339	17638
910.454	17554
910.57	17577
910.685	17330
910.8	17627
910.915	17737
911.03	17516
911.145	17330
911.259	17322
911.374	17311
911.489	17200
911.604	17227
911.718	17045
911.833	17045
911.947	16953
912.062	16946
912.176	17075
912.291	17140
912.405	16999
912.519	17140
912.633	17200
912.748	17029
912.862	17033
912.976	16759
913.09	16782
913.204	16725
913.318	16733
913.431	16873
913.545	16850
913.659	16885
913.772	16774
913.886	16634
914	16538
914.113	16626
914.226	16717
914.34	16656
914.453	16447
914.566	16668
914.68	16462
914.793	16489
914.906	16310
915.019	16143
915.132	16226
915.245	16105
915.358	16230
915.47	16295
915.583	16204
915.696	16249
915.809	16310
915.921	16253
916.034	16139
916.146	16071
916.259	16036
916.371	16067
916.483	16188
916.595	16002
916.708	15998
916.82	15998
916.932	15926
917.044	15941
917.156	15895
917.268	15793
917.38	15850
917.491	15812
917.603	15827
917.715	15903
917.826	15827
917.938	15739
918.049	15667
918.161	15717
918.272	15892
918.384	15823
918.495	15739
918.606	15526
918.717	15504
918.828	15450
918.939	15477
919.05	15348
919.161	15553
919.272	15279
919.383	15359
919.494	15561
919.604	15781
919.715	15504
919.826	15408
919.936	15450
920.047	15511
920.157	15496
920.267	15633
920.378	15534
920.488	15306
920.598	15549
920.708	15770
920.818	15466
920.928	15561
921.038	15686
921.148	15736
921.258	15424
921.368	15245
921.477	15233
921.587	15211
921.697	15020
921.806	15184
921.916	15017
922.025	14857
922.134	14750
922.244	14800
922.353	14952
922.462	14678
922.571	14583
922.68	14461
922.789	14488
922.898	14469
923.007	14347
923.116	14476
923.224	14366
923.333	14389
923.442	14317
923.55	14313
923.659	14370
923.767	14271
923.876	14199
923.984	14282
924.092	14149
924.201	14225
924.309	14183
924.417	14240
924.525	14081
924.633	14024
924.741	14891
924.849	13932
924.956	14123
925.064	13894
925.172	13784
925.279	13776
925.387	13864
925.494	13788
925.602	13921
925.709	13776
925.816	13712
925.924	13776
926.031	13864
926.138	13803
926.245	13784
926.352	13723
926.459	13791
926.566	13852
926.673	13639
926.779	13571
926.886	13556
926.993	13400
927.099	13339
927.206	13278
927.312	13221
927.419	13411
927.525	13343
927.631	13358
927.737	13217
927.843	13152
927.95	13213
928.056	13164
928.162	13225
928.267	13247
928.373	13826
928.479	13266
928.585	12962
928.69	13137
928.796	13168
928.901	13012
929.007	12901
929.112	12985
929.218	12928
929.323	12935
929.428	12909
929.533	12939
929.638	12798
929.743	12875
929.848	12894
929.953	12681
930.058	12681
930.163	12441
930.267	12426
930.372	12635
930.477	12582
930.581	12772
930.685	12551
930.79	12498
930.894	12437
930.998	12361
931.103	12532
931.207	12136
931.311	12148
931.415	11923
931.519	11809
931.623	11741
