Data from test_V78500241_2700.txt Node
Date: Fri Mar 25 16:00:30 CST 2022
User: usil
Spectrometer: V785-0024
Trigger mode: 0
Integration Time (sec): 4.000000E-1
Scans to average: 1
Nonlinearity correction enabled: false
Boxcar width: 0
Storing dark spectrum: false
XAxis mode: Wavelengths
Number of Pixels in Spectrum: 1024
>>>>>Begin Spectral Data<<<<<
801.071	28752
801.214	28694
801.356	28390
801.499	28314
801.641	28139
801.783	28166
801.926	28325
802.068	28128
802.211	28169
802.353	28093
802.496	28078
802.638	27987
802.78	27857
802.923	27854
803.065	27865
803.208	27789
803.35	28025
803.492	27918
803.635	28116
803.777	28078
803.919	28348
804.061	28516
804.204	28196
804.346	28139
804.488	28036
804.63	28154
804.773	28006
804.915	28162
805.057	28287
805.199	28116
805.341	28421
805.483	28265
805.626	28219
805.768	28162
805.91	28459
806.052	28382
806.194	28333
806.336	28481
806.478	28379
806.62	28318
806.762	28535
806.904	28649
807.046	28816
807.188	28908
807.33	28763
807.472	28984
807.614	28733
807.756	28809
807.898	28626
808.04	28577
808.182	28500
808.324	28717
808.465	28812
808.607	28968
808.749	29159
808.891	29185
809.033	29189
809.174	29277
809.316	29029
809.458	28976
809.6	28976
809.741	29204
809.883	29220
810.025	29254
810.166	29410
810.308	29345
810.45	29220
810.591	29273
810.733	28976
810.875	29003
811.016	28904
811.158	28885
811.299	29178
811.441	29159
811.582	29037
811.724	29155
811.865	29094
812.007	29052
812.148	29090
812.29	29113
812.431	29098
812.573	29414
812.714	29395
812.855	29501
812.997	29524
813.138	29836
813.279	29543
813.421	29436
813.562	29288
813.703	29284
813.845	29223
813.986	29006
814.127	28839
814.268	28752
814.41	28771
814.551	28790
814.692	28824
814.833	28641
814.974	28641
815.115	28706
815.256	28683
815.397	28656
815.539	28645
815.68	28565
815.821	28516
815.962	28508
816.103	28607
816.244	28360
816.385	28310
816.526	28287
816.666	28226
816.807	28200
816.948	28120
817.089	28204
817.23	27956
817.371	28093
817.512	28017
817.653	28036
817.793	27945
817.934	27975
818.075	27911
818.216	28105
818.356	27911
818.497	27804
818.638	27781
818.778	27751
818.919	27808
819.06	27797
819.2	27983
819.341	28036
819.481	27968
819.622	28310
819.762	28421
819.903	28299
820.043	28135
820.184	28116
820.324	28185
820.465	28257
820.605	28268
820.746	28173
820.886	28105
821.026	28226
821.167	28169
821.307	28234
821.447	28086
821.588	28021
821.728	27827
821.868	27652
822.008	27469
822.149	27564
822.289	27625
822.429	27370
822.569	27165
822.709	27176
822.849	27055
822.99	26929
823.13	26994
823.27	27077
823.41	26883
823.55	26899
823.69	26967
823.83	26735
823.97	26853
824.11	26636
824.25	26807
824.389	26682
824.529	26842
824.669	26697
824.809	26758
824.949	26819
825.089	26739
825.228	26765
825.368	26636
825.508	26480
825.648	26613
825.787	26651
825.927	26708
826.067	26621
826.206	26495
826.346	26659
826.485	26621
826.625	26556
826.765	26708
826.904	26670
827.044	26267
827.183	26195
827.323	26305
827.462	26347
827.601	26324
827.741	26301
827.88	26393
828.02	26275
828.159	26263
828.298	26324
828.437	26267
828.577	26263
828.716	26442
828.855	26058
828.994	26122
829.134	26024
829.273	26027
829.412	25902
829.551	25879
829.69	26031
829.829	26024
829.968	26039
830.107	25940
830.246	25989
830.385	25811
830.524	25890
830.663	25814
830.802	25738
830.941	25556
831.08	25483
831.219	25658
831.357	25624
831.496	25799
831.635	25495
831.774	25540
831.913	25403
832.051	25377
832.19	25350
832.329	25316
832.467	25316
832.606	25107
832.744	25148
832.883	25293
833.022	25141
833.16	25206
833.299	25297
833.437	25400
833.576	25365
833.714	25346
833.852	25373
833.991	25350
834.129	25369
834.267	25468
834.406	25339
834.544	25304
834.682	25327
834.821	25228
834.959	25499
835.097	25202
835.235	25373
835.373	25350
835.511	25152
835.65	25297
835.788	25141
835.926	25065
836.064	24916
836.202	24909
836.34	25129
836.478	25202
836.615	25065
836.753	25061
836.891	25251
837.029	25152
837.167	25156
837.305	25053
837.443	24966
837.58	24981
837.718	25084
837.856	25046
837.993	24817
838.131	25069
838.269	24810
838.406	24935
838.544	24722
838.681	24559
838.819	24582
838.956	24467
839.094	24475
839.231	24513
839.369	24604
839.506	24840
839.643	24825
839.781	24521
839.918	24380
840.055	24429
840.193	24388
840.33	24308
840.467	24391
840.604	24467
840.742	24639
840.879	24243
841.016	24186
841.153	24174
841.29	24456
841.427	24380
841.564	24426
841.701	24327
841.838	24361
841.975	24232
842.112	24350
842.249	24076
842.385	24060
842.522	24319
842.659	24155
842.796	24155
842.933	24155
843.069	24144
843.206	24041
843.343	24201
843.479	24057
843.616	24057
843.752	23893
843.889	23942
844.025	24007
844.162	23863
844.298	23958
844.435	23790
844.571	23878
844.708	23817
844.844	24254
844.98	23939
845.117	23969
845.253	23764
845.389	23718
845.525	23745
845.661	23775
845.798	23703
845.934	23794
846.07	23596
846.206	23710
846.342	23691
846.478	23562
846.614	23478
846.75	23330
846.886	23280
847.022	23337
847.158	23421
847.294	23288
847.429	23429
847.565	23189
847.701	23505
847.837	23067
847.972	23075
848.108	23200
848.244	23090
848.379	22961
848.515	22892
848.65	22904
848.786	22965
848.921	22949
849.057	23060
849.192	23060
849.328	22934
849.463	23006
849.598	22850
849.734	22786
849.869	22683
850.004	22713
850.14	22752
850.275	22641
850.41	22546
850.545	22607
850.68	22554
850.815	22740
850.95	22645
851.085	22843
851.22	22660
851.355	22710
851.49	22603
851.625	22668
851.76	22691
851.895	22592
852.03	22596
852.165	22721
852.299	22702
852.434	22702
852.569	22668
852.703	22573
852.838	22759
852.973	22835
853.107	22809
853.242	22679
853.376	22500
853.511	22424
853.645	22462
853.78	22653
853.914	22630
854.048	22455
854.183	22443
854.317	22573
854.451	22710
854.585	22440
854.72	22569
854.854	22561
854.988	22363
855.122	22504
855.256	22306
855.39	22421
855.524	22577
855.658	22649
855.792	22649
855.926	22538
856.06	22538
856.194	22538
856.327	22542
856.461	22356
856.595	22478
856.729	22432
856.862	22599
856.996	22394
857.13	22611
857.263	22413
857.397	22599
857.53	22516
857.664	22569
857.797	22519
857.931	22622
858.064	22516
858.197	22626
858.331	22481
858.464	22341
858.597	22249
858.731	22447
858.864	22390
858.997	22584
859.13	22478
859.263	22550
859.396	22531
859.529	22447
859.662	22485
859.795	22443
859.928	22474
860.061	22710
860.194	22637
860.327	22649
860.46	22504
860.592	22557
860.725	22615
860.858	22786
860.99	22519
861.123	22405
861.256	22443
861.388	22455
861.521	23178
861.653	22333
861.786	22314
861.918	22238
862.05	22356
862.183	22413
862.315	22405
862.447	22409
862.58	22519
862.712	22162
862.844	22230
862.976	22265
863.108	22322
863.24	22744
863.372	22261
863.504	22265
863.636	22112
863.768	22192
863.9	22367
864.032	22105
864.164	22207
864.296	22337
864.428	22322
864.559	22280
864.691	22333
864.823	22242
864.954	22257
865.086	22238
865.217	22120
865.349	22017
865.48	22093
865.612	22196
865.743	22223
865.875	22120
866.006	22093
866.137	22169
866.269	22223
866.4	22017
866.531	22059
866.662	22032
866.793	22070
866.924	22120
867.055	21956
867.186	22051
867.317	22109
867.448	21979
867.579	21937
867.71	21911
867.841	21987
867.972	22059
868.103	22055
868.233	22082
868.364	22006
868.495	22032
868.625	22242
868.756	22421
868.886	22150
869.017	22375
869.147	22341
869.278	22276
869.408	22382
869.539	22325
869.669	22303
869.799	22386
869.929	22405
870.06	22428
870.19	22634
870.32	22493
870.45	22557
870.58	22622
870.71	22797
870.84	22828
870.97	22683
871.1	22748
871.23	22736
871.36	22885
871.489	22736
871.619	22934
871.749	22976
871.879	22995
872.008	22915
872.138	22835
872.267	22828
872.397	22790
872.526	22668
872.656	22793
872.785	22748
872.915	23003
873.044	22949
873.173	22919
873.303	22953
873.432	22972
873.561	22869
873.69	22877
873.819	22915
873.948	22953
874.077	22919
874.206	22892
874.335	22919
874.464	22946
874.593	23140
874.722	22991
874.851	23166
874.979	23018
875.108	23178
875.237	22934
875.365	23025
875.494	23086
875.623	23124
875.751	23056
875.88	23147
876.008	23162
876.136	23296
876.265	23570
876.393	23634
876.521	23551
876.65	23554
876.778	23627
876.906	23372
877.034	23429
877.162	23372
877.29	23589
877.418	23474
877.546	23474
877.674	23356
877.802	23478
877.93	23429
878.058	23516
878.185	23288
878.313	23356
878.441	23406
878.568	23216
878.696	23383
878.824	23425
878.951	23471
879.079	23600
879.206	23760
879.333	23672
879.461	23402
879.588	23554
879.715	23600
879.842	23710
879.97	23535
880.097	23174
880.224	23292
880.351	23288
880.478	23383
880.605	23094
880.732	23315
880.859	23440
880.986	23402
881.112	23185
881.239	23155
881.366	23071
881.493	22850
881.619	22892
881.746	22847
881.872	22778
881.999	22805
882.125	22805
882.252	22923
882.378	22858
882.505	22877
882.631	22698
882.757	22493
882.883	22580
883.01	22489
883.136	22462
883.262	22348
883.388	22318
883.514	22455
883.64	22538
883.766	22478
883.892	22284
884.018	22257
884.143	22493
884.269	22573
884.395	22272
884.52	22139
884.646	22181
884.772	22090
884.897	21998
885.023	22211
885.148	22230
885.274	22261
885.399	22219
885.524	22150
885.65	22226
885.775	22135
885.9	22032
886.025	22299
886.15	22310
886.275	22048
886.4	22090
886.525	22105
886.65	21979
886.775	22051
886.9	22299
887.025	22268
887.149	22082
887.274	21964
887.399	21876
887.523	21869
887.648	21762
887.773	21880
887.897	22010
888.021	21953
888.146	21899
888.27	21937
888.395	21911
888.519	21937
888.643	21941
888.767	22002
888.891	21827
889.015	21591
889.139	21724
889.263	21625
889.387	21736
889.511	21918
889.635	21793
889.759	21648
889.883	21583
890.006	21759
890.13	21770
890.254	21652
890.377	21717
890.501	21477
890.624	21386
890.748	21507
890.871	21428
890.995	21207
891.118	21180
891.241	21329
891.364	21184
891.488	21298
891.611	21287
891.734	21264
891.857	21351
891.98	21199
892.103	21237
892.226	21287
892.349	21150
892.471	21100
892.594	21176
892.717	21237
892.839	20914
892.962	21272
893.085	21195
893.207	21199
893.33	21005
893.452	20998
893.575	21161
893.697	21108
893.819	21332
893.941	21252
894.064	21192
894.186	21119
894.308	21074
894.43	21173
894.552	21291
894.674	21180
894.796	21058
894.918	21108
895.04	21005
895.161	21116
895.283	21085
895.405	21085
895.526	21070
895.648	21066
895.769	21127
895.891	21245
896.012	21313
896.134	21176
896.255	21138
896.376	21055
896.498	20982
896.619	21119
896.74	21028
896.861	21089
896.982	21370
897.103	21572
897.224	21329
897.345	21211
897.466	21154
897.587	21287
897.708	21466
897.828	21291
897.949	21348
898.07	21157
898.19	21264
898.311	21336
898.431	21131
898.552	21188
898.672	21317
898.792	21401
898.913	21294
899.033	21108
899.153	21119
899.273	20975
899.393	21039
899.513	21070
899.633	20998
899.753	21081
899.873	20815
899.993	21093
900.113	20948
900.232	21013
900.352	20948
900.472	20819
900.591	20678
900.711	20727
900.83	20636
900.95	20891
901.069	20804
901.189	20697
901.308	20438
901.427	20476
901.546	20431
901.665	20381
901.784	20423
901.904	20210
902.023	20115
902.141	20020
902.26	19879
902.379	20027
902.498	19955
902.617	19803
902.735	19864
902.854	19769
902.973	19795
903.091	19605
903.21	19468
903.328	19559
903.446	19472
903.565	19419
903.683	19384
903.801	19156
903.919	19339
904.038	19282
904.156	19118
904.274	19232
904.392	19129
904.51	19088
904.627	19023
904.745	19084
904.863	19145
904.981	18878
905.098	18719
905.216	18753
905.334	18848
905.451	18791
905.569	18707
905.686	18810
905.803	18779
905.921	18525
906.038	18597
906.155	18589
906.272	18448
906.389	18490
906.506	18254
906.623	18323
906.74	18353
906.857	18197
906.974	18220
907.091	18365
907.208	18369
907.324	18304
907.441	18129
907.557	17965
907.674	18003
907.79	17885
907.907	17969
908.023	17992
908.139	17980
908.256	17882
908.372	17859
908.488	17855
908.604	17687
908.72	17680
908.836	17691
908.952	17665
909.068	17733
909.184	17786
909.3	17615
909.415	17676
909.531	17642
909.647	17425
909.762	17410
909.878	17444
909.993	17455
910.108	17444
910.224	17242
910.339	17299
910.454	17204
910.57	17227
910.685	17102
910.8	17334
910.915	17296
911.03	17143
911.145	16961
911.259	16961
911.374	16991
911.489	16862
911.604	16782
911.718	16672
911.833	16721
911.947	16664
912.062	16603
912.176	16656
912.291	16736
912.405	16854
912.519	16847
912.633	16790
912.748	16759
912.862	16691
912.976	16504
913.09	16390
913.204	16542
913.318	16588
913.431	16622
913.545	16523
913.659	16615
913.772	16546
913.886	16409
914	16242
914.113	16348
914.226	16398
914.34	16409
914.453	16253
914.566	16402
914.68	16185
914.793	16116
914.906	16025
915.019	15926
915.132	15899
915.245	15892
915.358	15956
915.47	15861
915.583	15854
915.696	15953
915.809	15972
915.921	15979
916.034	15899
916.146	15701
916.259	15827
916.371	15816
916.483	15838
916.595	15679
916.708	15713
916.82	15720
916.932	15622
917.044	15587
917.156	15637
917.268	15473
917.38	15652
917.491	15447
917.603	15603
917.715	15549
917.826	15633
917.938	15458
918.049	15336
918.161	15507
918.272	15568
918.384	15530
918.495	15485
918.606	15306
918.717	15173
918.828	15283
918.939	15291
919.05	15188
919.161	15230
919.272	15005
919.383	15135
919.494	15359
919.604	15492
919.715	15317
919.826	15020
919.936	15150
920.047	15355
920.157	15184
920.267	15439
920.378	15237
920.488	15116
920.598	15374
920.708	15412
920.818	15252
920.928	15298
921.038	15553
921.148	15428
921.258	15119
921.368	15135
921.477	14998
921.587	14891
921.697	14807
921.806	14895
921.916	14743
922.025	14667
922.134	14590
922.244	14457
922.353	14587
922.462	14480
922.571	14400
922.68	14210
922.789	14191
922.898	14256
923.007	14092
923.116	14206
923.224	14206
923.333	14145
923.442	14050
923.55	13967
923.659	14096
923.767	14103
923.876	13963
923.984	13993
924.092	13871
924.201	13955
924.309	13879
924.417	13868
924.525	13803
924.633	13818
924.741	14857
924.849	13605
924.956	13780
925.064	13753
925.172	13499
925.279	13525
925.387	13609
925.494	13662
925.602	13647
925.709	13567
925.816	13441
925.924	13434
926.031	13525
926.138	13586
926.245	13495
926.352	13510
926.459	13510
926.566	13502
926.673	13438
926.779	13339
926.886	13327
926.993	13168
927.099	13198
927.206	13080
927.312	13209
927.419	13122
927.525	13118
927.631	13141
927.737	12935
927.843	12905
927.95	12757
928.056	12894
928.162	13023
928.267	12909
928.373	13533
928.479	13015
928.585	12707
928.69	12848
928.796	12875
928.901	12837
929.007	12639
929.112	12791
929.218	12700
929.323	12707
929.428	12570
929.533	12802
929.638	12654
929.743	12616
929.848	12654
929.953	12631
930.058	12452
930.163	12334
930.267	12270
930.372	12513
930.477	12350
930.581	12566
930.685	12376
930.79	12224
930.894	12232
930.998	12308
931.103	12346
931.207	11969
931.311	11874
931.415	11718
931.519	11592
931.623	11608
