Data from test_V78500241_3403.txt Node
Date: Fri Mar 25 16:05:22 CST 2022
User: usil
Spectrometer: V785-0024
Trigger mode: 0
Integration Time (sec): 4.000000E-1
Scans to average: 1
Nonlinearity correction enabled: false
Boxcar width: 0
Storing dark spectrum: false
XAxis mode: Wavelengths
Number of Pixels in Spectrum: 1024
>>>>>Begin Spectral Data<<<<<
801.071	28653
801.214	28641
801.356	28443
801.499	28535
801.641	28234
801.783	28352
801.926	28443
802.068	28276
802.211	28219
802.353	28082
802.496	28150
802.638	27934
802.78	28017
802.923	27987
803.065	27762
803.208	27842
803.35	27968
803.492	28112
803.635	28196
803.777	28128
803.919	28223
804.061	28554
804.204	28238
804.346	28299
804.488	28185
804.63	28200
804.773	28181
804.915	28253
805.057	28531
805.199	28261
805.341	28249
805.483	28398
805.626	28584
805.768	28230
805.91	28409
806.052	28379
806.194	28249
806.336	28462
806.478	28489
806.62	28291
806.762	28535
806.904	28596
807.046	28828
807.188	28866
807.33	28778
807.472	28805
807.614	28793
807.756	28744
807.898	28729
808.04	28641
808.182	28664
808.324	28713
808.465	28702
808.607	28957
808.749	29037
808.891	29402
809.033	29277
809.174	29143
809.316	29098
809.458	29060
809.6	28987
809.741	29064
809.883	29189
810.025	29303
810.166	29375
810.308	29486
810.45	29307
810.591	29280
810.733	29189
810.875	29094
811.016	28987
811.158	29029
811.299	29269
811.441	29299
811.582	29277
811.724	29254
811.865	29056
812.007	29189
812.148	29090
812.29	29083
812.431	29189
812.573	29436
812.714	29665
812.855	29756
812.997	29786
813.138	29828
813.279	29722
813.421	29604
813.562	29512
813.703	29398
813.845	29341
813.986	29060
814.127	28991
814.268	28915
814.41	28797
814.551	28793
814.692	28957
814.833	28797
814.974	28831
815.115	28805
815.256	28843
815.397	28588
815.539	28805
815.68	28592
815.821	28580
815.962	28702
816.103	28512
816.244	28527
816.385	28371
816.526	28341
816.666	28131
816.807	28006
816.948	28082
817.089	28120
817.23	28234
817.371	28230
817.512	28017
817.653	28055
817.793	28139
817.934	28029
818.075	28078
818.216	28093
818.356	28109
818.497	27911
818.638	27720
818.778	27778
818.919	27835
819.06	27903
819.2	27956
819.341	28257
819.481	28128
819.622	28348
819.762	28580
819.903	28478
820.043	28230
820.184	28177
820.324	28230
820.465	28421
820.605	28310
820.746	28272
820.886	28154
821.026	28234
821.167	28299
821.307	28310
821.447	28139
821.588	27975
821.728	27751
821.868	27713
822.008	27580
822.149	27660
822.289	27641
822.429	27454
822.569	27184
822.709	27317
822.849	27058
822.99	27195
823.13	27142
823.27	26925
823.41	26785
823.55	26857
823.69	27024
823.83	26857
823.97	26887
824.11	26697
824.25	26720
824.389	26739
824.529	26921
824.669	26571
824.809	26918
824.949	26853
825.089	26815
825.228	26842
825.368	26545
825.508	26587
825.648	26644
825.787	26701
825.927	26708
826.067	26518
826.206	26670
826.346	26670
826.485	26716
826.625	26697
826.765	26823
826.904	26754
827.044	26469
827.183	26362
827.323	26286
827.462	26389
827.601	26522
827.741	26393
827.88	26438
828.02	26252
828.159	26514
828.298	26332
828.437	26442
828.577	26298
828.716	26587
828.855	26164
828.994	26218
829.134	26115
829.273	26084
829.412	26031
829.551	25974
829.69	25947
829.829	26149
829.968	26145
830.107	26119
830.246	25970
830.385	26065
830.524	26027
830.663	25822
830.802	25727
830.941	25738
831.08	25578
831.219	25780
831.357	25757
831.496	25841
831.635	25731
831.774	25563
831.913	25430
832.051	25495
832.19	25350
832.329	25369
832.467	25483
832.606	25335
832.744	25320
832.883	25365
833.022	25301
833.16	25377
833.299	25354
833.437	25381
833.576	25552
833.714	25453
833.852	25441
833.991	25400
834.129	25521
834.267	25620
834.406	25460
834.544	25438
834.682	25320
834.821	25346
834.959	25525
835.097	25339
835.235	25521
835.373	25369
835.511	25339
835.65	25274
835.788	25358
835.926	25080
836.064	25103
836.202	25152
836.34	25339
836.478	25221
836.615	25198
836.753	25278
836.891	25202
837.029	25160
837.167	25206
837.305	25168
837.443	25152
837.58	24985
837.718	25179
837.856	25145
837.993	25084
838.131	24920
838.269	24909
838.406	25072
838.544	25034
838.681	24753
838.819	24692
838.956	24448
839.094	24448
839.231	24471
839.369	24681
839.506	24848
839.643	24772
839.781	24589
839.918	24266
840.055	24646
840.193	24490
840.33	24391
840.467	24426
840.604	24502
840.742	24654
840.879	24247
841.016	24311
841.153	24342
841.29	24498
841.427	24395
841.564	24403
841.701	24517
841.838	24350
841.975	24281
842.112	24235
842.249	24243
842.385	24205
842.522	24422
842.659	24289
842.796	24148
842.933	24239
843.069	24197
843.206	24129
843.343	24296
843.479	24372
843.616	24152
843.752	24057
843.889	23908
844.025	24102
844.162	23923
844.298	23980
844.435	23889
844.571	23984
844.708	24064
844.844	24194
844.98	24053
845.117	24076
845.253	23893
845.389	23771
845.525	23798
845.661	23859
845.798	23745
845.934	23802
846.07	23634
846.206	23642
846.342	23870
846.478	23551
846.614	23459
846.75	23341
846.886	23353
847.022	23326
847.158	23554
847.294	23391
847.429	23543
847.565	23417
847.701	23596
847.837	23170
847.972	23090
848.108	23391
848.244	23242
848.379	23109
848.515	22987
848.65	22866
848.786	23060
848.921	23079
849.057	23025
849.192	23143
849.328	23006
849.463	23048
849.598	22976
849.734	22767
849.869	22786
850.004	22839
850.14	22824
850.275	22881
850.41	22523
850.545	22683
850.68	22649
850.815	22744
850.95	22713
851.085	23003
851.22	22896
851.355	22793
851.49	22839
851.625	22778
851.76	22717
851.895	22672
852.03	22725
852.165	22717
852.299	22771
852.434	22790
852.569	22786
852.703	22744
852.838	22759
852.973	22938
853.107	22927
853.242	22706
853.376	22607
853.511	22478
853.645	22615
853.78	22649
853.914	22542
854.048	22557
854.183	22508
854.317	22588
854.451	22843
854.585	22615
854.72	22641
854.854	22744
854.988	22512
855.122	22702
855.256	22386
855.39	22588
855.524	22725
855.658	22698
855.792	22516
855.926	22599
856.06	22607
856.194	22618
856.327	22459
856.461	22459
856.595	22481
856.729	22497
856.862	22584
856.996	22622
857.13	22577
857.263	22706
857.397	22561
857.53	22577
857.664	22596
857.797	22626
857.931	22668
858.064	22675
858.197	22733
858.331	22508
858.464	22402
858.597	22497
858.731	22554
858.864	22516
858.997	22557
859.13	22527
859.263	22618
859.396	22649
859.529	22573
859.662	22535
859.795	22519
859.928	22683
860.061	22713
860.194	22664
860.327	22759
860.46	22561
860.592	22759
860.725	22755
860.858	22653
860.99	22561
861.123	22447
861.256	22557
861.388	22569
861.521	23307
861.653	22363
861.786	22325
861.918	22436
862.05	22527
862.183	22535
862.315	22443
862.447	22462
862.58	22417
862.712	22318
862.844	22303
862.976	22424
863.108	22337
863.24	22843
863.372	22303
863.504	22303
863.636	22432
863.768	22352
863.9	22318
864.032	22257
864.164	22185
864.296	22287
864.428	22375
864.559	22421
864.691	22200
864.823	22246
864.954	22356
865.086	22284
865.217	22238
865.349	22112
865.48	22204
865.612	22086
865.743	22329
865.875	22204
866.006	22082
866.137	22200
866.269	22196
866.4	22097
866.531	22044
866.662	21937
866.793	22093
866.924	22204
867.055	22166
867.186	22048
867.317	22044
867.448	22059
867.579	22177
867.71	22040
867.841	22120
867.972	22070
868.103	22063
868.233	22055
868.364	22086
868.495	22211
868.625	22394
868.756	22421
868.886	22314
869.017	22295
869.147	22363
869.278	22356
869.408	22402
869.539	22314
869.669	22402
869.799	22337
869.929	22402
870.06	22417
870.19	22694
870.32	22485
870.45	22656
870.58	22721
870.71	22862
870.84	22774
870.97	22641
871.1	22702
871.23	22816
871.36	22968
871.489	22850
871.619	22896
871.749	22904
871.879	22976
872.008	23166
872.138	22991
872.267	22843
872.397	22736
872.526	22873
872.656	22622
872.785	22675
872.915	22930
873.044	23067
873.173	22915
873.303	23033
873.432	22999
873.561	23037
873.69	23022
873.819	22862
873.948	22980
874.077	22972
874.206	22847
874.335	22793
874.464	23090
874.593	23102
874.722	23261
874.851	23113
874.979	23239
875.108	23383
875.237	23090
875.365	23010
875.494	23124
875.623	23151
875.751	23105
875.88	23208
876.008	23273
876.136	23334
876.265	23611
876.393	23687
876.521	23554
876.65	23627
876.778	23535
876.906	23452
877.034	23452
877.162	23429
877.29	23425
877.418	23436
877.546	23528
877.674	23520
877.802	23566
877.93	23486
878.058	23471
878.185	23258
878.313	23364
878.441	23512
878.568	23398
878.696	23406
878.824	23512
878.951	23566
879.079	23600
879.206	23965
879.333	23623
879.461	23524
879.588	23794
879.715	23600
879.842	23847
879.97	23581
880.097	23391
880.224	23280
880.351	23372
880.478	23341
880.605	23337
880.732	23383
880.859	23585
880.986	23136
881.112	23379
881.239	23330
881.366	23006
881.493	22999
881.619	23003
881.746	22949
881.872	22961
881.999	22862
882.125	22763
882.252	22934
882.378	22976
882.505	22995
882.631	22672
882.757	22611
882.883	22550
883.01	22588
883.136	22577
883.262	22405
883.388	22421
883.514	22546
883.64	22615
883.766	22440
883.892	22459
884.018	22500
884.143	22561
884.269	22573
884.395	22261
884.52	22196
884.646	22143
884.772	22143
884.897	22101
885.023	22177
885.148	22287
885.274	22394
885.399	22390
885.524	22242
885.65	22051
885.775	22268
885.9	22128
886.025	22223
886.15	22348
886.275	22051
886.4	22166
886.525	22154
886.65	22070
886.775	22101
886.9	22143
887.025	22333
887.149	22242
887.274	21968
887.399	21960
887.523	21934
887.648	21937
887.773	21876
887.897	22013
888.021	21956
888.146	21842
888.27	22135
888.395	22063
888.519	21937
888.643	21915
888.767	22070
888.891	21838
889.015	21819
889.139	21930
889.263	21686
889.387	21888
889.511	22013
889.635	21838
889.759	21804
889.883	21530
890.006	21778
890.13	21705
890.254	21682
890.377	21686
890.501	21462
890.624	21515
890.748	21477
890.871	21355
890.995	21302
891.118	21245
891.241	21313
891.364	21344
891.488	21393
891.611	21279
891.734	21256
891.857	21329
891.98	21214
892.103	21188
892.226	21291
892.349	21313
892.471	21123
892.594	21230
892.717	21241
892.839	21104
892.962	21131
893.085	21214
893.207	21150
893.33	21062
893.452	21085
893.575	21233
893.697	21188
893.819	21389
893.941	21363
894.064	21332
894.186	21093
894.308	21032
894.43	21233
894.552	21256
894.674	21260
894.796	21051
894.918	21119
895.04	21184
895.161	21294
895.283	21085
895.405	21074
895.526	21173
895.648	21131
895.769	21199
895.891	21252
896.012	21161
896.134	21222
896.255	21085
896.376	21058
896.498	21108
896.619	21047
896.74	21119
896.861	21222
896.982	21542
897.103	21580
897.224	21447
897.345	21359
897.466	21260
897.587	21374
897.708	21492
897.828	21313
897.949	21321
898.07	21252
898.19	21214
898.311	21439
898.431	21336
898.552	21359
898.672	21378
898.792	21363
898.913	21397
899.033	21058
899.153	21192
899.273	21077
899.393	21112
899.513	21093
899.633	20975
899.753	21100
899.873	20925
899.993	20998
900.113	20937
900.232	21074
900.352	20948
900.472	20849
900.591	20811
900.711	20952
900.83	20800
900.95	20861
901.069	20807
901.189	20571
901.308	20473
901.427	20343
901.546	20328
901.665	20328
901.784	20408
901.904	20351
902.023	20168
902.141	19830
902.26	19845
902.379	19974
902.498	19951
902.617	19955
902.735	19978
902.854	19898
902.973	19738
903.091	19594
903.21	19578
903.328	19594
903.446	19483
903.565	19369
903.683	19441
903.801	19228
903.919	19384
904.038	19327
904.156	19099
904.274	19156
904.392	19255
904.51	19110
904.627	19038
904.745	19152
904.863	19141
904.981	18897
905.098	18696
905.216	18814
905.334	18821
905.451	18715
905.569	18795
905.686	18886
905.803	18700
905.921	18563
906.038	18509
906.155	18642
906.272	18525
906.389	18582
906.506	18350
906.623	18277
906.74	18380
906.857	18266
906.974	18060
907.091	18410
907.208	18357
907.324	18262
907.441	18087
907.557	18030
907.674	18121
907.79	18072
907.907	18026
908.023	18095
908.139	18003
908.256	17992
908.372	17961
908.488	17912
908.604	17836
908.72	17775
908.836	17767
908.952	17676
909.068	17764
909.184	17748
909.3	17661
909.415	17752
909.531	17874
909.647	17532
909.762	17429
909.878	17440
909.993	17429
910.108	17372
910.224	17345
910.339	17379
910.454	17235
910.57	17277
910.685	17094
910.8	17383
910.915	17471
911.03	17246
911.145	16987
911.259	17060
911.374	16976
911.489	16961
911.604	16831
911.718	16755
911.833	16763
911.947	16630
912.062	16615
912.176	16790
912.291	16729
912.405	16809
912.519	16938
912.633	16965
912.748	16790
912.862	16774
912.976	16596
913.09	16462
913.204	16424
913.318	16531
913.431	16577
913.545	16645
913.659	16668
913.772	16630
913.886	16455
914	16337
914.113	16413
914.226	16360
914.34	16405
914.453	16325
914.566	16390
914.68	16238
914.793	16192
914.906	16025
915.019	15953
915.132	15911
915.245	15873
915.358	15975
915.47	15930
915.583	15937
915.696	15964
915.809	16048
915.921	16048
916.034	15736
916.146	15876
916.259	15785
916.371	15979
916.483	15781
916.595	15797
916.708	15759
916.82	15808
916.932	15701
917.044	15739
917.156	15603
917.268	15603
917.38	15656
917.491	15538
917.603	15644
917.715	15629
917.826	15622
917.938	15435
918.049	15477
918.161	15557
918.272	15610
918.384	15538
918.495	15428
918.606	15272
918.717	15230
918.828	15370
918.939	15256
919.05	15192
919.161	15161
919.272	14960
919.383	15169
919.494	15230
919.604	15496
919.715	15207
919.826	15116
919.936	15252
920.047	15245
920.157	15310
920.267	15424
920.378	15207
920.488	15184
920.598	15382
920.708	15625
920.818	15374
920.928	15363
921.038	15587
921.148	15447
921.258	15097
921.368	15077
921.477	14952
921.587	14842
921.697	14861
921.806	14994
921.916	14815
922.025	14590
922.134	14560
922.244	14590
922.353	14693
922.462	14374
922.571	14339
922.68	14347
922.789	14187
922.898	14240
923.007	14126
923.116	14168
923.224	14111
923.333	14286
923.442	14069
923.55	14001
923.659	14096
923.767	14233
923.876	13959
923.984	13982
924.092	13974
924.201	13982
924.309	13917
924.417	13894
924.525	13822
924.633	13928
924.741	14735
924.849	13636
924.956	13799
925.064	13776
925.172	13544
925.279	13605
925.387	13636
925.494	13563
925.602	13700
925.709	13662
925.816	13453
925.924	13624
926.031	13643
926.138	13586
926.245	13434
926.352	13430
926.459	13559
926.566	13636
926.673	13487
926.779	13324
926.886	13354
926.993	13175
927.099	13206
927.206	13084
927.312	13042
927.419	13236
927.525	13088
927.631	13198
927.737	13015
927.843	13031
927.95	12890
928.056	12958
928.162	12932
928.267	12966
928.373	13575
928.479	13034
928.585	12795
928.69	12875
928.796	12901
928.901	12867
929.007	12578
929.112	12768
929.218	12772
929.323	12696
929.428	12646
929.533	12772
929.638	12540
929.743	12589
929.848	12608
929.953	12563
930.058	12490
930.163	12330
930.267	12330
930.372	12475
930.477	12353
930.581	12506
930.685	12414
930.79	12228
930.894	12243
930.998	12186
931.103	12342
931.207	11996
931.311	11996
931.415	11771
931.519	11630
931.623	11566
