Data from test_V78500241_3148.txt Node
Date: Fri Mar 25 16:03:36 CST 2022
User: usil
Spectrometer: V785-0024
Trigger mode: 0
Integration Time (sec): 4.000000E-1
Scans to average: 1
Nonlinearity correction enabled: false
Boxcar width: 0
Storing dark spectrum: false
XAxis mode: Wavelengths
Number of Pixels in Spectrum: 1024
>>>>>Begin Spectral Data<<<<<
801.071	28002
801.214	28257
801.356	27953
801.499	27956
801.641	27835
801.783	27622
801.926	27759
802.068	27899
802.211	27591
802.353	27637
802.496	27393
802.638	27397
802.78	27386
802.923	27332
803.065	27260
803.208	27439
803.35	27454
803.492	27606
803.635	27545
803.777	27492
803.919	27515
804.061	27876
804.204	27675
804.346	27648
804.488	27572
804.63	27485
804.773	27416
804.915	27686
805.057	27766
805.199	27690
805.341	27629
805.483	27819
805.626	27759
805.768	27549
805.91	27705
806.052	27686
806.194	27751
806.336	27983
806.478	27778
806.62	27694
806.762	27918
806.904	28078
807.046	28188
807.188	28188
807.33	28329
807.472	28322
807.614	28048
807.756	28169
807.898	28162
808.04	27979
808.182	27934
808.324	28078
808.465	28017
808.607	28371
808.749	28348
808.891	28588
809.033	28641
809.174	28607
809.316	28299
809.458	28382
809.6	28295
809.741	28550
809.883	28432
810.025	28793
810.166	28698
810.308	28767
810.45	28725
810.591	28580
810.733	28443
810.875	28421
811.016	28436
811.158	28348
811.299	28451
811.441	28523
811.582	28504
811.724	28538
811.865	28333
812.007	28417
812.148	28409
812.29	28538
812.431	28668
812.573	28759
812.714	28881
812.855	28957
812.997	29113
813.138	29239
813.279	29037
813.421	28900
813.562	28824
813.703	28702
813.845	28588
813.986	28466
814.127	28196
814.268	28135
814.41	28215
814.551	28105
814.692	28200
814.833	28086
814.974	28025
815.115	28128
815.256	27975
815.397	27907
815.539	27941
815.68	27949
815.821	27903
815.962	27899
816.103	28010
816.244	27793
816.385	27800
816.526	27747
816.666	27686
816.807	27466
816.948	27458
817.089	27580
817.23	27405
817.371	27317
817.512	27393
817.653	27454
817.793	27260
817.934	27435
818.075	27454
818.216	27310
818.356	27306
818.497	27245
818.638	27237
818.778	27173
818.919	27325
819.06	27203
819.2	27214
819.341	27325
819.481	27542
819.622	27755
819.762	27800
819.903	27808
820.043	27557
820.184	27660
820.324	27591
820.465	27599
820.605	27549
820.746	27485
820.886	27405
821.026	27576
821.167	27447
821.307	27504
821.447	27526
821.588	27264
821.728	27131
821.868	26998
822.008	26807
822.149	26982
822.289	26876
822.429	26625
822.569	26659
822.709	26552
822.849	26465
822.99	26434
823.13	26450
823.27	26438
823.41	26240
823.55	25959
823.69	26252
823.83	26180
823.97	26077
824.11	26092
824.25	26016
824.389	26058
824.529	26263
824.669	26035
824.809	26069
824.949	26153
825.089	26122
825.228	26088
825.368	25974
825.508	25982
825.648	25982
825.787	25887
825.927	26008
826.067	25955
826.206	25963
826.346	26050
826.485	25986
826.625	25875
826.765	25894
826.904	25982
827.044	25586
827.183	25723
827.323	25685
827.462	25704
827.601	25662
827.741	25616
827.88	25700
828.02	25651
828.159	25578
828.298	25689
828.437	25597
828.577	25449
828.716	25632
828.855	25529
828.994	25308
829.134	25198
829.273	25312
829.412	25240
829.551	25377
829.69	25297
829.829	25422
829.968	25464
830.107	25289
830.246	25320
830.385	25259
830.524	25266
830.663	25099
830.802	24943
830.941	24996
831.08	24935
831.219	25004
831.357	25076
831.496	25183
831.635	24916
831.774	24787
831.913	24787
832.051	24871
832.19	24711
832.329	24692
832.467	24532
832.606	24532
832.744	24547
832.883	24574
833.022	24505
833.16	24639
833.299	24646
833.437	24787
833.576	24597
833.714	24608
833.852	24715
833.991	24544
834.129	24719
834.267	24760
834.406	24559
834.544	24730
834.682	24806
834.821	24574
834.959	24810
835.097	24608
835.235	24654
835.373	24673
835.511	24715
835.65	24593
835.788	24639
835.926	24407
836.064	24289
836.202	24304
836.34	24418
836.478	24574
836.615	24418
836.753	24448
836.891	24646
837.029	24437
837.167	24464
837.305	24403
837.443	24380
837.58	24334
837.718	24353
837.856	24171
837.993	24285
838.131	24338
838.269	24220
838.406	24232
838.544	24121
838.681	24007
838.819	23950
838.956	23927
839.094	23794
839.231	23847
839.369	24072
839.506	24144
839.643	24064
839.781	23726
839.918	23649
840.055	23935
840.193	23707
840.33	23695
840.467	23840
840.604	23767
840.742	24026
840.879	23467
841.016	23642
841.153	23547
841.29	23794
841.427	23824
841.564	23779
841.701	23566
841.838	23661
841.975	23573
842.112	23512
842.249	23547
842.385	23486
842.522	23687
842.659	23471
842.796	23395
842.933	23448
843.069	23341
843.206	23406
843.343	23524
843.479	23512
843.616	23436
843.752	23223
843.889	23337
844.025	23372
844.162	23159
844.298	23284
844.435	23303
844.571	23288
844.708	23387
844.844	23433
844.98	23360
845.117	23322
845.253	23174
845.389	23124
845.525	23044
845.661	23113
845.798	23010
845.934	23041
846.07	22976
846.206	22908
846.342	23048
846.478	22911
846.614	22771
846.75	22740
846.886	22615
847.022	22713
847.158	22782
847.294	22740
847.429	22656
847.565	22702
847.701	22953
847.837	22489
847.972	22398
848.108	22561
848.244	22577
848.379	22337
848.515	22242
848.65	22356
848.786	22219
848.921	22276
849.057	22432
849.192	22337
849.328	22348
849.463	22265
849.598	22322
849.734	22249
849.869	22173
850.004	22078
850.14	21987
850.275	22048
850.41	21998
850.545	22017
850.68	22006
850.815	22116
850.95	22055
851.085	22242
851.22	22242
851.355	22211
851.49	22093
851.625	22048
851.76	22078
851.895	22021
852.03	21911
852.165	21884
852.299	22090
852.434	22166
852.569	22051
852.703	21994
852.838	22032
852.973	22219
853.107	22120
853.242	22101
853.376	21884
853.511	21835
853.645	21945
853.78	22051
853.914	21827
854.048	21762
854.183	21755
854.317	21876
854.451	22192
854.585	21831
854.72	21850
854.854	21949
854.988	21915
855.122	21819
855.256	21804
855.39	21831
855.524	21964
855.658	21774
855.792	22097
855.926	21857
856.06	21865
856.194	21949
856.327	21941
856.461	21766
856.595	21861
856.729	21857
856.862	21979
856.996	21937
857.13	21915
857.263	21956
857.397	22032
857.53	21838
857.664	21953
857.797	21979
857.931	21903
858.064	21892
858.197	22040
858.331	22006
858.464	21785
858.597	21823
858.731	21899
858.864	21717
858.997	21911
859.13	21827
859.263	21880
859.396	21892
859.529	21857
859.662	21831
859.795	21739
859.928	21880
860.061	22143
860.194	22051
860.327	21968
860.46	21922
860.592	22002
860.725	21991
860.858	22169
860.99	21854
861.123	21831
861.256	21854
861.388	21899
861.521	22489
861.653	21884
861.786	21701
861.918	21660
862.05	21785
862.183	21998
862.315	21789
862.447	21953
862.58	21755
862.712	21633
862.844	21568
862.976	21770
863.108	21637
863.24	21975
863.372	21576
863.504	21519
863.636	21523
863.768	21641
863.9	21572
864.032	21538
864.164	21485
864.296	21603
864.428	21663
864.559	21545
864.691	21637
864.823	21610
864.954	21583
865.086	21526
865.217	21485
865.349	21367
865.48	21488
865.612	21603
865.743	21641
865.875	21507
866.006	21397
866.137	21408
866.269	21458
866.4	21485
866.531	21473
866.662	21500
866.793	21439
866.924	21348
867.055	21477
867.186	21363
867.317	21363
867.448	21355
867.579	21424
867.71	21348
867.841	21272
867.972	21447
868.103	21469
868.233	21332
868.364	21431
868.495	21473
868.625	21705
868.756	21755
868.886	21667
869.017	21576
869.147	21819
869.278	21842
869.408	21629
869.539	21641
869.669	21690
869.799	21641
869.929	21816
870.06	21816
870.19	21907
870.32	21956
870.45	21998
870.58	22006
870.71	22086
870.84	22158
870.97	22105
871.1	21979
871.23	22234
871.36	22257
871.489	22097
871.619	22166
871.749	22246
871.879	22318
872.008	22432
872.138	22280
872.267	22356
872.397	22211
872.526	22013
872.656	22063
872.785	22120
872.915	22363
873.044	22402
873.173	22299
873.303	22280
873.432	22352
873.561	22352
873.69	22318
873.819	22333
873.948	22402
874.077	22284
874.206	22291
874.335	22185
874.464	22424
874.593	22531
874.722	22440
874.851	22527
874.979	22500
875.108	22512
875.237	22348
875.365	22367
875.494	22363
875.623	22481
875.751	22538
875.88	22580
876.008	22679
876.136	22729
876.265	22767
876.393	23094
876.521	22980
876.65	22896
876.778	22984
876.906	22824
877.034	22812
877.162	22854
877.29	22831
877.418	22900
877.546	22828
877.674	22797
877.802	22843
877.93	22782
878.058	22835
878.185	22748
878.313	22812
878.441	22767
878.568	22653
878.696	22881
878.824	23037
878.951	22938
879.079	22919
879.206	23105
879.333	23052
879.461	22942
879.588	22930
879.715	22877
879.842	23132
879.97	22828
880.097	22721
880.224	22653
880.351	22710
880.478	22656
880.605	22641
880.732	22755
880.859	22889
880.986	22691
881.112	22687
881.239	22519
881.366	22325
881.493	22424
881.619	22188
881.746	22272
881.872	22295
881.999	22310
882.125	22101
882.252	22188
882.378	22204
882.505	22363
882.631	22196
882.757	21865
882.883	21953
883.01	21922
883.136	22002
883.262	21705
883.388	21808
883.514	21838
883.64	21903
883.766	21774
883.892	21511
884.018	21732
884.143	21766
884.269	21949
884.395	21629
884.52	21644
884.646	21606
884.772	21473
884.897	21458
885.023	21557
885.148	21622
885.274	21816
885.399	21637
885.524	21656
885.65	21614
885.775	21583
885.9	21488
886.025	21671
886.15	21633
886.275	21443
886.4	21603
886.525	21591
886.65	21473
886.775	21435
886.9	21679
887.025	21781
887.149	21534
887.274	21317
887.399	21272
887.523	21416
887.648	21218
887.773	21310
887.897	21420
888.021	21336
888.146	21367
888.27	21431
888.395	21439
888.519	21367
888.643	21401
888.767	21241
888.891	21321
889.015	21142
889.139	21230
889.263	21150
889.387	21161
889.511	21298
889.635	21233
889.759	21093
889.883	21150
890.006	21150
890.13	21176
890.254	20914
890.377	21043
890.501	20906
890.624	20895
890.748	20883
890.871	20705
890.995	20727
891.118	20682
891.241	20735
891.364	20579
891.488	20861
891.611	20735
891.734	20724
891.857	20636
891.98	20727
892.103	20716
892.226	20735
892.349	20670
892.471	20423
892.594	20686
892.717	20644
892.839	20587
892.962	20571
893.085	20773
893.207	20579
893.33	20442
893.452	20541
893.575	20625
893.697	20640
893.819	20720
893.941	20746
894.064	20655
894.186	20545
894.308	20381
894.43	20621
894.552	20788
894.674	20644
894.796	20511
894.918	20450
895.04	20625
895.161	20571
895.283	20587
895.405	20438
895.526	20568
895.648	20545
895.769	20575
895.891	20568
896.012	20689
896.134	20731
896.255	20590
896.376	20568
896.498	20568
896.619	20530
896.74	20617
896.861	20579
896.982	20906
897.103	20925
897.224	20842
897.345	20800
897.466	20758
897.587	20800
897.708	20944
897.828	20823
897.949	20678
898.07	20670
898.19	20560
898.311	20663
898.431	20777
898.552	20800
898.672	20838
898.792	20883
898.913	20735
899.033	20545
899.153	20522
899.273	20522
899.393	20511
899.513	20495
899.633	20526
899.753	20450
899.873	20434
899.993	20537
900.113	20579
900.232	20514
900.352	20385
900.472	20427
900.591	20301
900.711	20221
900.83	20237
900.95	20507
901.069	20328
901.189	20240
901.308	19894
901.427	19788
901.546	19864
901.665	19845
901.784	19849
901.904	19674
902.023	19586
902.141	19403
902.26	19438
902.379	19506
902.498	19441
902.617	19411
902.735	19400
902.854	19304
902.973	19228
903.091	19122
903.21	19145
903.328	19012
903.446	18935
903.565	18882
903.683	18848
903.801	18734
903.919	18764
904.038	18783
904.156	18665
904.274	18673
904.392	18616
904.51	18544
904.627	18707
904.745	18578
904.863	18639
904.981	18418
905.098	18289
905.216	18270
905.334	18186
905.451	18323
905.569	18262
905.686	18285
905.803	18315
905.921	18060
906.038	18197
906.155	18053
906.272	17999
906.389	17977
906.506	17817
906.623	17813
906.74	17764
906.857	17783
906.974	17680
907.091	17802
907.208	17980
907.324	17851
907.441	17649
907.557	17520
907.674	17463
907.79	17448
907.907	17440
908.023	17558
908.139	17425
908.256	17596
908.372	17398
908.488	17299
908.604	17220
908.72	17277
908.836	17334
908.952	17223
909.068	17235
909.184	17254
909.3	17189
909.415	17185
909.531	17117
909.647	17079
909.762	16980
909.878	16957
909.993	16911
910.108	16908
910.224	16847
910.339	16927
910.454	16801
910.57	16710
910.685	16710
910.8	16946
910.915	16782
911.03	16729
911.145	16561
911.259	16470
911.374	16565
911.489	16432
911.604	16424
911.718	16333
911.833	16337
911.947	16188
912.062	16017
912.176	16310
912.291	16310
912.405	16303
912.519	16424
912.633	16436
912.748	16352
912.862	16268
912.976	16120
913.09	15915
913.204	15983
913.318	16158
913.431	16105
913.545	16082
913.659	16105
913.772	16120
913.886	15888
914	15884
914.113	15861
914.226	15884
914.34	15972
914.453	15816
914.566	15865
914.68	15755
914.793	15690
914.906	15656
915.019	15507
915.132	15530
915.245	15519
915.358	15447
915.47	15447
915.583	15530
915.696	15576
915.809	15568
915.921	15557
916.034	15393
916.146	15344
916.259	15397
916.371	15348
916.483	15469
916.595	15454
916.708	15291
916.82	15226
916.932	15298
917.044	15306
917.156	15207
917.268	15112
917.38	15070
917.491	15055
917.603	15195
917.715	15123
917.826	15207
917.938	15036
918.049	14937
918.161	15062
918.272	15169
918.384	15131
918.495	15058
918.606	14952
918.717	14819
918.828	14929
918.939	14864
919.05	14762
919.161	14979
919.272	14587
919.383	14708
919.494	14937
919.604	15055
919.715	14853
919.826	14769
919.936	14838
920.047	14895
920.157	14819
920.267	15104
920.378	14800
920.488	14678
920.598	14979
920.708	15150
920.818	15051
920.928	14941
921.038	15017
921.148	15028
921.258	14773
921.368	14644
921.477	14556
921.587	14473
921.697	14552
921.806	14537
921.916	14385
922.025	14267
922.134	14164
922.244	14062
922.353	14267
922.462	14077
922.571	14008
922.68	13864
922.789	13811
922.898	13738
923.007	13822
923.116	13894
923.224	13753
923.333	13742
923.442	13750
923.55	13643
923.659	13677
923.767	13795
923.876	13628
923.984	13651
924.092	13540
924.201	13567
924.309	13506
924.417	13495
924.525	13483
924.633	13483
924.741	14271
924.849	13297
924.956	13464
925.064	13304
925.172	13236
925.279	13168
925.387	13194
925.494	13285
925.602	13392
925.709	13198
925.816	13137
925.924	13156
926.031	13225
926.138	13110
926.245	13206
926.352	13050
926.459	13251
926.566	13198
926.673	13133
926.779	13046
926.886	13000
926.993	12757
927.099	12829
927.206	12837
927.312	12753
927.419	12886
927.525	12745
927.631	12806
927.737	12662
927.843	12601
927.95	12486
928.056	12631
928.162	12635
928.267	12669
928.373	13244
928.479	12593
928.585	12475
928.69	12589
928.796	12589
928.901	12452
929.007	12330
929.112	12471
929.218	12433
929.323	12380
929.428	12232
929.533	12452
929.638	12311
929.743	12304
929.848	12334
929.953	12235
930.058	12117
930.163	11946
930.267	12114
930.372	12197
930.477	11984
930.581	12232
930.685	12049
930.79	11923
930.894	11904
930.998	11870
931.103	11942
931.207	11729
931.311	11535
931.415	11551
931.519	11280
931.623	11258
