Data from test_V78500241_2162.txt Node
Date: Fri Mar 25 15:56:46 CST 2022
User: usil
Spectrometer: V785-0024
Trigger mode: 0
Integration Time (sec): 4.000000E-1
Scans to average: 1
Nonlinearity correction enabled: false
Boxcar width: 0
Storing dark spectrum: false
XAxis mode: Wavelengths
Number of Pixels in Spectrum: 1024
>>>>>Begin Spectral Data<<<<<
801.071	28896
801.214	28923
801.356	28725
801.499	28630
801.641	28459
801.783	28531
801.926	28599
802.068	28531
802.211	28466
802.353	28478
802.496	28265
802.638	28238
802.78	28223
802.923	28101
803.065	28162
803.208	28078
803.35	28306
803.492	28440
803.635	28348
803.777	28356
803.919	28561
804.061	28881
804.204	28504
804.346	28436
804.488	28523
804.63	28390
804.773	28356
804.915	28459
805.057	28660
805.199	28436
805.341	28489
805.483	28656
805.626	28656
805.768	28599
805.91	28687
806.052	28778
806.194	28679
806.336	28759
806.478	28698
806.62	28706
806.762	28759
806.904	28908
807.046	29379
807.188	29143
807.33	29292
807.472	29242
807.614	29067
807.756	28984
807.898	28976
808.04	28957
808.182	28831
808.324	28965
808.465	28942
808.607	29200
808.749	29345
808.891	29478
809.033	29520
809.174	29497
809.316	29360
809.458	29440
809.6	29440
809.741	29516
809.883	29570
810.025	29623
810.166	29707
810.308	29653
810.45	29585
810.591	29512
810.733	29501
810.875	29364
811.016	29368
811.158	29242
811.299	29551
811.441	29703
811.582	29554
811.724	29436
811.865	29288
812.007	29425
812.148	29379
812.29	29387
812.431	29459
812.573	29714
812.714	29589
812.855	29855
812.997	30064
813.138	30079
813.279	30049
813.421	29988
813.562	29885
813.703	29733
813.845	29486
813.986	29379
814.127	29155
814.268	29018
814.41	29189
814.551	29178
814.692	29105
814.833	29140
814.974	29071
815.115	29155
815.256	28995
815.397	28972
815.539	29003
815.68	28904
815.821	28637
815.962	28976
816.103	28930
816.244	28854
816.385	28717
816.526	28618
816.666	28516
816.807	28409
816.948	28577
817.089	28478
817.23	28455
817.371	28561
817.512	28272
817.653	28363
817.793	28284
817.934	28382
818.075	28443
818.216	28443
818.356	28386
818.497	28306
818.638	28135
818.778	28010
818.919	28211
819.06	28181
819.2	28322
819.341	28554
819.481	28531
819.622	28542
819.762	28744
819.903	28668
820.043	28618
820.184	28550
820.324	28569
820.465	28615
820.605	28565
820.746	28538
820.886	28508
821.026	28569
821.167	28375
821.307	28489
821.447	28417
821.588	28128
821.728	28272
821.868	27953
822.008	27823
822.149	27831
822.289	27972
822.429	27648
822.569	27720
822.709	27637
822.849	27424
822.99	27427
823.13	27378
823.27	27420
823.41	27131
823.55	27154
823.69	27207
823.83	27131
823.97	27150
824.11	27093
824.25	26845
824.389	27100
824.529	27127
824.669	26994
824.809	27233
824.949	27157
825.089	27192
825.228	27036
825.368	26998
825.508	26842
825.648	26910
825.787	26990
825.927	26872
826.067	26872
826.206	26830
826.346	26925
826.485	27005
826.625	26956
826.765	27013
826.904	27203
827.044	26670
827.183	26663
827.323	26552
827.462	26640
827.601	26621
827.741	26663
827.88	26705
828.02	26552
828.159	26686
828.298	26727
828.437	26693
828.577	26640
828.716	26720
828.855	26636
828.994	26393
829.134	26404
829.273	26336
829.412	26267
829.551	26301
829.69	26294
829.829	26393
829.968	26465
830.107	26423
830.246	26419
830.385	26309
830.524	26275
830.663	26225
830.802	26077
830.941	26046
831.08	25951
831.219	26092
831.357	25997
831.496	26225
831.635	25974
831.774	25784
831.913	25883
832.051	25795
832.19	25845
832.329	25693
832.467	25590
832.606	25643
832.744	25624
832.883	25601
833.022	25586
833.16	25670
833.299	25708
833.437	25670
833.576	25700
833.714	25700
833.852	25784
833.991	25780
834.129	25837
834.267	25719
834.406	25685
834.544	25734
834.682	25704
834.821	25685
834.959	25833
835.097	25647
835.235	25734
835.373	25833
835.511	25567
835.65	25639
835.788	25483
835.926	25373
836.064	25270
836.202	25381
836.34	25483
836.478	25495
836.615	25533
836.753	25601
836.891	25537
837.029	25483
837.167	25430
837.305	25362
837.443	25266
837.58	25365
837.718	25324
837.856	25381
837.993	25278
838.131	25236
838.269	25274
838.406	25213
838.544	25084
838.681	25065
838.819	24932
838.956	24779
839.094	24844
839.231	24829
839.369	24935
839.506	25179
839.643	25072
839.781	24878
839.918	24692
840.055	24642
840.193	24791
840.33	24604
840.467	24650
840.604	24913
840.742	24970
840.879	24631
841.016	24536
841.153	24403
841.29	24844
841.427	24593
841.564	24703
841.701	24631
841.838	24635
841.975	24540
842.112	24715
842.249	24502
842.385	24376
842.522	24684
842.659	24642
842.796	24448
842.933	24460
843.069	24407
843.206	24407
843.343	24555
843.479	24483
843.616	24441
843.752	24201
843.889	24194
844.025	24357
844.162	24247
844.298	24251
844.435	24235
844.571	24186
844.708	24235
844.844	24399
844.98	24281
845.117	24228
845.253	24159
845.389	23977
845.525	24171
845.661	23935
845.798	24064
845.934	23958
846.07	23916
846.206	23912
846.342	23961
846.478	23992
846.614	23813
846.75	23558
846.886	23661
847.022	23691
847.158	23760
847.294	23672
847.429	23676
847.565	23710
847.701	23908
847.837	23330
847.972	23505
848.108	23554
848.244	23455
848.379	23315
848.515	23223
848.65	23197
848.786	23235
848.921	23246
849.057	23402
849.192	23337
849.328	23254
849.463	23280
849.598	23258
849.734	23105
849.869	23048
850.004	23071
850.14	23117
850.275	22949
850.41	22999
850.545	22942
850.68	22930
850.815	22923
850.95	23083
851.085	23056
851.22	22991
851.355	23079
851.49	23056
851.625	22991
851.76	23083
851.895	22972
852.03	22942
852.165	22984
852.299	23109
852.434	23071
852.569	23109
852.703	22987
852.838	23204
852.973	23140
853.107	23155
853.242	22881
853.376	22763
853.511	22710
853.645	22721
853.78	23075
853.914	22793
854.048	22767
854.183	22755
854.317	22812
854.451	23025
854.585	22942
854.72	22858
854.854	22904
854.988	22816
855.122	22843
855.256	22782
855.39	22778
855.524	22930
855.658	22961
855.792	22809
855.926	22942
856.06	22923
856.194	22892
856.327	22835
856.461	22683
856.595	22858
856.729	22778
856.862	22942
856.996	22934
857.13	22915
857.263	22881
857.397	22991
857.53	22797
857.664	22790
857.797	22729
857.931	23060
858.064	22835
858.197	22930
858.331	22786
858.464	22793
858.597	22641
858.731	22736
858.864	22774
858.997	22729
859.13	22805
859.263	22805
859.396	23048
859.529	22748
859.662	22733
859.795	22793
859.928	22816
860.061	22927
860.194	23041
860.327	22862
860.46	22915
860.592	22984
860.725	23075
860.858	22923
860.99	22946
861.123	22809
861.256	22744
861.388	22824
861.521	23410
861.653	22733
861.786	22672
861.918	22577
862.05	22725
862.183	22672
862.315	22596
862.447	22809
862.58	22580
862.712	22546
862.844	22451
862.976	22679
863.108	22611
863.24	23003
863.372	22421
863.504	22588
863.636	22554
863.768	22634
863.9	22538
864.032	22375
864.164	22516
864.296	22424
864.428	22641
864.559	22500
864.691	22527
864.823	22554
864.954	22542
865.086	22538
865.217	22413
865.349	22291
865.48	22474
865.612	22417
865.743	22512
865.875	22481
866.006	22402
866.137	22310
866.269	22386
866.4	22371
866.531	22432
866.662	22299
866.793	22344
866.924	22215
867.055	22265
867.186	22299
867.317	22386
867.448	22215
867.579	22314
867.71	22185
867.841	22242
867.972	22417
868.103	22306
868.233	22455
868.364	22306
868.495	22466
868.625	22443
868.756	22618
868.886	22466
869.017	22584
869.147	22603
869.278	22744
869.408	22569
869.539	22603
869.669	22687
869.799	22641
869.929	22634
870.06	22660
870.19	22896
870.32	22763
870.45	22930
870.58	22835
870.71	23086
870.84	23010
870.97	22869
871.1	22991
871.23	23124
871.36	23261
871.489	23109
871.619	23136
871.749	23105
871.879	23121
872.008	23162
872.138	23147
872.267	23162
872.397	23075
872.526	23022
872.656	22949
872.785	23071
872.915	23242
873.044	23140
873.173	23277
873.303	23197
873.432	23273
873.561	23090
873.69	23117
873.819	23083
873.948	23280
874.077	23200
874.206	23048
874.335	23159
874.464	23124
874.593	23414
874.722	23478
874.851	23444
874.979	23372
875.108	23547
875.237	23360
875.365	23261
875.494	23436
875.623	23436
875.751	23410
875.88	23387
876.008	23562
876.136	23642
876.265	23828
876.393	23779
876.521	23840
876.65	23870
876.778	23798
876.906	23600
877.034	23760
877.162	23665
877.29	23627
877.418	23878
877.546	23752
877.674	23665
877.802	23699
877.93	23741
878.058	23760
878.185	23493
878.313	23668
878.441	23707
878.568	23535
878.696	23767
878.824	23775
878.951	23687
879.079	23824
879.206	23961
879.333	23939
879.461	23722
879.588	23775
879.715	23916
879.842	23866
879.97	23779
880.097	23531
880.224	23646
880.351	23741
880.478	23528
880.605	23486
880.732	23554
880.859	23695
880.986	23471
881.112	23535
881.239	23299
881.366	23159
881.493	23162
881.619	23143
881.746	23086
881.872	23124
881.999	23155
882.125	22953
882.252	23239
882.378	23022
882.505	23174
882.631	22991
882.757	22748
882.883	22801
883.01	22774
883.136	22752
883.262	22580
883.388	22516
883.514	22820
883.64	22820
883.766	22778
883.892	22424
884.018	22554
884.143	22634
884.269	22748
884.395	22455
884.52	22390
884.646	22382
884.772	22436
884.897	22314
885.023	22573
885.148	22512
885.274	22481
885.399	22489
885.524	22299
885.65	22371
885.775	22489
885.9	22352
886.025	22428
886.15	22462
886.275	22333
886.4	22230
886.525	22409
886.65	22276
886.775	22272
886.9	22603
887.025	22584
887.149	22390
887.274	22303
887.399	22166
887.523	22097
887.648	22150
887.773	22082
887.897	22226
888.021	22207
888.146	22086
888.27	22166
888.395	22135
888.519	22086
888.643	22131
888.767	22139
888.891	22131
889.015	22059
889.139	22010
889.263	21915
889.387	22029
889.511	22074
889.635	22048
889.759	21865
889.883	21922
890.006	21888
890.13	21987
890.254	21892
890.377	21835
890.501	21705
890.624	21633
890.748	21709
890.871	21629
890.995	21561
891.118	21538
891.241	21454
891.364	21485
891.488	21526
891.611	21443
891.734	21538
891.857	21580
891.98	21321
892.103	21439
892.226	21492
892.349	21492
892.471	21233
892.594	21389
892.717	21272
892.839	21428
892.962	21439
893.085	21374
893.207	21447
893.33	21230
893.452	21329
893.575	21367
893.697	21287
893.819	21393
893.941	21618
894.064	21466
894.186	21256
894.308	21241
894.43	21458
894.552	21515
894.674	21458
894.796	21294
894.918	21325
895.04	21214
895.161	21336
895.283	21370
895.405	21237
895.526	21340
895.648	21291
895.769	21294
895.891	21260
896.012	21378
896.134	21397
896.255	21252
896.376	21279
896.498	21237
896.619	21256
896.74	21447
896.861	21363
896.982	21515
897.103	21823
897.224	21557
897.345	21561
897.466	21477
897.587	21538
897.708	21705
897.828	21428
897.949	21515
898.07	21329
898.19	21481
898.311	21599
898.431	21458
898.552	21587
898.672	21481
898.792	21633
898.913	21599
899.033	21291
899.153	21313
899.273	21256
899.393	21207
899.513	21245
899.633	21310
899.753	21222
899.873	21249
899.993	21165
900.113	21154
900.232	21104
900.352	21150
900.472	21039
900.591	20982
900.711	21017
900.83	21020
900.95	21089
901.069	21085
901.189	20887
901.308	20689
901.427	20552
901.546	20686
901.665	20590
901.784	20514
901.904	20454
902.023	20290
902.141	20145
902.26	20073
902.379	20161
902.498	20065
902.617	20122
902.735	20103
902.854	20054
902.973	19883
903.091	19795
903.21	19753
903.328	19723
903.446	19700
903.565	19502
903.683	19518
903.801	19324
903.919	19582
904.038	19457
904.156	19301
904.274	19460
904.392	19297
904.51	19335
904.627	19259
904.745	19388
904.863	19259
904.981	18973
905.098	19080
905.216	18970
905.334	18924
905.451	19008
905.569	18905
905.686	19004
905.803	18871
905.921	18779
906.038	18840
906.155	18829
906.272	18620
906.389	18650
906.506	18448
906.623	18460
906.74	18460
906.857	18407
906.974	18494
907.091	18498
907.208	18517
907.324	18540
907.441	18308
907.557	18194
907.674	18228
907.79	18155
907.907	18129
908.023	18369
908.139	18213
908.256	18095
908.372	18045
908.488	18114
908.604	17965
908.72	17916
908.836	17939
908.952	17821
909.068	17954
909.184	17999
909.3	17824
909.415	17805
909.531	17866
909.647	17695
909.762	17676
909.878	17630
909.993	17611
910.108	17589
910.224	17623
910.339	17592
910.454	17391
910.57	17433
910.685	17334
910.8	17649
910.915	17547
911.03	17353
911.145	17208
911.259	17208
911.374	17159
911.489	17086
911.604	17018
911.718	16957
911.833	16923
911.947	16771
912.062	16717
912.176	17029
912.291	16938
912.405	16904
912.519	17143
912.633	17208
912.748	16850
912.862	16831
912.976	16725
913.09	16584
913.204	16634
913.318	16599
913.431	16721
913.545	16835
913.659	16755
913.772	16596
913.886	16512
914	16478
914.113	16512
914.226	16573
914.34	16542
914.453	16348
914.566	16432
914.68	16299
914.793	16234
914.906	16261
915.019	16059
915.132	16006
915.245	16120
915.358	16082
915.47	16090
915.583	15998
915.696	16063
915.809	16169
915.921	16109
916.034	15937
916.146	16013
916.259	15892
916.371	16025
916.483	16097
916.595	15854
916.708	15835
916.82	15846
916.932	15865
917.044	15747
917.156	15766
917.268	15675
917.38	15682
917.491	15641
917.603	15679
917.715	15823
917.826	15732
917.938	15667
918.049	15519
918.161	15587
918.272	15717
918.384	15660
918.495	15686
918.606	15515
918.717	15435
918.828	15424
918.939	15477
919.05	15348
919.161	15454
919.272	15283
919.383	15161
919.494	15450
919.604	15629
919.715	15488
919.826	15272
919.936	15302
920.047	15519
920.157	15313
920.267	15504
920.378	15405
920.488	15359
920.598	15534
920.708	15663
920.818	15485
920.928	15526
921.038	15553
921.148	15557
921.258	15195
921.368	15214
921.477	15077
921.587	15108
921.697	14891
921.806	15055
921.916	14899
922.025	14876
922.134	14826
922.244	14625
922.353	14815
922.462	14545
922.571	14629
922.68	14324
922.789	14339
922.898	14328
923.007	14225
923.116	14332
923.224	14484
923.333	14183
923.442	14225
923.55	14180
923.659	14157
923.767	14259
923.876	14126
923.984	14218
924.092	14027
924.201	14088
924.309	14088
924.417	14039
924.525	14062
924.633	14012
924.741	14697
924.849	13803
924.956	13887
925.064	13757
925.172	13742
925.279	13715
925.387	13727
925.494	13712
925.602	13928
925.709	13734
925.816	13624
925.924	13658
926.031	13719
926.138	13666
926.245	13674
926.352	13601
926.459	13643
926.566	13719
926.673	13594
926.779	13441
926.886	13457
926.993	13171
927.099	13263
927.206	13202
927.312	13133
927.419	13316
927.525	13209
927.631	13377
927.737	13206
927.843	12981
927.95	13023
928.056	13156
928.162	13126
928.267	13053
928.373	13719
928.479	13149
928.585	12939
928.69	13019
928.796	13103
928.901	13038
929.007	12840
929.112	12882
929.218	12890
929.323	12844
929.428	12753
929.533	12909
929.638	12741
929.743	12719
929.848	12840
929.953	12707
930.058	12471
930.163	12414
930.267	12403
930.372	12578
930.477	12395
930.581	12658
930.685	12540
930.79	12327
930.894	12361
930.998	12201
931.103	12376
931.207	11988
931.311	11988
931.415	11843
931.519	11638
931.623	11745
