Data from test_V78500241_118.txt Node
Date: Fri Mar 25 15:42:37 CST 2022
User: usil
Spectrometer: V785-0024
Trigger mode: 0
Integration Time (sec): 4.000000E-1
Scans to average: 1
Nonlinearity correction enabled: false
Boxcar width: 0
Storing dark spectrum: false
XAxis mode: Wavelengths
Number of Pixels in Spectrum: 1024
>>>>>Begin Spectral Data<<<<<
801.071	30015
801.214	29802
801.356	29535
801.499	29410
801.641	29372
801.783	29493
801.926	29330
802.068	29353
802.211	29170
802.353	29090
802.496	28892
802.638	28904
802.78	29117
802.923	28984
803.065	28930
803.208	28942
803.35	29018
803.492	29041
803.635	29231
803.777	29022
803.919	29235
804.061	29509
804.204	29200
804.346	29155
804.488	28946
804.63	29033
804.773	28957
804.915	29064
805.057	29124
805.199	29102
805.341	29227
805.483	29128
805.626	29269
805.768	28999
805.91	29166
806.052	29162
806.194	29155
806.336	29334
806.478	29208
806.62	29204
806.762	29383
806.904	29421
807.046	29767
807.188	29547
807.33	29642
807.472	29573
807.614	29531
807.756	29516
807.898	29318
808.04	29395
808.182	29410
808.324	29482
808.465	29303
808.607	29512
808.749	29726
808.891	29889
809.033	29889
809.174	29851
809.316	29748
809.458	29657
809.6	29764
809.741	29802
809.883	29832
810.025	30022
810.166	29882
810.308	29832
810.45	30030
810.591	29931
810.733	29748
810.875	29676
811.016	29805
811.158	29497
811.299	29847
811.441	29927
811.582	29821
811.724	29695
811.865	29608
812.007	29695
812.148	29722
812.29	29638
812.431	29927
812.573	29882
812.714	30114
812.855	30201
812.997	30311
813.138	30323
813.279	30296
813.421	30201
813.562	30163
813.703	29752
813.845	29908
813.986	29611
814.127	29604
814.268	29356
814.41	29170
814.551	29216
814.692	29337
814.833	29170
814.974	29364
815.115	29296
815.256	29105
815.397	29189
815.539	29117
815.68	29132
815.821	28881
815.962	29041
816.103	28976
816.244	28942
816.385	28771
816.526	28649
816.666	28565
816.807	28436
816.948	28478
817.089	28592
817.23	28417
817.371	28535
817.512	28470
817.653	28474
817.793	28428
817.934	28405
818.075	28440
818.216	28382
818.356	28215
818.497	28242
818.638	28131
818.778	28147
818.919	28162
819.06	28181
819.2	28249
819.341	28341
819.481	28284
819.622	28470
819.762	28675
819.903	28561
820.043	28474
820.184	28421
820.324	28409
820.465	28523
820.605	28512
820.746	28398
820.886	28223
821.026	28280
821.167	28447
821.307	28291
821.447	28497
821.588	28074
821.728	28116
821.868	27953
822.008	27705
822.149	27770
822.289	27675
822.429	27557
822.569	27408
822.709	27344
822.849	27135
822.99	27173
823.13	27211
823.27	27096
823.41	26967
823.55	26864
823.69	27074
823.83	27024
823.97	26933
824.11	26804
824.25	26648
824.389	26689
824.529	26925
824.669	26579
824.809	26857
824.949	26887
825.089	26864
825.228	26777
825.368	26640
825.508	26568
825.648	26526
825.787	26632
825.927	26644
826.067	26625
826.206	26522
826.346	26606
826.485	26564
826.625	26571
826.765	26716
826.904	26476
827.044	26389
827.183	26267
827.323	26180
827.462	26336
827.601	26389
827.741	26317
827.88	26218
828.02	26195
828.159	26084
828.298	26286
828.437	26374
828.577	26172
828.716	26199
828.855	26039
828.994	26043
829.134	26096
829.273	26058
829.412	25822
829.551	25849
829.69	25970
829.829	25982
829.968	25871
830.107	25868
830.246	25906
830.385	25868
830.524	25723
830.663	25719
830.802	25586
830.941	25575
831.08	25384
831.219	25476
831.357	25487
831.496	25601
831.635	25388
831.774	25308
831.913	25240
832.051	25259
832.19	25050
832.329	25156
832.467	25202
832.606	25034
832.744	25012
832.883	24958
833.022	25072
833.16	24947
833.299	25114
833.437	25000
833.576	25088
833.714	25145
833.852	25080
833.991	25175
834.129	25190
834.267	25065
834.406	25057
834.544	24985
834.682	25004
834.821	24913
834.959	25187
835.097	24905
835.235	25065
835.373	24970
835.511	25008
835.65	24833
835.788	24802
835.926	24673
836.064	24734
836.202	24711
836.34	24722
836.478	24951
836.615	24734
836.753	24901
836.891	24791
837.029	24719
837.167	24863
837.305	24753
837.443	24665
837.58	24715
837.718	24692
837.856	24837
837.993	24635
838.131	24722
838.269	24623
838.406	24502
838.544	24604
838.681	24235
838.819	24277
838.956	24205
839.094	24064
839.231	24152
839.369	24167
839.506	24490
839.643	24342
839.781	23897
839.918	23973
840.055	24018
840.193	24007
840.33	24018
840.467	23965
840.604	24095
840.742	24201
840.879	23809
841.016	23939
841.153	23885
841.29	24030
841.427	23939
841.564	23977
841.701	23912
841.838	23946
841.975	23802
842.112	23916
842.249	23703
842.385	23687
842.522	23756
842.659	23687
842.796	23596
842.933	23668
843.069	23516
843.206	23505
843.343	23585
843.479	23600
843.616	23577
843.752	23345
843.889	23444
844.025	23539
844.162	23440
844.298	23429
844.435	23379
844.571	23334
844.708	23349
844.844	23482
844.98	23349
845.117	23402
845.253	23334
845.389	23345
845.525	23372
845.661	23174
845.798	23090
845.934	23044
846.07	23090
846.206	23140
846.342	23197
846.478	23006
846.614	22850
846.75	22721
846.886	22767
847.022	22934
847.158	22793
847.294	22767
847.429	22763
847.565	22763
847.701	22938
847.837	22466
847.972	22417
848.108	22512
848.244	22561
848.379	22451
848.515	22329
848.65	22413
848.786	22287
848.921	22413
849.057	22402
849.192	22356
849.328	22306
849.463	22356
849.598	22322
849.734	22211
849.869	22204
850.004	22196
850.14	21968
850.275	22116
850.41	22006
850.545	21918
850.68	22063
850.815	22166
850.95	21972
851.085	22120
851.22	22120
851.355	22029
851.49	21994
851.625	22002
851.76	22067
851.895	21983
852.03	21956
852.165	21987
852.299	21949
852.434	22070
852.569	22063
852.703	21968
852.838	21987
852.973	22116
853.107	22097
853.242	22036
853.376	21831
853.511	21690
853.645	21789
853.78	21968
853.914	21774
854.048	21743
854.183	21770
854.317	21945
854.451	21884
854.585	21781
854.72	21766
854.854	21857
854.988	21850
855.122	21884
855.256	21766
855.39	21869
855.524	22048
855.658	21892
855.792	21823
855.926	21728
856.06	21903
856.194	21937
856.327	21899
856.461	21785
856.595	21637
856.729	21690
856.862	21964
856.996	21857
857.13	21850
857.263	21979
857.397	21873
857.53	21732
857.664	21884
857.797	21876
857.931	21903
858.064	21907
858.197	21880
858.331	21682
858.464	21614
858.597	21656
858.731	21736
858.864	21713
858.997	21648
859.13	21892
859.263	21842
859.396	21869
859.529	21717
859.662	21591
859.795	21743
859.928	21747
860.061	21819
860.194	21850
860.327	21698
860.46	21656
860.592	21743
860.725	21812
860.858	21865
860.99	21686
861.123	21606
861.256	21625
861.388	21797
861.521	22230
861.653	21724
861.786	21530
861.918	21633
862.05	21743
862.183	21698
862.315	21800
862.447	21850
862.58	21732
862.712	21511
862.844	21542
862.976	21648
863.108	21511
863.24	21770
863.372	21431
863.504	21466
863.636	21386
863.768	21458
863.9	21393
864.032	21226
864.164	21443
864.296	21500
864.428	21473
864.559	21405
864.691	21549
864.823	21523
864.954	21420
865.086	21405
865.217	21408
865.349	21173
865.48	21306
865.612	21363
865.743	21416
865.875	21332
866.006	21291
866.137	21382
866.269	21199
866.4	21252
866.531	21317
866.662	21260
866.793	21173
866.924	21275
867.055	21237
867.186	21237
867.317	21214
867.448	21142
867.579	21138
867.71	21165
867.841	21058
867.972	21184
868.103	21199
868.233	21119
868.364	21275
868.495	21241
868.625	21500
868.756	21454
868.886	21348
869.017	21428
869.147	21488
869.278	21603
869.408	21378
869.539	21538
869.669	21542
869.799	21534
869.929	21515
870.06	21526
870.19	21713
870.32	21625
870.45	21739
870.58	21755
870.71	21918
870.84	21876
870.97	21934
871.1	21797
871.23	22051
871.36	22025
871.489	21880
871.619	21987
871.749	22074
871.879	22120
872.008	22200
872.138	22082
872.267	21911
872.397	21937
872.526	21819
872.656	21854
872.785	21972
872.915	21941
873.044	22261
873.173	22139
873.303	21964
873.432	22105
873.561	22135
873.69	22226
873.819	22032
873.948	22082
874.077	22166
874.206	22029
874.335	22010
874.464	22139
874.593	22371
874.722	22352
874.851	22268
874.979	22238
875.108	22405
875.237	22310
875.365	22135
875.494	22303
875.623	22284
875.751	22295
875.88	22398
876.008	22390
876.136	22512
876.265	22580
876.393	22892
876.521	22774
876.65	22755
876.778	22672
876.906	22580
877.034	22596
877.162	22557
877.29	22596
877.418	22603
877.546	22698
877.674	22698
877.802	22611
877.93	22675
878.058	22554
878.185	22531
878.313	22584
878.441	22596
878.568	22428
878.696	22538
878.824	22561
878.951	22755
879.079	22835
879.206	22984
879.333	22733
879.461	22645
879.588	22759
879.715	22778
879.842	22889
879.97	22698
880.097	22512
880.224	22443
880.351	22569
880.478	22592
880.605	22546
880.732	22352
880.859	22771
880.986	22554
881.112	22580
881.239	22367
881.366	22261
881.493	22173
881.619	22063
881.746	22147
881.872	22021
881.999	22029
882.125	21972
882.252	22032
882.378	22010
882.505	22154
882.631	21930
882.757	21774
882.883	21827
883.01	21709
883.136	21850
883.262	21583
883.388	21622
883.514	21751
883.64	21827
883.766	21652
883.892	21511
884.018	21530
884.143	21762
884.269	21724
884.395	21515
884.52	21359
884.646	21443
884.772	21283
884.897	21310
885.023	21386
885.148	21477
885.274	21526
885.399	21523
885.524	21507
885.65	21264
885.775	21306
885.9	21306
886.025	21424
886.15	21443
886.275	21370
886.4	21214
886.525	21348
886.65	21150
886.775	21272
886.9	21485
887.025	21553
887.149	21332
887.274	21161
887.399	21104
887.523	21173
887.648	21093
887.773	20990
887.897	21173
888.021	21123
888.146	20918
888.27	21157
888.395	21211
888.519	21180
888.643	21203
888.767	21119
888.891	21024
889.015	20933
889.139	20887
889.263	20815
889.387	21047
889.511	20979
889.635	21058
889.759	20887
889.883	20834
890.006	20880
890.13	20998
890.254	20746
890.377	20868
890.501	20598
890.624	20541
890.748	20579
890.871	20590
890.995	20358
891.118	20412
891.241	20522
891.364	20393
891.488	20644
891.611	20492
891.734	20434
891.857	20438
891.98	20495
892.103	20480
892.226	20533
892.349	20419
892.471	20290
892.594	20465
892.717	20438
892.839	20263
892.962	20423
893.085	20446
893.207	20476
893.33	20358
893.452	20278
893.575	20419
893.697	20412
893.819	20476
893.941	20568
894.064	20408
894.186	20271
894.308	20278
894.43	20362
894.552	20533
894.674	20347
894.796	20275
894.918	20351
895.04	20362
895.161	20362
895.283	20282
895.405	20305
895.526	20282
895.648	20332
895.769	20389
895.891	20393
896.012	20423
896.134	20461
896.255	20427
896.376	20385
896.498	20454
896.619	20423
896.74	20355
896.861	20488
896.982	20720
897.103	20849
897.224	20636
897.345	20568
897.466	20705
897.587	20530
897.708	20838
897.828	20674
897.949	20541
898.07	20488
898.19	20358
898.311	20644
898.431	20438
898.552	20568
898.672	20625
898.792	20724
898.913	20442
899.033	20339
899.153	20275
899.273	20309
899.393	20320
899.513	20446
899.633	20244
899.753	20256
899.873	20233
899.993	20248
900.113	20237
900.232	20199
900.352	20043
900.472	20050
900.591	20035
900.711	20103
900.83	20043
900.95	20195
901.069	20199
901.189	19944
901.308	19662
901.427	19731
901.546	19681
901.665	19727
901.784	19715
901.904	19445
902.023	19453
902.141	19217
902.26	19209
902.379	19213
902.498	19107
902.617	18996
902.735	19065
902.854	18985
902.973	19133
903.091	18798
903.21	18875
903.328	18650
903.446	18677
903.565	18395
903.683	18506
903.801	18486
903.919	18502
904.038	18540
904.156	18376
904.274	18540
904.392	18342
904.51	18372
904.627	18418
904.745	18258
904.863	18365
904.981	18125
905.098	17984
905.216	17923
905.334	17927
905.451	17969
905.569	17889
905.686	17923
905.803	18087
905.921	17847
906.038	17885
906.155	17824
906.272	17684
906.389	17745
906.506	17410
906.623	17467
906.74	17532
906.857	17425
906.974	17395
907.091	17547
907.208	17642
907.324	17619
907.441	17478
907.557	17216
907.674	17239
907.79	17178
907.907	17086
908.023	17292
908.139	17117
908.256	17086
908.372	17075
908.488	16961
908.604	16938
908.72	16881
908.836	16877
908.952	16835
909.068	16889
909.184	17022
909.3	16850
909.415	16877
909.531	16881
909.647	16565
909.762	16523
909.878	16531
909.993	16531
910.108	16550
910.224	16497
910.339	16596
910.454	16573
910.57	16284
910.685	16386
910.8	16508
910.915	16546
911.03	16459
911.145	16215
911.259	16135
911.374	16120
911.489	16128
911.604	15926
911.718	15918
911.833	15979
911.947	15854
912.062	15720
912.176	15922
912.291	16032
912.405	15873
912.519	16078
912.633	16044
912.748	15956
912.862	15949
912.976	15766
913.09	15568
913.204	15633
913.318	15675
913.431	15701
913.545	15789
913.659	15728
913.772	15751
913.886	15603
914	15515
914.113	15713
914.226	15618
914.34	15614
914.453	15389
914.566	15523
914.68	15462
914.793	15268
914.906	15214
915.019	15131
915.132	14990
915.245	15104
915.358	15169
915.47	15066
915.583	15195
915.696	15150
915.809	15192
915.921	15287
916.034	15138
916.146	15001
916.259	15062
916.371	15074
916.483	15112
916.595	14948
916.708	14891
916.82	14845
916.932	14910
917.044	14902
917.156	14902
917.268	14743
917.38	14765
917.491	14792
917.603	14716
917.715	14830
917.826	14921
917.938	14678
918.049	14552
918.161	14689
918.272	14895
918.384	14868
918.495	14674
918.606	14518
918.717	14400
918.828	14492
918.939	14518
919.05	14522
919.161	14564
919.272	14210
919.383	14400
919.494	14511
919.604	14735
919.715	14427
919.826	14370
919.936	14465
920.047	14461
920.157	14476
920.267	14579
920.378	14442
920.488	14324
920.598	14564
920.708	14834
920.818	14454
920.928	14564
921.038	14743
921.148	14621
921.258	14454
921.368	14328
921.477	14199
921.587	14164
921.697	13963
921.806	14180
921.916	13993
922.025	13818
922.134	13818
922.244	13670
922.353	13845
922.462	13647
922.571	13567
922.68	13400
922.789	13419
922.898	13472
923.007	13301
923.116	13464
923.224	13403
923.333	13403
923.442	13247
923.55	13343
923.659	13274
923.767	13369
923.876	13141
923.984	13266
924.092	13061
924.201	13137
924.309	13149
924.417	13225
924.525	13019
924.633	13091
924.741	13875
924.849	12951
924.956	13080
925.064	12920
925.172	12810
925.279	12935
925.387	12837
925.494	12833
925.602	12890
925.709	12932
925.816	12730
925.924	12859
926.031	12970
926.138	12719
926.245	12878
926.352	12768
926.459	12852
926.566	12878
926.673	12787
926.779	12620
926.886	12563
926.993	12384
927.099	12452
927.206	12357
927.312	12369
927.419	12494
927.525	12433
927.631	12486
927.737	12323
927.843	12327
927.95	12163
928.056	12258
928.162	12247
928.267	12262
928.373	12977
928.479	12308
928.585	12030
928.69	12216
928.796	12243
928.901	12114
929.007	11961
929.112	12102
929.218	12007
929.323	11969
929.428	11912
929.533	12079
929.638	11874
929.743	11889
929.848	11973
929.953	11969
930.058	11870
930.163	11665
930.267	11710
930.372	11821
930.477	11661
930.581	11836
930.685	11718
930.79	11611
930.894	11570
930.998	11452
931.103	11615
931.207	11273
931.311	11204
931.415	11025
931.519	10873
931.623	10889
