Data from test_V78500241_887.txt Node
Date: Fri Mar 25 15:47:56 CST 2022
User: usil
Spectrometer: V785-0024
Trigger mode: 0
Integration Time (sec): 4.000000E-1
Scans to average: 1
Nonlinearity correction enabled: false
Boxcar width: 0
Storing dark spectrum: false
XAxis mode: Wavelengths
Number of Pixels in Spectrum: 1024
>>>>>Begin Spectral Data<<<<<
801.071	28082
801.214	27808
801.356	27819
801.499	27682
801.641	27485
801.783	27576
801.926	27587
802.068	27614
802.211	27431
802.353	27466
802.496	27298
802.638	27317
802.78	27161
802.923	27218
803.065	27222
803.208	27123
803.35	27161
803.492	27230
803.635	27564
803.777	27306
803.919	27523
804.061	27762
804.204	27443
804.346	27344
804.488	27382
804.63	27427
804.773	27412
804.915	27420
805.057	27511
805.199	27488
805.341	27603
805.483	27485
805.626	27424
805.768	27458
805.91	27580
806.052	27515
806.194	27435
806.336	27850
806.478	27606
806.62	27530
806.762	27732
806.904	27808
807.046	28063
807.188	28051
807.33	28055
807.472	28067
807.614	28010
807.756	28036
807.898	27861
808.04	27914
808.182	27903
808.324	27968
808.465	27930
808.607	28013
808.749	28352
808.891	28386
809.033	28428
809.174	28265
809.316	28284
809.458	28318
809.6	28238
809.741	28398
809.883	28333
810.025	28615
810.166	28535
810.308	28561
810.45	28580
810.591	28516
810.733	28341
810.875	28242
811.016	28253
811.158	28158
811.299	28352
811.441	28485
811.582	28493
811.724	28268
811.865	28200
812.007	28257
812.148	28257
812.29	28253
812.431	28474
812.573	28588
812.714	28702
812.855	28755
812.997	28847
813.138	28835
813.279	28915
813.421	28771
813.562	28771
813.703	28672
813.845	28599
813.986	28116
814.127	28131
814.268	28010
814.41	27945
814.551	27949
814.692	27842
814.833	27968
814.974	27991
815.115	27934
815.256	27785
815.397	27785
815.539	27876
815.68	27743
815.821	27652
815.962	27701
816.103	27682
816.244	27629
816.385	27511
816.526	27447
816.666	27439
816.807	27287
816.948	27367
817.089	27450
817.23	27260
817.371	27260
817.512	27374
817.653	27192
817.793	27306
817.934	27207
818.075	27192
818.216	27119
818.356	27294
818.497	27195
818.638	26849
818.778	26940
818.919	26971
819.06	27184
819.2	27211
819.341	27173
819.481	27291
819.622	27370
819.762	27625
819.903	27492
820.043	27321
820.184	27340
820.324	27279
820.465	27359
820.605	27325
820.746	27496
820.886	27332
821.026	27374
821.167	27226
821.307	27325
821.447	27222
821.588	27184
821.728	26971
821.868	26971
822.008	26716
822.149	26758
822.289	26849
822.429	26381
822.569	26381
822.709	26465
822.849	26237
822.99	26423
823.13	26377
823.27	26244
823.41	26031
823.55	25966
823.69	26134
823.83	26050
823.97	26069
824.11	25864
824.25	25830
824.389	25982
824.529	25989
824.669	25818
824.809	26043
824.949	25970
825.089	26065
825.228	26012
825.368	25807
825.508	25856
825.648	25784
825.787	25826
825.927	25856
826.067	25723
826.206	25890
826.346	25830
826.485	25917
826.625	25799
826.765	25921
826.904	25849
827.044	25426
827.183	25510
827.323	25453
827.462	25571
827.601	25457
827.741	25620
827.88	25655
828.02	25362
828.159	25388
828.298	25590
828.437	25559
828.577	25438
828.716	25479
828.855	25278
828.994	25179
829.134	25152
829.273	25133
829.412	25126
829.551	25206
829.69	25190
829.829	25095
829.968	25251
830.107	25137
830.246	25209
830.385	25152
830.524	25050
830.663	24913
830.802	24939
830.941	24715
831.08	24738
831.219	24791
831.357	24741
831.496	25053
831.635	24772
831.774	24745
831.913	24608
832.051	24525
832.19	24570
832.329	24616
832.467	24452
832.606	24441
832.744	24452
832.883	24429
833.022	24437
833.16	24471
833.299	24566
833.437	24467
833.576	24593
833.714	24631
833.852	24623
833.991	24426
834.129	24540
834.267	24639
834.406	24540
834.544	24509
834.682	24620
834.821	24384
834.959	24745
835.097	24445
835.235	24388
835.373	24456
835.511	24555
835.65	24323
835.788	24365
835.926	24224
836.064	24152
836.202	24136
836.34	24365
836.478	24452
836.615	24209
836.753	24437
836.891	24334
837.029	24410
837.167	24296
837.305	24342
837.443	24182
837.58	24194
837.718	24311
837.856	24277
837.993	24159
838.131	24216
838.269	24163
838.406	24114
838.544	24022
838.681	23794
838.819	23824
838.956	23714
839.094	23592
839.231	23809
839.369	23726
839.506	23992
839.643	23942
839.781	23630
839.918	23524
840.055	23687
840.193	23524
840.33	23570
840.467	23596
840.604	23718
840.742	23882
840.879	23436
841.016	23463
841.153	23509
841.29	23657
841.427	23600
841.564	23630
841.701	23512
841.838	23478
841.975	23509
842.112	23455
842.249	23330
842.385	23360
842.522	23463
842.659	23459
842.796	23311
842.933	23364
843.069	23303
843.206	23311
843.343	23299
843.479	23223
843.616	23330
843.752	23067
843.889	23105
844.025	23208
844.162	23014
844.298	23155
844.435	23102
844.571	23117
844.708	23170
844.844	23265
844.98	23231
845.117	23220
845.253	23079
845.389	22953
845.525	23056
845.661	22919
845.798	22809
845.934	22889
846.07	22869
846.206	22778
846.342	22968
846.478	22771
846.614	22577
846.75	22500
846.886	22504
847.022	22577
847.158	22584
847.294	22630
847.429	22565
847.565	22538
847.701	22835
847.837	22318
847.972	22291
848.108	22303
848.244	22367
848.379	22135
848.515	22139
848.65	22200
848.786	22207
848.921	22242
849.057	22299
849.192	22322
849.328	22162
849.463	22116
849.598	22086
849.734	22173
849.869	21956
850.004	21895
850.14	21964
850.275	21964
850.41	21934
850.545	21835
850.68	21808
850.815	21880
850.95	21934
851.085	22090
851.22	21979
851.355	22029
851.49	21960
851.625	21884
851.76	21911
851.895	21869
852.03	21797
852.165	21983
852.299	21884
852.434	21941
852.569	21987
852.703	21876
852.838	22044
852.973	21983
853.107	22078
853.242	21850
853.376	21861
853.511	21561
853.645	21682
853.78	21789
853.914	21793
854.048	21835
854.183	21724
854.317	21682
854.451	21972
854.585	21656
854.72	21690
854.854	21926
854.988	21637
855.122	21701
855.256	21595
855.39	21652
855.524	21899
855.658	21755
855.792	21747
855.926	21720
856.06	21797
856.194	21694
856.327	21797
856.461	21675
856.595	21675
856.729	21713
856.862	21819
856.996	21694
857.13	21827
857.263	21892
857.397	21895
857.53	21778
857.664	21808
857.797	21713
857.931	21911
858.064	21675
858.197	21800
858.331	21739
858.464	21648
858.597	21652
858.731	21694
858.864	21701
858.997	21671
859.13	21728
859.263	21755
859.396	21671
859.529	21789
859.662	21580
859.795	21641
859.928	21732
860.061	21854
860.194	21953
860.327	21861
860.46	21816
860.592	21835
860.725	21781
860.858	21778
860.99	21717
861.123	21663
861.256	21694
861.388	21679
861.521	22497
861.653	21557
861.786	21564
861.918	21412
862.05	21663
862.183	21561
862.315	21679
862.447	21816
862.58	21705
862.712	21435
862.844	21469
862.976	21625
863.108	21504
863.24	21827
863.372	21454
863.504	21389
863.636	21389
863.768	21526
863.9	21397
864.032	21363
864.164	21363
864.296	21500
864.428	21591
864.559	21428
864.691	21450
864.823	21302
864.954	21454
865.086	21405
865.217	21355
865.349	21329
865.48	21477
865.612	21321
865.743	21466
865.875	21310
866.006	21348
866.137	21264
866.269	21344
866.4	21389
866.531	21241
866.662	21298
866.793	21298
866.924	21291
867.055	21294
867.186	21325
867.317	21237
867.448	21173
867.579	21214
867.71	21150
867.841	21116
867.972	21184
868.103	21264
868.233	21336
868.364	21287
868.495	21401
868.625	21534
868.756	21603
868.886	21363
869.017	21443
869.147	21557
869.278	21583
869.408	21587
869.539	21496
869.669	21603
869.799	21641
869.929	21682
870.06	21599
870.19	21816
870.32	21800
870.45	21907
870.58	21876
870.71	21903
870.84	21911
870.97	21941
871.1	21998
871.23	22169
871.36	21998
871.489	22109
871.619	22070
871.749	22131
871.879	22101
872.008	22272
872.138	21968
872.267	22116
872.397	22067
872.526	21972
872.656	21937
872.785	22006
872.915	22120
873.044	22105
873.173	22135
873.303	22158
873.432	22078
873.561	22139
873.69	22063
873.819	22063
873.948	22306
874.077	22112
874.206	22109
874.335	22177
874.464	22139
874.593	22375
874.722	22207
874.851	22344
874.979	22341
875.108	22341
875.237	22310
875.365	22154
875.494	22314
875.623	22440
875.751	22295
875.88	22421
876.008	22428
876.136	22512
876.265	22698
876.393	22774
876.521	22816
876.65	22767
876.778	22691
876.906	22740
877.034	22763
877.162	22713
877.29	22508
877.418	22710
877.546	22710
877.674	22778
877.802	22542
877.93	22607
878.058	22656
878.185	22607
878.313	22713
878.441	22698
878.568	22466
878.696	22577
878.824	22733
878.951	22755
879.079	22892
879.206	22961
879.333	22733
879.461	22611
879.588	22740
879.715	22877
879.842	22869
879.97	22786
880.097	22599
880.224	22466
880.351	22478
880.478	22607
880.605	22455
880.732	22557
880.859	22763
880.986	22462
881.112	22519
881.239	22402
881.366	22276
881.493	22242
881.619	22131
881.746	22223
881.872	22173
881.999	22032
882.125	21903
882.252	21998
882.378	22006
882.505	22158
882.631	21774
882.757	21838
882.883	21854
883.01	21857
883.136	21770
883.262	21614
883.388	21572
883.514	21728
883.64	21793
883.766	21610
883.892	21523
884.018	21618
884.143	21675
884.269	21800
884.395	21439
884.52	21408
884.646	21355
884.772	21256
884.897	21226
885.023	21412
885.148	21568
885.274	21561
885.399	21511
885.524	21393
885.65	21469
885.775	21458
885.9	21378
886.025	21523
886.15	21450
886.275	21405
886.4	21283
886.525	21416
886.65	21321
886.775	21355
886.9	21393
887.025	21739
887.149	21382
887.274	21173
887.399	21192
887.523	21085
887.648	21142
887.773	21161
887.897	21184
888.021	21211
888.146	20975
888.27	21252
888.395	21146
888.519	21207
888.643	21203
888.767	21222
888.891	21081
889.015	20887
889.139	21100
889.263	20906
889.387	20998
889.511	21089
889.635	20975
889.759	21062
889.883	20963
890.006	20933
890.13	20979
890.254	20971
890.377	20887
890.501	20629
890.624	20640
890.748	20785
890.871	20701
890.995	20499
891.118	20442
891.241	20579
891.364	20560
891.488	20568
891.611	20530
891.734	20484
891.857	20560
891.98	20480
892.103	20492
892.226	20522
892.349	20465
892.471	20320
892.594	20454
892.717	20568
892.839	20381
892.962	20396
893.085	20507
893.207	20370
893.33	20259
893.452	20427
893.575	20473
893.697	20389
893.819	20495
893.941	20636
894.064	20552
894.186	20324
894.308	20305
894.43	20530
894.552	20613
894.674	20541
894.796	20332
894.918	20317
895.04	20404
895.161	20530
895.283	20533
895.405	20332
895.526	20488
895.648	20309
895.769	20427
895.891	20412
896.012	20469
896.134	20431
896.255	20415
896.376	20263
896.498	20400
896.619	20351
896.74	20419
896.861	20400
896.982	20754
897.103	20826
897.224	20617
897.345	20697
897.466	20571
897.587	20617
897.708	20758
897.828	20758
897.949	20590
898.07	20454
898.19	20602
898.311	20743
898.431	20507
898.552	20621
898.672	20762
898.792	20785
898.913	20659
899.033	20533
899.153	20393
899.273	20374
899.393	20317
899.513	20385
899.633	20454
899.753	20427
899.873	20336
899.993	20320
900.113	20149
900.232	20271
900.352	20214
900.472	20229
900.591	20157
900.711	20183
900.83	20172
900.95	20225
901.069	20317
901.189	19947
901.308	19814
901.427	19632
901.546	19601
901.665	19643
901.784	19719
901.904	19567
902.023	19502
902.141	19354
902.26	19285
902.379	19274
902.498	19339
902.617	19259
902.735	19335
902.854	19320
902.973	19103
903.091	19023
903.21	18928
903.328	18795
903.446	18981
903.565	18669
903.683	18726
903.801	18566
903.919	18688
904.038	18616
904.156	18479
904.274	18517
904.392	18418
904.51	18490
904.627	18532
904.745	18471
904.863	18570
904.981	18323
905.098	18095
905.216	18110
905.334	18190
905.451	18194
905.569	18121
905.686	18159
905.803	18159
905.921	17965
906.038	17977
906.155	17954
906.272	17775
906.389	17920
906.506	17737
906.623	17687
906.74	17600
906.857	17482
906.974	17596
907.091	17646
907.208	17882
907.324	17733
907.441	17604
907.557	17436
907.674	17410
907.79	17239
907.907	17459
908.023	17395
908.139	17440
908.256	17296
908.372	17273
908.488	17292
908.604	17189
908.72	17178
908.836	17071
908.952	17105
909.068	17170
909.184	17246
909.3	17128
909.415	17159
909.531	17136
909.647	16904
909.762	16908
909.878	16778
909.993	16850
910.108	16744
910.224	16683
910.339	16782
910.454	16668
910.57	16713
910.685	16497
910.8	16854
910.915	16736
911.03	16599
911.145	16474
911.259	16474
911.374	16390
911.489	16337
911.604	16276
911.718	16219
911.833	16169
911.947	16116
912.062	16036
912.176	16181
912.291	16116
912.405	16306
912.519	16356
912.633	16226
912.748	16150
912.862	16162
912.976	15960
913.09	15937
913.204	15911
913.318	15895
913.431	16086
913.545	16086
913.659	15998
913.772	16002
913.886	15835
914	15656
914.113	15819
914.226	15876
914.34	15884
914.453	15507
914.566	15766
914.68	15656
914.793	15568
914.906	15492
915.019	15374
915.132	15325
915.245	15359
915.358	15412
915.47	15355
915.583	15252
915.696	15332
915.809	15447
915.921	15412
916.034	15439
916.146	15260
916.259	15287
916.371	15287
916.483	15279
916.595	15237
916.708	15169
916.82	15233
916.932	15142
917.044	15100
917.156	15138
917.268	14971
917.38	15005
917.491	14960
917.603	14982
917.715	15028
917.826	15074
917.938	14883
918.049	14902
918.161	14910
918.272	15074
918.384	14975
918.495	14975
918.606	14777
918.717	14796
918.828	14762
918.939	14720
919.05	14758
919.161	14686
919.272	14549
919.383	14640
919.494	14796
919.604	14986
919.715	14731
919.826	14712
919.936	14746
920.047	14788
920.157	14712
920.267	14979
920.378	14663
920.488	14777
920.598	14838
920.708	15043
920.818	14891
920.928	14857
921.038	15013
921.148	15047
921.258	14651
921.368	14571
921.477	14503
921.587	14450
921.697	14267
921.806	14404
921.916	14343
922.025	14153
922.134	14100
922.244	14039
922.353	14126
922.462	13993
922.571	13932
922.68	13841
922.789	13719
922.898	13719
923.007	13670
923.116	13791
923.224	13753
923.333	13628
923.442	13559
923.55	13636
923.659	13499
923.767	13586
923.876	13544
923.984	13613
924.092	13476
924.201	13529
924.309	13556
924.417	13533
924.525	13411
924.633	13426
924.741	14324
924.849	13126
924.956	13331
925.064	13164
925.172	13149
925.279	13107
925.387	13213
925.494	13198
925.602	13274
925.709	13149
925.816	12996
925.924	13179
926.031	13171
926.138	13091
926.245	13149
926.352	13042
926.459	13126
926.566	13152
926.673	12966
926.779	12821
926.886	12951
926.993	12700
927.099	12749
927.206	12677
927.312	12616
927.419	12707
927.525	12681
927.631	12673
927.737	12563
927.843	12498
927.95	12407
928.056	12525
928.162	12494
928.267	12563
928.373	13080
928.479	12585
928.585	12365
928.69	12445
928.796	12525
928.901	12334
929.007	12232
929.112	12395
929.218	12311
929.323	12209
929.428	12289
929.533	12380
929.638	12125
929.743	12216
929.848	12190
929.953	12121
930.058	12091
930.163	11931
930.267	11870
930.372	12079
930.477	11923
930.581	12155
930.685	11965
930.79	11710
930.894	11863
930.998	11741
931.103	11859
931.207	11592
931.311	11497
931.415	11368
931.519	11242
931.623	11189
