Data from test_V78500241_1267.txt Node
Date: Fri Mar 25 15:50:34 CST 2022
User: usil
Spectrometer: V785-0024
Trigger mode: 0
Integration Time (sec): 4.000000E-1
Scans to average: 1
Nonlinearity correction enabled: false
Boxcar width: 0
Storing dark spectrum: false
XAxis mode: Wavelengths
Number of Pixels in Spectrum: 1024
>>>>>Begin Spectral Data<<<<<
801.071	28938
801.214	28957
801.356	28577
801.499	28577
801.641	28474
801.783	28405
801.926	28554
802.068	28527
802.211	28398
802.353	28333
802.496	28181
802.638	28169
802.78	28226
802.923	28090
803.065	27987
803.208	28101
803.35	28120
803.492	28295
803.635	28455
803.777	28196
803.919	28466
804.061	28786
804.204	28508
804.346	28363
804.488	28249
804.63	28436
804.773	28314
804.915	28371
805.057	28481
805.199	28360
805.341	28538
805.483	28569
805.626	28432
805.768	28394
805.91	28641
806.052	28778
806.194	28512
806.336	28790
806.478	28584
806.62	28535
806.762	28706
806.904	28972
807.046	29121
807.188	29056
807.33	29052
807.472	29121
807.614	29178
807.756	29155
807.898	28965
808.04	28904
808.182	28999
808.324	29014
808.465	29037
808.607	29124
808.749	29216
808.891	29387
809.033	29528
809.174	29372
809.316	29242
809.458	29269
809.6	29239
809.741	29478
809.883	29467
810.025	29615
810.166	29577
810.308	29619
810.45	29718
810.591	29486
810.733	29326
810.875	29296
811.016	29280
811.158	29200
811.299	29600
811.441	29315
811.582	29478
811.724	29387
811.865	29181
812.007	29448
812.148	29429
812.29	29341
812.431	29471
812.573	29695
812.714	29783
812.855	29912
812.997	29874
813.138	30003
813.279	30026
813.421	29824
813.562	29745
813.703	29828
813.845	29665
813.986	29288
814.127	29143
814.268	29052
814.41	29056
814.551	29003
814.692	29003
814.833	29029
814.974	29147
815.115	29056
815.256	28961
815.397	28942
815.539	29056
815.68	28900
815.821	28866
815.962	28900
816.103	28877
816.244	28828
816.385	28771
816.526	28653
816.666	28417
816.807	28401
816.948	28417
817.089	28516
817.23	28592
817.371	28440
817.512	28310
817.653	28421
817.793	28268
817.934	28394
818.075	28436
818.216	28478
818.356	28356
818.497	28291
818.638	28139
818.778	28272
818.919	28067
819.06	28162
819.2	28318
819.341	28443
819.481	28352
819.622	28637
819.762	28744
819.903	28630
820.043	28656
820.184	28390
820.324	28542
820.465	28557
820.605	28569
820.746	28478
820.886	28352
821.026	28424
821.167	28470
821.307	28523
821.447	28443
821.588	28310
821.728	28234
821.868	28143
822.008	27949
822.149	27823
822.289	27880
822.429	27785
822.569	27572
822.709	27705
822.849	27416
822.99	27302
823.13	27401
823.27	27420
823.41	27287
823.55	27272
823.69	27176
823.83	27252
823.97	27287
824.11	27062
824.25	27138
824.389	27005
824.529	27093
824.669	27112
824.809	27237
824.949	27138
825.089	27123
825.228	27127
825.368	26975
825.508	26910
825.648	26979
825.787	27058
825.927	26982
826.067	26845
826.206	27039
826.346	26940
826.485	27001
826.625	26963
826.765	26975
826.904	27138
827.044	26663
827.183	26781
827.323	26602
827.462	26712
827.601	26674
827.741	26811
827.88	26762
828.02	26632
828.159	26674
828.298	26625
828.437	26693
828.577	26701
828.716	26781
828.855	26670
828.994	26412
829.134	26438
829.273	26423
829.412	26400
829.551	26256
829.69	26332
829.829	26442
829.968	26438
830.107	26492
830.246	26317
830.385	26237
830.524	26244
830.663	26092
830.802	26084
830.941	25966
831.08	25845
831.219	26062
831.357	26054
831.496	26153
831.635	26065
831.774	25830
831.913	25856
832.051	25753
832.19	25742
832.329	25772
832.467	25624
832.606	25696
832.744	25590
832.883	25655
833.022	25616
833.16	25655
833.299	25647
833.437	25704
833.576	25791
833.714	25833
833.852	25727
833.991	25738
834.129	25761
834.267	25837
834.406	25750
834.544	25814
834.682	25700
834.821	25628
834.959	26031
835.097	25651
835.235	25674
835.373	25685
835.511	25677
835.65	25529
835.788	25468
835.926	25232
836.064	25381
836.202	25274
836.34	25578
836.478	25556
836.615	25438
836.753	25499
836.891	25578
837.029	25460
837.167	25479
837.305	25434
837.443	25449
837.58	25312
837.718	25487
837.856	25304
837.993	25350
838.131	25304
838.269	25080
838.406	25206
838.544	25118
838.681	24973
838.819	24848
838.956	24871
839.094	24821
839.231	24817
839.369	25012
839.506	25084
839.643	24939
839.781	24749
839.918	24753
840.055	24783
840.193	24688
840.33	24791
840.467	24551
840.604	24719
840.742	24966
840.879	24658
841.016	24623
841.153	24620
841.29	24776
841.427	24574
841.564	24741
841.701	24665
841.838	24665
841.975	24551
842.112	24654
842.249	24555
842.385	24669
842.522	24608
842.659	24475
842.796	24418
842.933	24464
843.069	24391
843.206	24414
843.343	24566
843.479	24528
843.616	24494
843.752	24190
843.889	24220
844.025	24422
844.162	24330
844.298	24270
844.435	24174
844.571	24167
844.708	24277
844.844	24456
844.98	24323
845.117	24376
845.253	24163
845.389	24068
845.525	24182
845.661	24083
845.798	23901
845.934	23961
846.07	23912
846.206	23954
846.342	24068
846.478	23901
846.614	23836
846.75	23512
846.886	23535
847.022	23707
847.158	23821
847.294	23676
847.429	23714
847.565	23608
847.701	23866
847.837	23410
847.972	23421
848.108	23482
848.244	23410
848.379	23330
848.515	23356
848.65	23117
848.786	23277
848.921	23341
849.057	23258
849.192	23387
849.328	23254
849.463	23204
849.598	23162
849.734	23162
849.869	23124
850.004	22965
850.14	23143
850.275	23147
850.41	22908
850.545	23094
850.68	23006
850.815	23094
850.95	23208
851.085	23128
851.22	23090
851.355	22961
851.49	22972
851.625	22968
851.76	22999
851.895	22831
852.03	22862
852.165	23071
852.299	23140
852.434	23102
852.569	23033
852.703	23064
852.838	22889
852.973	23071
853.107	23075
853.242	22881
853.376	22930
853.511	22831
853.645	22740
853.78	22946
853.914	22812
854.048	22790
854.183	22809
854.317	22858
854.451	22995
854.585	22782
854.72	22740
854.854	22809
854.988	22721
855.122	22812
855.256	22782
855.39	22782
855.524	22908
855.658	22923
855.792	22896
855.926	22949
856.06	22858
856.194	22854
856.327	22721
856.461	22767
856.595	22847
856.729	22805
856.862	22911
856.996	22885
857.13	22927
857.263	23018
857.397	22946
857.53	22828
857.664	22946
857.797	22976
857.931	22923
858.064	22904
858.197	23003
858.331	22759
858.464	22721
858.597	22717
858.731	22786
858.864	22847
858.997	22850
859.13	22896
859.263	22862
859.396	22858
859.529	22828
859.662	22752
859.795	22748
859.928	22858
860.061	22904
860.194	23033
860.327	22915
860.46	22805
860.592	22904
860.725	23060
860.858	23029
860.99	22801
861.123	22702
861.256	22736
861.388	22831
861.521	23337
861.653	22809
861.786	22637
861.918	22752
862.05	22683
862.183	22683
862.315	22752
862.447	22866
862.58	22854
862.712	22565
862.844	22459
862.976	22599
863.108	22702
863.24	22972
863.372	22626
863.504	22607
863.636	22603
863.768	22493
863.9	22527
864.032	22470
864.164	22508
864.296	22459
864.428	22580
864.559	22535
864.691	22622
864.823	22478
864.954	22455
865.086	22531
865.217	22447
865.349	22230
865.48	22459
865.612	22428
865.743	22542
865.875	22386
866.006	22424
866.137	22455
866.269	22398
866.4	22337
866.531	22371
866.662	22394
866.793	22253
866.924	22261
867.055	22318
867.186	22417
867.317	22234
867.448	22310
867.579	22402
867.71	22086
867.841	22310
867.972	22348
868.103	22325
868.233	22249
868.364	22303
868.495	22394
868.625	22474
868.756	22599
868.886	22443
869.017	22531
869.147	22664
869.278	22790
869.408	22504
869.539	22733
869.669	22626
869.799	22611
869.929	22603
870.06	22767
870.19	22854
870.32	22831
870.45	22999
870.58	22976
870.71	22995
870.84	23006
870.97	22934
871.1	22953
871.23	23033
871.36	23048
871.489	23079
871.619	23079
871.749	23147
871.879	23216
872.008	23303
872.138	23105
872.267	23086
872.397	23147
872.526	23014
872.656	23022
872.785	22957
872.915	23174
873.044	23345
873.173	23170
873.303	23212
873.432	23155
873.561	23220
873.69	23181
873.819	23128
873.948	23227
874.077	23197
874.206	23086
874.335	23090
874.464	23303
874.593	23452
874.722	23337
874.851	23429
874.979	23421
875.108	23539
875.237	23387
875.365	23288
875.494	23212
875.623	23383
875.751	23376
875.88	23406
876.008	23455
876.136	23554
876.265	23741
876.393	23870
876.521	23790
876.65	23824
876.778	23817
876.906	23726
877.034	23710
877.162	23824
877.29	23699
877.418	23676
877.546	23745
877.674	23729
877.802	23646
877.93	23794
878.058	23756
878.185	23573
878.313	23554
878.441	23741
878.568	23551
878.696	23562
878.824	23821
878.951	23775
879.079	23828
879.206	24007
879.333	23863
879.461	23684
879.588	23760
879.715	23927
879.842	24060
879.97	23805
880.097	23528
880.224	23535
880.351	23608
880.478	23425
880.605	23649
880.732	23543
880.859	23684
880.986	23554
881.112	23570
881.239	23448
881.366	23337
881.493	23094
881.619	23090
881.746	23136
881.872	23079
881.999	22953
882.125	22991
882.252	23121
882.378	22995
882.505	23189
882.631	22957
882.757	22797
882.883	22946
883.01	22774
883.136	22664
883.262	22687
883.388	22599
883.514	22748
883.64	22877
883.766	22691
883.892	22516
884.018	22584
884.143	22793
884.269	22733
884.395	22462
884.52	22474
884.646	22322
884.772	22322
884.897	22147
885.023	22386
885.148	22394
885.274	22428
885.399	22554
885.524	22287
885.65	22409
885.775	22318
885.9	22265
886.025	22352
886.15	22371
886.275	22333
886.4	22219
886.525	22394
886.65	22325
886.775	22276
886.9	22424
887.025	22577
887.149	22253
887.274	22162
887.399	22181
887.523	22074
887.648	22143
887.773	22063
887.897	22162
888.021	22211
888.146	22006
888.27	22295
888.395	22169
888.519	22268
888.643	22257
888.767	22169
888.891	22006
889.015	21880
889.139	21991
889.263	21945
889.387	22044
889.511	22139
889.635	22101
889.759	21785
889.883	21895
890.006	21895
890.13	22040
890.254	21915
890.377	21797
890.501	21705
890.624	21595
890.748	21751
890.871	21530
890.995	21462
891.118	21439
891.241	21397
891.364	21447
891.488	21485
891.611	21469
891.734	21530
891.857	21561
891.98	21523
892.103	21481
892.226	21488
892.349	21405
892.471	21279
892.594	21386
892.717	21496
892.839	21405
892.962	21355
893.085	21447
893.207	21382
893.33	21291
893.452	21370
893.575	21435
893.697	21321
893.819	21507
893.941	21481
894.064	21515
894.186	21272
894.308	21424
894.43	21344
894.552	21389
894.674	21260
894.796	21146
894.918	21264
895.04	21272
895.161	21367
895.283	21401
895.405	21336
895.526	21310
895.648	21302
895.769	21378
895.891	21408
896.012	21428
896.134	21363
896.255	21283
896.376	21237
896.498	21249
896.619	21374
896.74	21329
896.861	21424
896.982	21515
897.103	21770
897.224	21610
897.345	21538
897.466	21515
897.587	21488
897.708	21644
897.828	21507
897.949	21462
898.07	21367
898.19	21340
898.311	21500
898.431	21481
898.552	21408
898.672	21599
898.792	21481
898.913	21428
899.033	21431
899.153	21291
899.273	21214
899.393	21382
899.513	21367
899.633	21241
899.753	21233
899.873	21237
899.993	21370
900.113	21154
900.232	21207
900.352	21165
900.472	20994
900.591	20975
900.711	21039
900.83	20960
900.95	21028
901.069	21051
901.189	20956
901.308	20667
901.427	20571
901.546	20545
901.665	20507
901.784	20503
901.904	20404
902.023	20282
902.141	20180
902.26	20168
902.379	20180
902.498	20062
902.617	20016
902.735	20119
902.854	20073
902.973	19936
903.091	19708
903.21	19746
903.328	19791
903.446	19514
903.565	19597
903.683	19540
903.801	19430
903.919	19468
904.038	19430
904.156	19244
904.274	19301
904.392	19259
904.51	19270
904.627	19190
904.745	19419
904.863	19346
904.981	19126
905.098	18962
905.216	19027
905.334	19019
905.451	18924
905.569	18958
905.686	18913
905.803	18932
905.921	18745
906.038	18753
906.155	18795
906.272	18555
906.389	18726
906.506	18498
906.623	18532
906.74	18418
906.857	18285
906.974	18433
907.091	18509
907.208	18490
907.324	18589
907.441	18414
907.557	18258
907.674	18228
907.79	18228
907.907	18281
908.023	18228
908.139	18209
908.256	18148
908.372	18117
908.488	18091
908.604	17885
908.72	17855
908.836	17908
908.952	17843
909.068	17965
909.184	17996
909.3	17798
909.415	17863
909.531	17908
909.647	17611
909.762	17505
909.878	17505
909.993	17558
910.108	17509
910.224	17589
910.339	17615
910.454	17436
910.57	17490
910.685	17284
910.8	17512
910.915	17604
911.03	17296
911.145	17223
911.259	17185
911.374	17178
911.489	17033
911.604	17060
911.718	16923
911.833	16930
911.947	16801
912.062	16778
912.176	16904
912.291	16816
912.405	16957
912.519	17143
912.633	17109
912.748	16938
912.862	16991
912.976	16656
913.09	16493
913.204	16645
913.318	16755
913.431	16778
913.545	16675
913.659	16835
913.772	16580
913.886	16508
914	16462
914.113	16538
914.226	16603
914.34	16588
914.453	16356
914.566	16493
914.68	16341
914.793	16211
914.906	16105
915.019	16032
915.132	16013
915.245	16097
915.358	16185
915.47	16139
915.583	16097
915.696	16017
915.809	16192
915.921	16234
916.034	16048
916.146	15945
916.259	15934
916.371	15994
916.483	15975
916.595	15895
916.708	15785
916.82	15762
916.932	15876
917.044	15869
917.156	15804
917.268	15720
917.38	15698
917.491	15720
917.603	15698
917.715	15694
917.826	15743
917.938	15599
918.049	15450
918.161	15622
918.272	15762
918.384	15709
918.495	15587
918.606	15519
918.717	15378
918.828	15553
918.939	15340
919.05	15340
919.161	15370
919.272	15260
919.383	15165
919.494	15351
919.604	15568
919.715	15370
919.826	15233
919.936	15306
920.047	15454
920.157	15462
920.267	15580
920.378	15367
920.488	15317
920.598	15481
920.708	15705
920.818	15507
920.928	15568
921.038	15736
921.148	15557
921.258	15313
921.368	15157
921.477	15119
921.587	15020
921.697	15055
921.806	15074
921.916	15017
922.025	14796
922.134	14716
922.244	14739
922.353	14788
922.462	14602
922.571	14492
922.68	14377
922.789	14309
922.898	14423
923.007	14351
923.116	14309
923.224	14320
923.333	14301
923.442	14214
923.55	14054
923.659	14199
923.767	14218
923.876	14138
923.984	14233
924.092	14046
924.201	14016
924.309	14039
924.417	14058
924.525	14001
924.633	13951
924.741	14796
924.849	13841
924.956	13936
925.064	13712
925.172	13647
925.279	13742
925.387	13696
925.494	13689
925.602	13723
925.709	13677
925.816	13464
925.924	13712
926.031	13799
926.138	13613
926.245	13712
926.352	13529
926.459	13715
926.566	13830
926.673	13571
926.779	13480
926.886	13426
926.993	13327
927.099	13171
927.206	13236
927.312	13209
927.419	13438
927.525	13187
927.631	13251
927.737	13107
927.843	13061
927.95	12973
928.056	13076
928.162	13126
928.267	13072
928.373	13788
928.479	13183
928.585	12810
928.69	13046
928.796	13095
928.901	12935
929.007	12753
929.112	12954
929.218	12772
929.323	12757
929.428	12772
929.533	12840
929.638	12677
929.743	12726
929.848	12722
929.953	12665
930.058	12684
930.163	12433
930.267	12475
930.372	12620
930.477	12350
930.581	12593
930.685	12536
930.79	12281
930.894	12304
930.998	12232
931.103	12433
931.207	12049
931.311	11904
931.415	11965
931.519	11714
931.623	11638
