Data from test_V78500241_1620.txt Node
Date: Fri Mar 25 15:53:01 CST 2022
User: usil
Spectrometer: V785-0024
Trigger mode: 0
Integration Time (sec): 4.000000E-1
Scans to average: 1
Nonlinearity correction enabled: false
Boxcar width: 0
Storing dark spectrum: false
XAxis mode: Wavelengths
Number of Pixels in Spectrum: 1024
>>>>>Begin Spectral Data<<<<<
801.071	28325
801.214	28226
801.356	28010
801.499	28017
801.641	27831
801.783	27888
801.926	27819
802.068	27838
802.211	27667
802.353	27736
802.496	27629
802.638	27561
802.78	27435
802.923	27488
803.065	27408
803.208	27564
803.35	27496
803.492	27682
803.635	27682
803.777	27526
803.919	27739
804.061	28010
804.204	27797
804.346	27671
804.488	27618
804.63	27724
804.773	27629
804.915	27766
805.057	27899
805.199	27717
805.341	27831
805.483	27808
805.626	27873
805.768	27671
805.91	27949
806.052	27869
806.194	27835
806.336	28048
806.478	27987
806.62	27686
806.762	27960
806.904	28150
807.046	28375
807.188	28363
807.33	28341
807.472	28333
807.614	28272
807.756	28257
807.898	28150
808.04	27934
808.182	28215
808.324	28131
808.465	28200
808.607	28424
808.749	28630
808.891	28607
809.033	28755
809.174	28615
809.316	28615
809.458	28535
809.6	28485
809.741	28508
809.883	28721
810.025	28759
810.166	28835
810.308	28835
810.45	28828
810.591	28717
810.733	28607
810.875	28413
811.016	28405
811.158	28371
811.299	28634
811.441	28698
811.582	28675
811.724	28573
811.865	28451
812.007	28500
812.148	28424
812.29	28577
812.431	28725
812.573	28888
812.714	28900
812.855	29052
812.997	29147
813.138	29223
813.279	29269
813.421	29064
813.562	28904
813.703	28850
813.845	28725
813.986	28550
814.127	28344
814.268	28272
814.41	28421
814.551	28257
814.692	28249
814.833	28162
814.974	28200
815.115	28242
815.256	28192
815.397	28090
815.539	28097
815.68	28070
815.821	27816
815.962	28181
816.103	27979
816.244	27850
816.385	27762
816.526	27816
816.666	27595
816.807	27492
816.948	27595
817.089	27641
817.23	27458
817.371	27473
817.512	27515
817.653	27424
817.793	27431
817.934	27447
818.075	27644
818.216	27523
818.356	27496
818.497	27431
818.638	27230
818.778	27412
818.919	27150
819.06	27332
819.2	27507
819.341	27591
819.481	27488
819.622	27580
819.762	27854
819.903	27720
820.043	27682
820.184	27781
820.324	27660
820.465	27701
820.605	27637
820.746	27576
820.886	27485
821.026	27637
821.167	27675
821.307	27800
821.447	27500
821.588	27462
821.728	27443
821.868	27283
822.008	26944
822.149	27001
822.289	27013
822.429	26811
822.569	26697
822.709	26811
822.849	26503
822.99	26537
823.13	26355
823.27	26469
823.41	26446
823.55	26187
823.69	26347
823.83	26396
823.97	26191
824.11	26107
824.25	26069
824.389	26088
824.529	26278
824.669	26096
824.809	26320
824.949	26202
825.089	26233
825.228	26202
825.368	26008
825.508	26088
825.648	26073
825.787	26092
825.927	26084
826.067	26081
826.206	25986
826.346	26088
826.485	25978
826.625	25883
826.765	26210
826.904	26001
827.044	25818
827.183	25677
827.323	25715
827.462	25757
827.601	25696
827.741	25658
827.88	25791
828.02	25586
828.159	25753
828.298	25784
828.437	25868
828.577	25712
828.716	25944
828.855	25540
828.994	25464
829.134	25464
829.273	25384
829.412	25392
829.551	25289
829.69	25358
829.829	25518
829.968	25483
830.107	25426
830.246	25548
830.385	25221
830.524	25411
830.663	25236
830.802	25084
830.941	24924
831.08	24992
831.219	25304
831.357	25145
831.496	25301
831.635	25122
831.774	24928
831.913	24951
832.051	24833
832.19	24878
832.329	24791
832.467	24734
832.606	24715
832.744	24623
832.883	24696
833.022	24715
833.16	24688
833.299	24696
833.437	24798
833.576	24730
833.714	24764
833.852	24886
833.991	24890
834.129	24871
834.267	24791
834.406	24783
834.544	24768
834.682	24787
834.821	24730
834.959	24970
835.097	24681
835.235	24863
835.373	24783
835.511	24791
835.65	24734
835.788	24665
835.926	24532
836.064	24441
836.202	24426
836.34	24734
836.478	24688
836.615	24639
836.753	24681
836.891	24696
837.029	24684
837.167	24570
837.305	24608
837.443	24445
837.58	24456
837.718	24532
837.856	24528
837.993	24426
838.131	24277
838.269	24289
838.406	24315
838.544	24144
838.681	24129
838.819	24076
838.956	23980
839.094	23904
839.231	24072
839.369	24117
839.506	24262
839.643	24182
839.781	23954
839.918	23874
840.055	23916
840.193	23855
840.33	23790
840.467	23863
840.604	23832
840.742	24159
840.879	23764
841.016	23878
841.153	23665
841.29	23988
841.427	23828
841.564	23802
841.701	23916
841.838	23752
841.975	23657
842.112	23805
842.249	23627
842.385	23638
842.522	23843
842.659	23695
842.796	23383
842.933	23630
843.069	23585
843.206	23528
843.343	23623
843.479	23577
843.616	23562
843.752	23395
843.889	23421
844.025	23368
844.162	23368
844.298	23497
844.435	23410
844.571	23246
844.708	23322
844.844	23486
844.98	23543
845.117	23364
845.253	23334
845.389	23284
845.525	23261
845.661	23223
845.798	23136
845.934	23170
846.07	23105
846.206	22995
846.342	23261
846.478	22980
846.614	22755
846.75	22790
846.886	22847
847.022	22771
847.158	22869
847.294	22752
847.429	22942
847.565	22736
847.701	23025
847.837	22538
847.972	22618
848.108	22607
848.244	22622
848.379	22447
848.515	22299
848.65	22417
848.786	22462
848.921	22379
849.057	22546
849.192	22577
849.328	22512
849.463	22474
849.598	22409
849.734	22238
849.869	22299
850.004	22211
850.14	22154
850.275	22185
850.41	22177
850.545	22036
850.68	22120
850.815	22124
850.95	22158
851.085	22280
851.22	22333
851.355	22299
851.49	22101
851.625	22219
851.76	22211
851.895	22116
852.03	22166
852.165	22188
852.299	22131
852.434	22207
852.569	22112
852.703	22128
852.838	22291
852.973	22352
853.107	22181
853.242	22090
853.376	21930
853.511	21857
853.645	21911
853.78	22010
853.914	21953
854.048	21907
854.183	21949
854.317	22063
854.451	22185
854.585	21998
854.72	22051
854.854	21922
854.988	21922
855.122	21926
855.256	21911
855.39	21979
855.524	22029
855.658	21934
855.792	21960
855.926	21991
856.06	22013
856.194	22090
856.327	21991
856.461	21937
856.595	21975
856.729	21960
856.862	21960
856.996	22101
857.13	21953
857.263	22078
857.397	22200
857.53	22036
857.664	22109
857.797	22158
857.931	22010
858.064	21987
858.197	22082
858.331	21922
858.464	22017
858.597	21930
858.731	21926
858.864	21899
858.997	21755
859.13	21907
859.263	22051
859.396	22067
859.529	21968
859.662	21888
859.795	21983
859.928	21987
860.061	22188
860.194	22226
860.327	22013
860.46	22078
860.592	22181
860.725	22261
860.858	22154
860.99	22063
861.123	21930
861.256	22025
861.388	21861
861.521	22744
861.653	21892
861.786	21800
861.918	21759
862.05	21888
862.183	21854
862.315	21949
862.447	21941
862.58	21880
862.712	21629
862.844	21561
862.976	21873
863.108	21682
863.24	22143
863.372	21785
863.504	21701
863.636	21797
863.768	21785
863.9	21751
864.032	21671
864.164	21751
864.296	21724
864.428	21759
864.559	21739
864.691	21903
864.823	21618
864.954	21713
865.086	21561
865.217	21435
865.349	21515
865.48	21576
865.612	21572
865.743	21656
865.875	21568
866.006	21443
866.137	21553
866.269	21561
866.4	21530
866.531	21542
866.662	21473
866.793	21568
866.924	21591
867.055	21606
867.186	21587
867.317	21416
867.448	21538
867.579	21477
867.71	21405
867.841	21416
867.972	21625
868.103	21454
868.233	21587
868.364	21515
868.495	21553
868.625	21800
868.756	21819
868.886	21766
869.017	21762
869.147	21793
869.278	21937
869.408	21922
869.539	21671
869.669	21911
869.799	21762
869.929	21899
870.06	21975
870.19	22128
870.32	21968
870.45	22109
870.58	22230
870.71	22169
870.84	22188
870.97	22143
871.1	22101
871.23	22322
871.36	22314
871.489	22173
871.619	22287
871.749	22417
871.879	22371
872.008	22325
872.138	22215
872.267	22367
872.397	22169
872.526	22105
872.656	22295
872.785	22105
872.915	22447
873.044	22356
873.173	22466
873.303	22390
873.432	22428
873.561	22367
873.69	22363
873.819	22424
873.948	22546
874.077	22272
874.206	22287
874.335	22379
874.464	22443
874.593	22546
874.722	22508
874.851	22550
874.979	22561
875.108	22717
875.237	22630
875.365	22462
875.494	22557
875.623	22702
875.751	22527
875.88	22656
876.008	22771
876.136	22733
876.265	23018
876.393	23086
876.521	22980
876.65	23006
876.778	23121
876.906	22885
877.034	22843
877.162	22930
877.29	22938
877.418	22896
877.546	22877
877.674	22812
877.802	22881
877.93	22991
878.058	22653
878.185	22725
878.313	22805
878.441	22850
878.568	22748
878.696	22930
878.824	22957
878.951	23025
879.079	23067
879.206	23254
879.333	23079
879.461	22999
879.588	22949
879.715	23090
879.842	23223
879.97	22984
880.097	22767
880.224	22694
880.351	22713
880.478	22881
880.605	22603
880.732	22729
880.859	23037
880.986	22668
881.112	22786
881.239	22675
881.366	22527
881.493	22367
881.619	22428
881.746	22284
881.872	22234
881.999	22341
882.125	22192
882.252	22386
882.378	22280
882.505	22470
882.631	22268
882.757	22059
882.883	22112
883.01	21869
883.136	21949
883.262	21854
883.388	21793
883.514	21994
883.64	21968
883.766	21873
883.892	21743
884.018	21873
884.143	21869
884.269	22013
884.395	21660
884.52	21599
884.646	21743
884.772	21534
884.897	21507
885.023	21488
885.148	21713
885.274	21812
885.399	21778
885.524	21595
885.65	21542
885.775	21561
885.9	21618
886.025	21724
886.15	21648
886.275	21603
886.4	21511
886.525	21526
886.65	21515
886.775	21504
886.9	21682
887.025	21663
887.149	21454
887.274	21523
887.399	21374
887.523	21363
887.648	21458
887.773	21378
887.897	21412
888.021	21450
888.146	21321
888.27	21538
888.395	21458
888.519	21355
888.643	21359
888.767	21523
888.891	21252
889.015	21195
889.139	21306
889.263	21256
889.387	21272
889.511	21393
889.635	21241
889.759	21264
889.883	21241
890.006	21108
890.13	21420
890.254	21093
890.377	21085
890.501	20994
890.624	20933
890.748	20937
890.871	20804
890.995	20617
891.118	20731
891.241	20739
891.364	20708
891.488	20982
891.611	20781
891.734	20785
891.857	20842
891.98	20712
892.103	20716
892.226	20807
892.349	20701
892.471	20613
892.594	20762
892.717	20640
892.839	20621
892.962	20621
893.085	20807
893.207	20674
893.33	20484
893.452	20560
893.575	20629
893.697	20621
893.819	20758
893.941	20815
894.064	20735
894.186	20632
894.308	20606
894.43	20655
894.552	20876
894.674	20708
894.796	20659
894.918	20545
895.04	20469
895.161	20689
895.283	20598
895.405	20377
895.526	20613
895.648	20590
895.769	20712
895.891	20606
896.012	20712
896.134	20754
896.255	20663
896.376	20560
896.498	20746
896.619	20701
896.74	20667
896.861	20648
896.982	21036
897.103	21051
897.224	20941
897.345	20804
897.466	20739
897.587	20754
897.708	21108
897.828	20914
897.949	20758
898.07	20712
898.19	20720
898.311	20883
898.431	20788
898.552	20899
898.672	20811
898.792	20880
898.913	20838
899.033	20682
899.153	20708
899.273	20377
899.393	20541
899.513	20594
899.633	20560
899.753	20712
899.873	20492
899.993	20503
900.113	20476
900.232	20518
900.352	20457
900.472	20400
900.591	20347
900.711	20442
900.83	20298
900.95	20358
901.069	20412
901.189	20271
901.308	20031
901.427	19864
901.546	19944
901.665	19955
901.784	19909
901.904	19780
902.023	19632
902.141	19495
902.26	19586
902.379	19419
902.498	19419
902.617	19236
902.735	19419
902.854	19392
902.973	19384
903.091	19118
903.21	19004
903.328	19122
903.446	19031
903.565	18913
903.683	18920
903.801	18802
903.919	18848
904.038	18760
904.156	18665
904.274	18848
904.392	18639
904.51	18673
904.627	18715
904.745	18635
904.863	18776
904.981	18384
905.098	18281
905.216	18350
905.334	18342
905.451	18388
905.569	18361
905.686	18311
905.803	18190
905.921	18102
906.038	18228
906.155	18155
906.272	17999
906.389	18049
906.506	17927
906.623	17859
906.74	17901
906.857	17813
906.974	17756
907.091	17912
907.208	17942
907.324	17824
907.441	17798
907.557	17566
907.674	17611
907.79	17459
907.907	17585
908.023	17520
908.139	17528
908.256	17478
908.372	17433
908.488	17383
908.604	17425
908.72	17296
908.836	17311
908.952	17193
909.068	17277
909.184	17482
909.3	17265
909.415	17269
909.531	17197
909.647	16995
909.762	16991
909.878	16850
909.993	17025
910.108	16957
910.224	16972
910.339	16942
910.454	16869
910.57	16831
910.685	16694
910.8	17010
910.915	16991
911.03	16748
911.145	16554
911.259	16634
911.374	16523
911.489	16554
911.604	16436
911.718	16360
911.833	16379
911.947	16234
912.062	16295
912.176	16310
912.291	16329
912.405	16276
912.519	16428
912.633	16634
912.748	16390
912.862	16360
912.976	16226
913.09	15983
913.204	16078
913.318	16181
913.431	16143
913.545	16143
913.659	16219
913.772	16131
913.886	16013
914	15945
914.113	16021
914.226	16032
914.34	16044
914.453	15812
914.566	15941
914.68	15743
914.793	15857
914.906	15557
915.019	15496
915.132	15462
915.245	15416
915.358	15561
915.47	15549
915.583	15576
915.696	15610
915.809	15663
915.921	15671
916.034	15408
916.146	15481
916.259	15348
916.371	15504
916.483	15488
916.595	15382
916.708	15374
916.82	15370
916.932	15340
917.044	15386
917.156	15306
917.268	15123
917.38	15272
917.491	15157
917.603	15123
917.715	15173
917.826	15138
917.938	15036
918.049	14956
918.161	15100
918.272	15028
918.384	15306
918.495	15093
918.606	14910
918.717	14838
918.828	14891
918.939	14948
919.05	14834
919.161	14910
919.272	14731
919.383	14781
919.494	14880
919.604	15005
919.715	14941
919.826	14815
919.936	14864
920.047	14918
920.157	14815
920.267	15001
920.378	14929
920.488	14750
920.598	15020
920.708	15112
920.818	15043
920.928	15036
921.038	15108
921.148	15131
921.258	14804
921.368	14769
921.477	14598
921.587	14488
921.697	14499
921.806	14537
921.916	14545
922.025	14240
922.134	14123
922.244	14244
922.353	14237
922.462	14077
922.571	14043
922.68	14005
922.789	13837
922.898	13940
923.007	13750
923.116	13928
923.224	13875
923.333	13830
923.442	13753
923.55	13670
923.659	13655
923.767	13746
923.876	13616
923.984	13719
924.092	13575
924.201	13605
924.309	13590
924.417	13487
924.525	13529
924.633	13502
924.741	14374
924.849	13335
924.956	13544
925.064	13266
925.172	13247
925.279	13255
925.387	13335
925.494	13282
925.602	13354
925.709	13278
925.816	13099
925.924	13183
926.031	13247
926.138	13270
926.245	13247
926.352	13152
926.459	13213
926.566	13228
926.673	13129
926.779	13031
926.886	13099
926.993	12909
927.099	12837
927.206	12817
927.312	12700
927.419	12787
927.525	12833
927.631	12844
927.737	12673
927.843	12650
927.95	12547
928.056	12604
928.162	12665
928.267	12604
928.373	13263
928.479	12688
928.585	12490
928.69	12635
928.796	12623
928.901	12506
929.007	12452
929.112	12471
929.218	12498
929.323	12460
929.428	12380
929.533	12486
929.638	12270
929.743	12334
929.848	12388
929.953	12315
930.058	12224
930.163	12072
930.267	12060
930.372	12175
930.477	11988
930.581	12334
930.685	12019
930.79	11832
930.894	11923
930.998	11882
931.103	11954
931.207	11676
931.311	11676
931.415	11509
931.519	11345
931.623	11212
