Data from test_V78500241_520.txt Node
Date: Fri Mar 25 15:45:24 CST 2022
User: usil
Spectrometer: V785-0024
Trigger mode: 0
Integration Time (sec): 4.000000E-1
Scans to average: 1
Nonlinearity correction enabled: false
Boxcar width: 0
Storing dark spectrum: false
XAxis mode: Wavelengths
Number of Pixels in Spectrum: 1024
>>>>>Begin Spectral Data<<<<<
801.071	27587
801.214	27591
801.356	27279
801.499	27294
801.641	27058
801.783	27066
801.926	27150
802.068	27112
802.211	27070
802.353	26982
802.496	26815
802.638	26735
802.78	26701
802.923	26693
803.065	26663
803.208	26815
803.35	26804
803.492	26906
803.635	26937
803.777	26811
803.919	26960
804.061	27211
804.204	26998
804.346	26815
804.488	26686
804.63	26807
804.773	26686
804.915	27009
805.057	26990
805.199	26815
805.341	26986
805.483	27074
805.626	26944
805.768	26906
805.91	26998
806.052	26979
806.194	27036
806.336	27241
806.478	27077
806.62	27009
806.762	27230
806.904	27374
807.046	27595
807.188	27443
807.33	27435
807.472	27412
807.614	27367
807.756	27420
807.898	27268
808.04	27302
808.182	27378
808.324	27408
808.465	27332
808.607	27538
808.749	27557
808.891	27751
809.033	27861
809.174	27774
809.316	27751
809.458	27804
809.6	27614
809.741	27876
809.883	27823
810.025	27911
810.166	27842
810.308	28017
810.45	27846
810.591	27960
810.733	27713
810.875	27564
811.016	27587
811.158	27660
811.299	27781
811.441	27899
811.582	27899
811.724	27599
811.865	27675
812.007	27496
812.148	27637
812.29	27876
812.431	27949
812.573	28067
812.714	28105
812.855	28143
812.997	28143
813.138	28436
813.279	28481
813.421	28238
813.562	28173
813.703	27918
813.845	27983
813.986	27606
814.127	27458
814.268	27340
814.41	27386
814.551	27397
814.692	27340
814.833	27302
814.974	27329
815.115	27397
815.256	27249
815.397	27249
815.539	27203
815.68	27169
815.821	27074
815.962	26986
816.103	27131
816.244	26990
816.385	26914
816.526	26826
816.666	26796
816.807	26629
816.948	26724
817.089	26811
817.23	26754
817.371	26678
817.512	26670
817.653	26667
817.793	26541
817.934	26754
818.075	26613
818.216	26693
818.356	26625
818.497	26427
818.638	26294
818.778	26381
818.919	26431
819.06	26305
819.2	26476
819.341	26590
819.481	26598
819.622	26773
819.762	27055
819.903	26731
820.043	26887
820.184	26765
820.324	26731
820.465	26849
820.605	26697
820.746	26640
820.886	26617
821.026	26674
821.167	26689
821.307	26727
821.447	26507
821.588	26484
821.728	26324
821.868	26294
822.008	26164
822.149	26122
822.289	26103
822.429	25833
822.569	25776
822.709	25757
822.849	25464
822.99	25651
823.13	25567
823.27	25578
823.41	25343
823.55	25316
823.69	25377
823.83	25476
823.97	25377
824.11	25126
824.25	25244
824.389	25293
824.529	25343
824.669	25247
824.809	25236
824.949	25324
825.089	25377
825.228	25228
825.368	25031
825.508	25053
825.648	25137
825.787	25118
825.927	25255
826.067	25088
826.206	25012
826.346	25088
826.485	25076
826.625	25038
826.765	25175
826.904	25122
827.044	24783
827.183	24810
827.323	24738
827.462	24795
827.601	24806
827.741	24798
827.88	24753
828.02	24711
828.159	24608
828.298	24833
828.437	24875
828.577	24654
828.716	24935
828.855	24722
828.994	24464
829.134	24384
829.273	24620
829.412	24547
829.551	24418
829.69	24483
829.829	24509
829.968	24646
830.107	24483
830.246	24570
830.385	24502
830.524	24441
830.663	24380
830.802	24243
830.941	24140
831.08	24083
831.219	24194
831.357	24125
831.496	24323
831.635	24136
831.774	24034
831.913	23920
832.051	23908
832.19	23802
832.329	23931
832.467	23783
832.606	23657
832.744	23847
832.883	23707
833.022	23745
833.16	23726
833.299	23657
833.437	23847
833.576	23908
833.714	23802
833.852	23748
833.991	23946
834.129	23950
834.267	23931
834.406	23813
834.544	23851
834.682	23912
834.821	23847
834.959	23977
835.097	23771
835.235	23809
835.373	23870
835.511	23794
835.65	23722
835.788	23802
835.926	23570
836.064	23490
836.202	23467
836.34	23672
836.478	23699
836.615	23691
836.753	23638
836.891	23718
837.029	23699
837.167	23604
837.305	23471
837.443	23676
837.58	23467
837.718	23524
837.856	23592
837.993	23387
838.131	23269
838.269	23452
838.406	23452
838.544	23417
838.681	23231
838.819	23197
838.956	23083
839.094	22866
839.231	22991
839.369	23155
839.506	23239
839.643	23200
839.781	22927
839.918	22949
840.055	22847
840.193	22961
840.33	22824
840.467	22934
840.604	23010
840.742	23147
840.879	22778
841.016	22873
841.153	22736
841.29	22923
841.427	22869
841.564	22900
841.701	22847
841.838	22835
841.975	22828
842.112	22683
842.249	22725
842.385	22653
842.522	22744
842.659	22717
842.796	22641
842.933	22584
843.069	22519
843.206	22504
843.343	22687
843.479	22630
843.616	22538
843.752	22432
843.889	22360
844.025	22634
844.162	22375
844.298	22421
844.435	22367
844.571	22424
844.708	22478
844.844	22599
844.98	22538
845.117	22523
845.253	22386
845.389	22272
845.525	22390
845.661	22356
845.798	22295
845.934	22234
846.07	22074
846.206	22169
846.342	22352
846.478	22207
846.614	21827
846.75	21865
846.886	21823
847.022	21842
847.158	21968
847.294	21903
847.429	21975
847.565	21876
847.701	22097
847.837	21580
847.972	21606
848.108	21743
848.244	21603
848.379	21530
848.515	21515
848.65	21405
848.786	21507
848.921	21587
849.057	21557
849.192	21496
849.328	21526
849.463	21420
849.598	21378
849.734	21408
849.869	21351
850.004	21306
850.14	21222
850.275	21283
850.41	21146
850.545	21256
850.68	21298
850.815	21294
850.95	21218
851.085	21469
851.22	21466
851.355	21207
851.49	21207
851.625	21127
851.76	21272
851.895	21173
852.03	21173
852.165	21294
852.299	21256
852.434	21317
852.569	21222
852.703	21203
852.838	21150
852.973	21313
853.107	21386
853.242	21070
853.376	21085
853.511	20925
853.645	21028
853.78	21195
853.914	21074
854.048	20986
854.183	21020
854.317	21009
854.451	21195
854.585	21039
854.72	21112
854.854	21188
854.988	20971
855.122	21100
855.256	20914
855.39	20937
855.524	20982
855.658	21020
855.792	21089
855.926	21161
856.06	21096
856.194	21119
856.327	20986
856.461	21047
856.595	21055
856.729	21104
856.862	21108
856.996	21051
857.13	21119
857.263	21161
857.397	21108
857.53	21039
857.664	21112
857.797	21135
857.931	21070
858.064	21085
858.197	21226
858.331	21005
858.464	20986
858.597	20982
858.731	21116
858.864	20937
858.997	20918
859.13	21024
859.263	20963
859.396	21135
859.529	21047
859.662	21108
859.795	21074
859.928	21100
860.061	21184
860.194	21241
860.327	21070
860.46	21108
860.592	21211
860.725	21211
860.858	21157
860.99	20948
861.123	20899
861.256	20925
861.388	21077
861.521	21671
861.653	20956
861.786	20845
861.918	20792
862.05	20967
862.183	21013
862.315	20956
862.447	20941
862.58	20883
862.712	20788
862.844	20792
862.976	20823
863.108	20769
863.24	21294
863.372	20712
863.504	20746
863.636	20804
863.768	20731
863.9	20705
864.032	20720
864.164	20739
864.296	20883
864.428	20842
864.559	20853
864.691	20743
864.823	20796
864.954	20842
865.086	20697
865.217	20686
865.349	20541
865.48	20697
865.612	20648
865.743	20678
865.875	20823
866.006	20663
866.137	20636
866.269	20727
866.4	20644
866.531	20552
866.662	20514
866.793	20644
866.924	20655
867.055	20621
867.186	20739
867.317	20632
867.448	20575
867.579	20583
867.71	20587
867.841	20602
867.972	20571
868.103	20617
868.233	20663
868.364	20560
868.495	20720
868.625	20686
868.756	20872
868.886	20819
869.017	20743
869.147	20845
869.278	20990
869.408	20868
869.539	20773
869.669	20918
869.799	20986
869.929	21005
870.06	20785
870.19	21169
870.32	21203
870.45	21131
870.58	21188
870.71	21256
870.84	21359
870.97	21157
871.1	21348
871.23	21511
871.36	21416
871.489	21275
871.619	21329
871.749	21477
871.879	21405
872.008	21511
872.138	21492
872.267	21359
872.397	21279
872.526	21252
872.656	21241
872.785	21272
872.915	21439
873.044	21542
873.173	21462
873.303	21485
873.432	21466
873.561	21599
873.69	21447
873.819	21542
873.948	21504
874.077	21519
874.206	21367
874.335	21408
874.464	21545
874.593	21789
874.722	21713
874.851	21770
874.979	21713
875.108	21785
875.237	21724
875.365	21705
875.494	21625
875.623	21835
875.751	21553
875.88	21781
876.008	21819
876.136	21949
876.265	22211
876.393	22120
876.521	22128
876.65	22211
876.778	21998
876.906	22051
877.034	22074
877.162	22021
877.29	22010
877.418	22044
877.546	22029
877.674	22006
877.802	21987
877.93	22116
878.058	21968
878.185	21941
878.313	22116
878.441	21994
878.568	21865
878.696	21915
878.824	22124
878.951	22177
879.079	22226
879.206	22325
879.333	22242
879.461	22082
879.588	22386
879.715	22223
879.842	22249
879.97	22070
880.097	22036
880.224	22063
880.351	21998
880.478	21800
880.605	21789
880.732	21827
880.859	22128
880.986	21835
881.112	21850
881.239	21701
881.366	21603
881.493	21568
881.619	21431
881.746	21469
881.872	21439
881.999	21469
882.125	21488
882.252	21572
882.378	21382
882.505	21644
882.631	21291
882.757	21268
882.883	21268
883.01	21104
883.136	21096
883.262	21028
883.388	20963
883.514	21066
883.64	21112
883.766	21070
883.892	21009
884.018	20967
884.143	21032
884.269	21096
884.395	20864
884.52	20765
884.646	20902
884.772	20701
884.897	20743
885.023	20712
885.148	20872
885.274	20960
885.399	20815
885.524	20838
885.65	20705
885.775	20815
885.9	20716
886.025	20864
886.15	20891
886.275	20773
886.4	20708
886.525	20674
886.65	20705
886.775	20621
886.9	20849
887.025	21039
887.149	20838
887.274	20575
887.399	20625
887.523	20530
887.648	20499
887.773	20518
887.897	20575
888.021	20655
888.146	20454
888.27	20636
888.395	20663
888.519	20663
888.643	20625
888.767	20465
888.891	20476
889.015	20438
889.139	20423
889.263	20377
889.387	20457
889.511	20530
889.635	20560
889.759	20305
889.883	20324
890.006	20214
890.13	20609
890.254	20313
890.377	20214
890.501	20062
890.624	19997
890.748	20195
890.871	20054
890.995	19974
891.118	19967
891.241	20046
891.364	19940
891.488	20035
891.611	19845
891.734	19849
891.857	19932
891.98	20088
892.103	19993
892.226	19932
892.349	19906
892.471	19723
892.594	19944
892.717	19860
892.839	19913
892.962	19925
893.085	19974
893.207	19932
893.33	19715
893.452	19780
893.575	19921
893.697	19780
893.819	19997
893.941	20062
894.064	19925
894.186	19833
894.308	19860
894.43	19955
894.552	20016
894.674	19951
894.796	19803
894.918	19879
895.04	19811
895.161	19830
895.283	19852
895.405	19788
895.526	19811
895.648	19849
895.769	19906
895.891	19818
896.012	19936
896.134	19963
896.255	19814
896.376	19902
896.498	19780
896.619	19864
896.74	19811
896.861	19963
896.982	20256
897.103	20396
897.224	20278
897.345	20119
897.466	20081
897.587	20153
897.708	20313
897.828	20058
897.949	19982
898.07	19932
898.19	20050
898.311	20145
898.431	20054
898.552	20035
898.672	20153
898.792	20206
898.913	20024
899.033	20077
899.153	19947
899.273	19807
899.393	19719
899.513	19978
899.633	19708
899.753	19826
899.873	19746
899.993	19788
900.113	19765
900.232	19822
900.352	19742
900.472	19708
900.591	19559
900.711	19647
900.83	19578
900.95	19620
901.069	19742
901.189	19525
901.308	19377
901.427	19221
901.546	19202
901.665	19213
901.784	19282
901.904	19145
902.023	18981
902.141	18833
902.26	18753
902.379	18802
902.498	18814
902.617	18749
902.735	18726
902.854	18719
902.973	18650
903.091	18437
903.21	18540
903.328	18494
903.446	18380
903.565	18304
903.683	18190
903.801	18045
903.919	18121
904.038	18155
904.156	17866
904.274	17961
904.392	17999
904.51	17946
904.627	17939
904.745	18125
904.863	17980
904.981	17786
905.098	17558
905.216	17619
905.334	17684
905.451	17687
905.569	17638
905.686	17668
905.803	17604
905.921	17493
906.038	17528
906.155	17410
906.272	17326
906.389	17303
906.506	17147
906.623	17143
906.74	17121
906.857	17143
906.974	17045
907.091	17246
907.208	17254
907.324	17220
907.441	17052
907.557	16908
907.674	16915
907.79	16869
907.907	16854
908.023	16908
908.139	17045
908.256	16828
908.372	16900
908.488	16687
908.604	16630
908.72	16622
908.836	16668
908.952	16584
909.068	16588
909.184	16634
909.3	16561
909.415	16641
909.531	16645
909.647	16436
909.762	16352
909.878	16341
909.993	16325
910.108	16234
910.224	16337
910.339	16230
910.454	16059
910.57	16135
910.685	16044
910.8	16360
910.915	16299
911.03	16131
911.145	15987
911.259	15899
911.374	15876
911.489	15941
911.604	15793
911.718	15698
911.833	15720
911.947	15713
912.062	15660
912.176	15705
912.291	15724
912.405	15671
912.519	15857
912.633	15907
912.748	15797
912.862	15660
912.976	15564
913.09	15431
913.204	15393
913.318	15481
913.431	15618
913.545	15523
913.659	15447
913.772	15370
913.886	15256
914	15275
914.113	15447
914.226	15439
914.34	15325
914.453	15207
914.566	15306
914.68	15184
914.793	15233
914.906	14952
915.019	14864
915.132	14826
915.245	14861
915.358	14952
915.47	14830
915.583	14937
915.696	14845
915.809	14994
915.921	15055
916.034	14941
916.146	14929
916.259	14815
916.371	14880
916.483	15028
916.595	14724
916.708	14765
916.82	14712
916.932	14716
917.044	14758
917.156	14792
917.268	14632
917.38	14556
917.491	14533
917.603	14613
917.715	14640
917.826	14727
917.938	14484
918.049	14495
918.161	14526
918.272	14640
918.384	14613
918.495	14511
918.606	14431
918.717	14271
918.828	14366
918.939	14313
919.05	14294
919.161	14229
919.272	14187
919.383	14115
919.494	14419
919.604	14590
919.715	14408
919.826	14172
919.936	14305
920.047	14396
920.157	14336
920.267	14480
920.378	14389
920.488	14305
920.598	14571
920.708	14670
920.818	14442
920.928	14446
921.038	14594
921.148	14587
921.258	14256
921.368	14225
921.477	14050
921.587	14035
921.697	14039
921.806	14130
921.916	13936
922.025	13761
922.134	13708
922.244	13757
922.353	13738
922.462	13670
922.571	13521
922.68	13384
922.789	13392
922.898	13392
923.007	13346
923.116	13396
923.224	13468
923.333	13369
923.442	13251
923.55	13278
923.659	13285
923.767	13324
923.876	13168
923.984	13232
924.092	13164
924.201	13164
924.309	13129
924.417	13099
924.525	13084
924.633	13015
924.741	13940
924.849	12958
924.956	12928
925.064	12787
925.172	12753
925.279	12760
925.387	12848
925.494	12840
925.602	12897
925.709	12806
925.816	12707
925.924	12856
926.031	12897
926.138	12734
926.245	12848
926.352	12711
926.459	12791
926.566	12810
926.673	12719
926.779	12555
926.886	12574
926.993	12479
927.099	12479
927.206	12399
927.312	12372
927.419	12361
927.525	12330
927.631	12327
927.737	12296
927.843	12277
927.95	12136
928.056	12144
928.162	12281
928.267	12205
928.373	12894
928.479	12251
928.585	11996
928.69	12133
928.796	12129
928.901	12068
929.007	11927
929.112	11977
929.218	12030
929.323	11950
929.428	11969
929.533	12053
929.638	11923
929.743	11920
929.848	12011
929.953	11824
930.058	11756
930.163	11649
930.267	11627
930.372	11771
930.477	11611
930.581	11794
930.685	11676
930.79	11516
930.894	11543
930.998	11539
931.103	11638
931.207	11292
931.311	11162
931.415	11102
931.519	10892
931.623	10923
