Data from test_V78500241_2804.txt Node
Date: Fri Mar 25 16:01:13 CST 2022
User: usil
Spectrometer: V785-0024
Trigger mode: 0
Integration Time (sec): 4.000000E-1
Scans to average: 1
Nonlinearity correction enabled: false
Boxcar width: 0
Storing dark spectrum: false
XAxis mode: Wavelengths
Number of Pixels in Spectrum: 1024
>>>>>Begin Spectral Data<<<<<
801.071	29010
801.214	29037
801.356	28801
801.499	28771
801.641	28580
801.783	28557
801.926	28687
802.068	28687
802.211	28596
802.353	28451
802.496	28462
802.638	28276
802.78	28249
802.923	28097
803.065	28272
803.208	28215
803.35	28261
803.492	28470
803.635	28424
803.777	28538
803.919	28683
804.061	28831
804.204	28630
804.346	28371
804.488	28535
804.63	28573
804.773	28303
804.915	28679
805.057	28691
805.199	28584
805.341	28748
805.483	28645
805.626	28588
805.768	28664
805.91	28698
806.052	28816
806.194	28645
806.336	28805
806.478	28656
806.62	28824
806.762	28744
806.904	29052
807.046	29136
807.188	29121
807.33	29166
807.472	29315
807.614	29132
807.756	29136
807.898	28915
808.04	28953
808.182	28965
808.324	28908
808.465	29022
808.607	29375
808.749	29459
808.891	29558
809.033	29608
809.174	29395
809.316	29486
809.458	29360
809.6	29429
809.741	29520
809.883	29501
810.025	29657
810.166	29695
810.308	29703
810.45	29767
810.591	29585
810.733	29383
810.875	29398
811.016	29356
811.158	29216
811.299	29406
811.441	29524
811.582	29516
811.724	29459
811.865	29258
812.007	29383
812.148	29288
812.29	29520
812.431	29554
812.573	29802
812.714	29866
812.855	29908
812.997	30030
813.138	30182
813.279	30197
813.421	29939
813.562	29950
813.703	29714
813.845	29733
813.986	29311
814.127	29292
814.268	29197
814.41	29147
814.551	29056
814.692	29261
814.833	28984
814.974	29132
815.115	29098
815.256	28961
815.397	28961
815.539	28942
815.68	28930
815.821	28839
815.962	28942
816.103	28961
816.244	28672
816.385	28713
816.526	28706
816.666	28500
816.807	28348
816.948	28542
817.089	28508
817.23	28538
817.371	28459
817.512	28531
817.653	28390
817.793	28493
817.934	28474
818.075	28565
818.216	28455
818.356	28398
818.497	28265
818.638	28226
818.778	28135
818.919	28291
819.06	28226
819.2	28291
819.341	28474
819.481	28371
819.622	28630
819.762	28824
819.903	28596
820.043	28660
820.184	28630
820.324	28774
820.465	28797
820.605	28603
820.746	28611
820.886	28329
821.026	28535
821.167	28569
821.307	28637
821.447	28535
821.588	28405
821.728	28242
821.868	28158
822.008	27842
822.149	27907
822.289	27998
822.429	27610
822.569	27812
822.709	27545
822.849	27424
822.99	27481
823.13	27435
823.27	27389
823.41	27321
823.55	27203
823.69	27237
823.83	27176
823.97	27127
824.11	27157
824.25	27070
824.389	27199
824.529	27108
824.669	27135
824.809	27214
824.949	27321
825.089	27325
825.228	27195
825.368	27070
825.508	27043
825.648	27066
825.787	27203
825.927	27131
826.067	27036
826.206	26994
826.346	26967
826.485	27169
826.625	26982
826.765	27104
826.904	26944
827.044	26937
827.183	26708
827.323	26838
827.462	26705
827.601	26876
827.741	26731
827.88	26712
828.02	26606
828.159	26705
828.298	26838
828.437	26769
828.577	26640
828.716	26796
828.855	26758
828.994	26305
829.134	26442
829.273	26549
829.412	26484
829.551	26366
829.69	26511
829.829	26393
829.968	26511
830.107	26457
830.246	26453
830.385	26298
830.524	26355
830.663	26221
830.802	26176
830.941	25917
831.08	26092
831.219	26172
831.357	26164
831.496	26206
831.635	26012
831.774	25963
831.913	25921
832.051	25830
832.19	25860
832.329	25883
832.467	25696
832.606	25723
832.744	25769
832.883	25727
833.022	25605
833.16	25582
833.299	25734
833.437	25966
833.576	25784
833.714	25662
833.852	25860
833.991	25928
834.129	25807
834.267	25849
834.406	25845
834.544	25769
834.682	25780
834.821	25818
834.959	25715
835.097	25731
835.235	25681
835.373	25689
835.511	25658
835.65	25620
835.788	25586
835.926	25403
836.064	25411
836.202	25388
836.34	25704
836.478	25700
836.615	25514
836.753	25518
836.891	25556
837.029	25620
837.167	25422
837.305	25518
837.443	25544
837.58	25479
837.718	25578
837.856	25453
837.993	25244
838.131	25453
838.269	25194
838.406	25293
838.544	25285
838.681	25088
838.819	24913
838.956	24852
839.094	24878
839.231	24928
839.369	25095
839.506	25206
839.643	25000
839.781	24852
839.918	24646
840.055	24890
840.193	24684
840.33	24825
840.467	24719
840.604	24703
840.742	25000
840.879	24593
841.016	24745
841.153	24601
841.29	24825
841.427	24814
841.564	24829
841.701	24722
841.838	24791
841.975	24601
842.112	24639
842.249	24730
842.385	24490
842.522	24806
842.659	24597
842.796	24513
842.933	24483
843.069	24448
843.206	24559
843.343	24563
843.479	24623
843.616	24582
843.752	24376
843.889	24277
844.025	24623
844.162	24251
844.298	24437
844.435	24372
844.571	24239
844.708	24239
844.844	24395
844.98	24353
845.117	24437
845.253	24178
845.389	24144
845.525	24224
845.661	24136
845.798	24015
845.934	24163
846.07	24038
846.206	24095
846.342	24220
846.478	23980
846.614	23767
846.75	23604
846.886	23783
847.022	23802
847.158	23783
847.294	23642
847.429	23786
847.565	23634
847.701	23870
847.837	23474
847.972	23395
848.108	23520
848.244	23433
848.379	23478
848.515	23360
848.65	23296
848.786	23356
848.921	23231
849.057	23414
849.192	23452
849.328	23345
849.463	23296
849.598	23315
849.734	23353
849.869	23162
850.004	23094
850.14	23128
850.275	23044
850.41	22942
850.545	23064
850.68	23109
850.815	23102
850.95	23143
851.085	23269
851.22	23216
851.355	23083
851.49	22968
851.625	22995
851.76	23064
851.895	22968
852.03	23056
852.165	23174
852.299	23029
852.434	23185
852.569	23067
852.703	23090
852.838	23147
852.973	23277
853.107	23200
853.242	23094
853.376	23014
853.511	22942
853.645	22911
853.78	23010
853.914	22862
854.048	22858
854.183	22847
854.317	22908
854.451	23056
854.585	22881
854.72	22965
854.854	22972
854.988	22854
855.122	22885
855.256	22755
855.39	22900
855.524	22976
855.658	22946
855.792	22873
855.926	22957
856.06	23022
856.194	22976
856.327	22858
856.461	22820
856.595	22809
856.729	22892
856.862	23105
856.996	22946
857.13	23029
857.263	22980
857.397	23006
857.53	22911
857.664	22911
857.797	23029
857.931	23067
858.064	23041
858.197	22987
858.331	22942
858.464	22850
858.597	22862
858.731	22866
858.864	22900
858.997	22938
859.13	22748
859.263	22953
859.396	23033
859.529	22820
859.662	22850
859.795	22885
859.928	22774
860.061	23124
860.194	22987
860.327	22999
860.46	22923
860.592	23121
860.725	23086
860.858	23155
860.99	22850
861.123	22938
861.256	22801
861.388	23010
861.521	23668
861.653	22725
861.786	22721
861.918	22809
862.05	22835
862.183	22908
862.315	22892
862.447	22812
862.58	22915
862.712	22725
862.844	22561
862.976	22668
863.108	22691
863.24	23003
863.372	22569
863.504	22577
863.636	22603
863.768	22653
863.9	22573
864.032	22538
864.164	22615
864.296	22649
864.428	22782
864.559	22786
864.691	22653
864.823	22607
864.954	22588
865.086	22588
865.217	22565
865.349	22432
865.48	22436
865.612	22557
865.743	22599
865.875	22512
866.006	22402
866.137	22481
866.269	22645
866.4	22546
866.531	22360
866.662	22390
866.793	22394
866.924	22360
867.055	22363
867.186	22363
867.317	22375
867.448	22299
867.579	22352
867.71	22405
867.841	22356
867.972	22443
868.103	22257
868.233	22443
868.364	22436
868.495	22508
868.625	22637
868.756	22774
868.886	22611
869.017	22698
869.147	22630
869.278	22710
869.408	22592
869.539	22656
869.669	22691
869.799	22637
869.929	22839
870.06	22675
870.19	22927
870.32	22968
870.45	22961
870.58	23052
870.71	23162
870.84	23132
870.97	23067
871.1	22942
871.23	23212
871.36	23136
871.489	23162
871.619	23204
871.749	23288
871.879	23288
872.008	23341
872.138	23220
872.267	23337
872.397	23090
872.526	23098
872.656	23102
872.785	23098
872.915	23223
873.044	23318
873.173	23349
873.303	23391
873.432	23353
873.561	23258
873.69	23315
873.819	23170
873.948	23288
874.077	23296
874.206	23170
874.335	23197
874.464	23277
874.593	23531
874.722	23444
874.851	23543
874.979	23501
875.108	23570
875.237	23520
875.365	23379
875.494	23398
875.623	23585
875.751	23421
875.88	23528
876.008	23668
876.136	23684
876.265	23832
876.393	23958
876.521	23885
876.65	23866
876.778	23920
876.906	23866
877.034	23638
877.162	23859
877.29	23843
877.418	23813
877.546	23885
877.674	23851
877.802	23870
877.93	23828
878.058	23756
878.185	23752
878.313	23817
878.441	23752
878.568	23707
878.696	23745
878.824	23783
878.951	23843
879.079	23923
879.206	24038
879.333	23935
879.461	23821
879.588	23878
879.715	23973
879.842	24140
879.97	23828
880.097	23535
880.224	23627
880.351	23649
880.478	23608
880.605	23486
880.732	23608
880.859	23878
880.986	23642
881.112	23687
881.239	23467
881.366	23436
881.493	23360
881.619	23231
881.746	23197
881.872	23258
881.999	23048
882.125	23159
882.252	23231
882.378	23132
882.505	23181
882.631	23022
882.757	22942
882.883	23006
883.01	22786
883.136	22816
883.262	22668
883.388	22767
883.514	22892
883.64	22824
883.766	22748
883.892	22550
884.018	22618
884.143	22748
884.269	22911
884.395	22592
884.52	22554
884.646	22440
884.772	22409
884.897	22356
885.023	22618
885.148	22535
885.274	22599
885.399	22649
885.524	22371
885.65	22474
885.775	22489
885.9	22390
886.025	22596
886.15	22626
886.275	22470
886.4	22432
886.525	22508
886.65	22291
886.775	22291
886.9	22557
887.025	22660
887.149	22382
887.274	22272
887.399	22219
887.523	22329
887.648	22128
887.773	22093
887.897	22295
888.021	22318
888.146	22181
888.27	22341
888.395	22299
888.519	22082
888.643	22223
888.767	22211
888.891	22109
889.015	22006
889.139	22021
889.263	21945
889.387	22070
889.511	22166
889.635	22139
889.759	22021
889.883	21895
890.006	22070
890.13	22105
890.254	21972
890.377	21960
890.501	21751
890.624	21717
890.748	21816
890.871	21770
890.995	21462
891.118	21473
891.241	21603
891.364	21606
891.488	21641
891.611	21595
891.734	21576
891.857	21606
891.98	21485
892.103	21595
892.226	21477
892.349	21553
892.471	21306
892.594	21462
892.717	21523
892.839	21481
892.962	21568
893.085	21428
893.207	21389
893.33	21260
893.452	21317
893.575	21485
893.697	21389
893.819	21622
893.941	21667
894.064	21622
894.186	21466
894.308	21488
894.43	21469
894.552	21519
894.674	21568
894.796	21298
894.918	21374
895.04	21386
895.161	21542
895.283	21473
895.405	21329
895.526	21359
895.648	21439
895.769	21583
895.891	21507
896.012	21686
896.134	21435
896.255	21466
896.376	21283
896.498	21504
896.619	21492
896.74	21466
896.861	21507
896.982	21808
897.103	21743
897.224	21534
897.345	21713
897.466	21587
897.587	21633
897.708	21785
897.828	21637
897.949	21648
898.07	21428
898.19	21523
898.311	21614
898.431	21534
898.552	21545
898.672	21755
898.792	21667
898.913	21648
899.033	21428
899.153	21321
899.273	21264
899.393	21370
899.513	21310
899.633	21405
899.753	21450
899.873	21370
899.993	21359
900.113	21222
900.232	21332
900.352	21169
900.472	21119
900.591	21013
900.711	21203
900.83	21070
900.95	21051
901.069	21138
901.189	21066
901.308	20849
901.427	20655
901.546	20617
901.665	20705
901.784	20655
901.904	20552
902.023	20358
902.141	20275
902.26	20237
902.379	20199
902.498	20103
902.617	20248
902.735	20237
902.854	20103
902.973	20073
903.091	19875
903.21	19860
903.328	19750
903.446	19753
903.565	19689
903.683	19677
903.801	19518
903.919	19578
904.038	19449
904.156	19415
904.274	19392
904.392	19415
904.51	19316
904.627	19312
904.745	19419
904.863	19445
904.981	19122
905.098	18894
905.216	19050
905.334	19027
905.451	19065
905.569	19015
905.686	19076
905.803	18951
905.921	18757
906.038	18928
906.155	18859
906.272	18772
906.389	18779
906.506	18608
906.623	18566
906.74	18540
906.857	18479
906.974	18433
907.091	18582
907.208	18639
907.324	18578
907.441	18418
907.557	18365
907.674	18361
907.79	18159
907.907	18209
908.023	18304
908.139	18350
908.256	18106
908.372	18174
908.488	18251
908.604	17946
908.72	18011
908.836	18007
908.952	17935
909.068	18091
909.184	18038
909.3	18011
909.415	18026
909.531	18015
909.647	17714
909.762	17649
909.878	17703
909.993	17718
910.108	17653
910.224	17627
910.339	17653
910.454	17452
910.57	17558
910.685	17395
910.8	17676
910.915	17528
911.03	17421
911.145	17269
911.259	17220
911.374	17246
911.489	17174
911.604	17128
911.718	16995
911.833	16991
911.947	16847
912.062	16850
912.176	16942
912.291	17079
912.405	16892
912.519	17113
912.633	17159
912.748	16904
912.862	16953
912.976	16774
913.09	16691
913.204	16649
913.318	16786
913.431	16911
913.545	16793
913.659	16919
913.772	16573
913.886	16653
914	16546
914.113	16542
914.226	16630
914.34	16645
914.453	16474
914.566	16634
914.68	16466
914.793	16390
914.906	16242
915.019	16257
915.132	16101
915.245	16124
915.358	16078
915.47	16219
915.583	16036
915.696	16128
915.809	16207
915.921	16124
916.034	16116
916.146	16078
916.259	16055
916.371	16116
916.483	16097
916.595	15968
916.708	15956
916.82	15846
916.932	15937
917.044	15873
917.156	15888
917.268	15827
917.38	15778
917.491	15709
917.603	15720
917.715	15808
917.826	15895
917.938	15686
918.049	15507
918.161	15679
918.272	15766
918.384	15637
918.495	15641
918.606	15515
918.717	15408
918.828	15511
918.939	15561
919.05	15340
919.161	15412
919.272	15188
919.383	15291
919.494	15561
919.604	15595
919.715	15488
919.826	15378
919.936	15321
920.047	15534
920.157	15519
920.267	15656
920.378	15473
920.488	15336
920.598	15530
920.708	15720
920.818	15698
920.928	15492
921.038	15705
921.148	15709
921.258	15389
921.368	15313
921.477	15195
921.587	15135
921.697	15058
921.806	15207
921.916	14952
922.025	14914
922.134	14735
922.244	14663
922.353	14746
922.462	14610
922.571	14613
922.68	14461
922.789	14355
922.898	14465
923.007	14366
923.116	14423
923.224	14423
923.333	14355
923.442	14240
923.55	14180
923.659	14237
923.767	14252
923.876	14111
923.984	14252
924.092	14111
924.201	14100
924.309	14062
924.417	14077
924.525	13997
924.633	14145
924.741	14990
924.849	13818
924.956	14050
925.064	13875
925.172	13750
925.279	13753
925.387	13826
925.494	13845
925.602	13906
925.709	13814
925.816	13616
925.924	13788
926.031	13788
926.138	13712
926.245	13753
926.352	13578
926.459	13731
926.566	13738
926.673	13658
926.779	13521
926.886	13510
926.993	13343
927.099	13236
927.206	13259
927.312	13198
927.419	13304
927.525	13209
927.631	13304
927.737	13156
927.843	13171
927.95	13061
928.056	13137
928.162	13118
928.267	13217
928.373	13746
928.479	13263
928.585	13027
928.69	13057
928.796	13103
928.901	12981
929.007	12829
929.112	12878
929.218	12951
929.323	12791
929.428	12821
929.533	12951
929.638	12722
929.743	12726
929.848	12852
929.953	12707
930.058	12734
930.163	12467
930.267	12532
930.372	12601
930.477	12464
930.581	12654
930.685	12544
930.79	12289
930.894	12353
930.998	12338
931.103	12475
931.207	12178
931.311	11980
931.415	11923
931.519	11813
931.623	11729
