Data from test_V78500241_426.txt Node
Date: Fri Mar 25 15:44:45 CST 2022
User: usil
Spectrometer: V785-0024
Trigger mode: 0
Integration Time (sec): 4.000000E-1
Scans to average: 1
Nonlinearity correction enabled: false
Boxcar width: 0
Storing dark spectrum: false
XAxis mode: Wavelengths
Number of Pixels in Spectrum: 1024
>>>>>Begin Spectral Data<<<<<
801.071	28341
801.214	28154
801.356	28044
801.499	27911
801.641	27816
801.783	27804
801.926	27888
802.068	27785
802.211	27720
802.353	27751
802.496	27545
802.638	27466
802.78	27332
802.923	27302
803.065	27435
803.208	27416
803.35	27481
803.492	27408
803.635	27667
803.777	27298
803.919	27595
804.061	27732
804.204	27542
804.346	27534
804.488	27610
804.63	27454
804.773	27416
804.915	27637
805.057	27652
805.199	27561
805.341	27675
805.483	27694
805.626	27629
805.768	27545
805.91	27656
806.052	27648
806.194	27682
806.336	27808
806.478	27736
806.62	27774
806.762	27774
806.904	27854
807.046	28143
807.188	28070
807.33	28093
807.472	28147
807.614	28112
807.756	27994
807.898	27861
808.04	27880
808.182	28013
808.324	27884
808.465	27998
808.607	28090
808.749	28314
808.891	28341
809.033	28421
809.174	28341
809.316	28329
809.458	28337
809.6	28268
809.741	28401
809.883	28478
810.025	28489
810.166	28615
810.308	28386
810.45	28474
810.591	28588
810.733	28436
810.875	28253
811.016	28204
811.158	28101
811.299	28443
811.441	28447
811.582	28310
811.724	28325
811.865	28261
812.007	28291
812.148	28181
812.29	28333
812.431	28344
812.573	28436
812.714	28694
812.855	28854
812.997	28850
813.138	28896
813.279	28930
813.421	28763
813.562	28660
813.703	28481
813.845	28322
813.986	28070
814.127	28055
814.268	27797
814.41	27911
814.551	27842
814.692	27899
814.833	27747
814.974	27857
815.115	27972
815.256	27736
815.397	27671
815.539	27819
815.68	27804
815.821	27728
815.962	27732
816.103	27675
816.244	27583
816.385	27488
816.526	27504
816.666	27180
816.807	27260
816.948	27272
817.089	27233
817.23	27188
817.371	27252
817.512	27233
817.653	26967
817.793	26967
817.934	27096
818.075	27169
818.216	27108
818.356	27123
818.497	27100
818.638	26785
818.778	26781
818.919	26937
819.06	26887
819.2	26876
819.341	27142
819.481	27062
819.622	27131
819.762	27256
819.903	27374
820.043	27207
820.184	27138
820.324	27283
820.465	27298
820.605	27108
820.746	27096
820.886	27112
821.026	27214
821.167	27123
821.307	27138
821.447	27100
821.588	26975
821.728	26937
821.868	26632
822.008	26632
822.149	26541
822.289	26541
822.429	26313
822.569	26298
822.709	26240
822.849	25986
822.99	26046
823.13	25811
823.27	26005
823.41	25826
823.55	25712
823.69	25784
823.83	25750
823.97	25738
824.11	25639
824.25	25487
824.389	25544
824.529	25712
824.669	25571
824.809	25651
824.949	25601
825.089	25849
825.228	25567
825.368	25457
825.508	25544
825.648	25434
825.787	25491
825.927	25548
826.067	25369
826.206	25586
826.346	25354
826.485	25563
826.625	25335
826.765	25464
826.904	25571
827.044	25213
827.183	25213
827.323	25008
827.462	25194
827.601	25118
827.741	25088
827.88	25103
828.02	24996
828.159	25088
828.298	25080
828.437	25266
828.577	25065
828.716	25202
828.855	25012
828.994	24932
829.134	24867
829.273	24894
829.412	24757
829.551	24795
829.69	24825
829.829	24764
829.968	24859
830.107	24867
830.246	24642
830.385	24707
830.524	24684
830.663	24635
830.802	24505
830.941	24426
831.08	24353
831.219	24414
831.357	24502
831.496	24616
831.635	24258
831.774	24197
831.913	24327
832.051	24136
832.19	24148
832.329	24038
832.467	24083
832.606	23965
832.744	23980
832.883	24060
833.022	23939
833.16	23973
833.299	24022
833.437	24015
833.576	24022
833.714	24106
833.852	24194
833.991	24281
834.129	24201
834.267	24216
834.406	23870
834.544	24197
834.682	23999
834.821	24068
834.959	24102
835.097	23992
835.235	24072
835.373	23950
835.511	24011
835.65	23992
835.788	23927
835.926	23805
836.064	23703
836.202	23672
836.34	23847
836.478	23942
836.615	23870
836.753	24026
836.891	24011
837.029	24060
837.167	23855
837.305	23790
837.443	23893
837.58	23577
837.718	23908
837.856	23908
837.993	23710
838.131	23729
838.269	23623
838.406	23623
838.544	23657
838.681	23239
838.819	23265
838.956	23159
839.094	23216
839.231	23178
839.369	23395
839.506	23444
839.643	23391
839.781	23170
839.918	22999
840.055	23079
840.193	23185
840.33	23075
840.467	23086
840.604	23132
840.742	23387
840.879	22953
841.016	23193
841.153	22904
841.29	23174
841.427	23064
841.564	23098
841.701	23136
841.838	23018
841.975	22961
842.112	23006
842.249	22790
842.385	22850
842.522	23174
842.659	22816
842.796	22843
842.933	22812
843.069	22820
843.206	22778
843.343	22809
843.479	22866
843.616	22778
843.752	22565
843.889	22561
844.025	22664
844.162	22542
844.298	22569
844.435	22573
844.571	22489
844.708	22641
844.844	22702
844.98	22691
845.117	22748
845.253	22466
845.389	22398
845.525	22447
845.661	22337
845.798	22303
845.934	22443
846.07	22207
846.206	22261
846.342	22470
846.478	22177
846.614	21994
846.75	21972
846.886	22105
847.022	22010
847.158	22025
847.294	22078
847.429	22101
847.565	22006
847.701	22139
847.837	21667
847.972	21637
848.108	21739
848.244	21793
848.379	21675
848.515	21553
848.65	21633
848.786	21538
848.921	21690
849.057	21690
849.192	21705
849.328	21705
849.463	21492
849.598	21622
849.734	21458
849.869	21401
850.004	21313
850.14	21439
850.275	21298
850.41	21355
850.545	21302
850.68	21329
850.815	21351
850.95	21287
851.085	21477
851.22	21458
851.355	21310
851.49	21340
851.625	21233
851.76	21351
851.895	21249
852.03	21157
852.165	21249
852.299	21340
852.434	21302
852.569	21348
852.703	21386
852.838	21382
852.973	21416
853.107	21401
853.242	21252
853.376	21264
853.511	21020
853.645	21127
853.78	21180
853.914	21131
854.048	21131
854.183	21001
854.317	21081
854.451	21199
854.585	21047
854.72	21085
854.854	21222
854.988	21104
855.122	21074
855.256	20921
855.39	21268
855.524	21077
855.658	21131
855.792	21135
855.926	21173
856.06	21222
856.194	21268
856.327	21207
856.461	21058
856.595	21127
856.729	21116
856.862	21241
856.996	21085
857.13	21154
857.263	21199
857.397	21245
857.53	21169
857.664	21173
857.797	21096
857.931	21184
858.064	21112
858.197	21218
858.331	21169
858.464	21104
858.597	21062
858.731	21093
858.864	21085
858.997	21138
859.13	21135
859.263	21104
859.396	21150
859.529	21241
859.662	21005
859.795	21009
859.928	21127
860.061	21233
860.194	21245
860.327	21062
860.46	21127
860.592	21207
860.725	21173
860.858	21272
860.99	21047
861.123	21047
861.256	21028
861.388	20986
861.521	21648
861.653	21001
861.786	20971
861.918	20925
862.05	20998
862.183	21024
862.315	21043
862.447	21119
862.58	21116
862.712	20868
862.844	20762
862.976	21013
863.108	20815
863.24	21329
863.372	20739
863.504	20746
863.636	20773
863.768	20815
863.9	20750
864.032	20708
864.164	20769
864.296	20712
864.428	20834
864.559	20823
864.691	20872
864.823	20743
864.954	20834
865.086	20762
865.217	20750
865.349	20663
865.48	20682
865.612	20777
865.743	20697
865.875	20655
866.006	20686
866.137	20750
866.269	20724
866.4	20682
866.531	20625
866.662	20621
866.793	20655
866.924	20575
867.055	20727
867.186	20613
867.317	20625
867.448	20682
867.579	20674
867.71	20484
867.841	20537
867.972	20651
868.103	20522
868.233	20655
868.364	20598
868.495	20769
868.625	20815
868.756	21043
868.886	20731
869.017	20838
869.147	21032
869.278	20960
869.408	20948
869.539	20887
869.669	20975
869.799	20967
869.929	21066
870.06	20960
870.19	21154
870.32	21188
870.45	21180
870.58	21332
870.71	21389
870.84	21416
870.97	21275
871.1	21249
871.23	21492
871.36	21477
871.489	21420
871.619	21428
871.749	21443
871.879	21420
872.008	21587
872.138	21507
872.267	21443
872.397	21329
872.526	21393
872.656	21344
872.785	21249
872.915	21469
873.044	21564
873.173	21477
873.303	21675
873.432	21545
873.561	21530
873.69	21603
873.819	21557
873.948	21519
874.077	21534
874.206	21557
874.335	21439
874.464	21561
874.593	21732
874.722	21641
874.851	21743
874.979	21781
875.108	21770
875.237	21610
875.365	21629
875.494	21720
875.623	21762
875.751	21747
875.88	21686
876.008	21842
876.136	21842
876.265	22120
876.393	22306
876.521	22177
876.65	22196
876.778	22215
876.906	21983
877.034	22090
877.162	22063
877.29	22013
877.418	22105
877.546	22169
877.674	22048
877.802	22097
877.93	22158
878.058	22116
878.185	21941
878.313	22070
878.441	22029
878.568	21903
878.696	21926
878.824	22139
878.951	22226
879.079	22215
879.206	22371
879.333	22367
879.461	22055
879.588	22173
879.715	22344
879.842	22337
879.97	22246
880.097	21838
880.224	21968
880.351	21816
880.478	21998
880.605	21804
880.732	21941
880.859	22211
880.986	22013
881.112	21850
881.239	21854
881.366	21728
881.493	21625
881.619	21450
881.746	21492
881.872	21443
881.999	21428
882.125	21405
882.252	21500
882.378	21428
882.505	21587
882.631	21340
882.757	21165
882.883	21313
883.01	21199
883.136	21119
883.262	21123
883.388	21055
883.514	21199
883.64	21226
883.766	21112
883.892	20975
884.018	21001
884.143	21089
884.269	21252
884.395	20975
884.52	20834
884.646	20880
884.772	20792
884.897	20758
885.023	20902
885.148	20929
885.274	20982
885.399	20986
885.524	20765
885.65	20788
885.775	20716
885.9	20762
886.025	20963
886.15	20918
886.275	20792
886.4	20674
886.525	20765
886.65	20697
886.775	20746
886.9	20941
887.025	21077
887.149	20762
887.274	20716
887.399	20602
887.523	20526
887.648	20644
887.773	20465
887.897	20541
888.021	20579
888.146	20431
888.27	20720
888.395	20651
888.519	20609
888.643	20484
888.767	20632
888.891	20518
889.015	20393
889.139	20427
889.263	20256
889.387	20511
889.511	20568
889.635	20461
889.759	20404
889.883	20374
890.006	20419
890.13	20450
890.254	20305
890.377	20332
890.501	20225
890.624	20069
890.748	20164
890.871	19940
890.995	19982
891.118	19913
891.241	20027
891.364	19982
891.488	20027
891.611	19978
891.734	19963
891.857	20100
891.98	20077
892.103	20100
892.226	20043
892.349	19940
892.471	19704
892.594	19868
892.717	19967
892.839	19837
892.962	19814
893.085	19951
893.207	19909
893.33	19700
893.452	19715
893.575	19963
893.697	19868
893.819	20039
893.941	20145
894.064	19921
894.186	19837
894.308	19689
894.43	19940
894.552	19928
894.674	19894
894.796	19795
894.918	19913
895.04	19856
895.161	19845
895.283	19982
895.405	19822
895.526	19989
895.648	19875
895.769	19955
895.891	19852
896.012	19959
896.134	19917
896.255	19894
896.376	19837
896.498	19875
896.619	19967
896.74	19871
896.861	20008
896.982	20206
897.103	20404
897.224	20202
897.345	20195
897.466	20050
897.587	20069
897.708	20286
897.828	20145
897.949	20111
898.07	19898
898.19	19940
898.311	20164
898.431	20077
898.552	20138
898.672	20187
898.792	20111
898.913	20100
899.033	20012
899.153	19967
899.273	19788
899.393	19788
899.513	19864
899.633	19887
899.753	19845
899.873	19864
899.993	19970
900.113	19871
900.232	19765
900.352	19761
900.472	19727
900.591	19582
900.711	19586
900.83	19677
900.95	19765
901.069	19689
901.189	19590
901.308	19403
901.427	19187
901.546	19198
901.665	19308
901.784	19110
901.904	19004
902.023	19023
902.141	18844
902.26	18734
902.379	18795
902.498	18787
902.617	18661
902.735	18787
902.854	18650
902.973	18585
903.091	18418
903.21	18448
903.328	18315
903.446	18315
903.565	18224
903.683	18247
903.801	18003
903.919	18247
904.038	18289
904.156	17969
904.274	17969
904.392	17965
904.51	17980
904.627	17821
904.745	17969
904.863	18057
904.981	17752
905.098	17619
905.216	17680
905.334	17748
905.451	17646
905.569	17566
905.686	17714
905.803	17634
905.921	17459
906.038	17608
906.155	17471
906.272	17322
906.389	17334
906.506	17162
906.623	17178
906.74	17189
906.857	17071
906.974	16999
907.091	17212
907.208	17337
907.324	17105
907.441	17067
907.557	16923
907.674	16919
907.79	16782
907.907	16828
908.023	16854
908.139	16896
908.256	16805
908.372	16782
908.488	16713
908.604	16641
908.72	16542
908.836	16531
908.952	16607
909.068	16615
909.184	16649
909.3	16554
909.415	16573
909.531	16607
909.647	16280
909.762	16249
909.878	16295
909.993	16306
910.108	16344
910.224	16173
910.339	16287
910.454	16128
910.57	16036
910.685	15968
910.8	16223
910.915	16261
911.03	16139
911.145	15903
911.259	15842
911.374	15873
911.489	15766
911.604	15762
911.718	15561
911.833	15690
911.947	15435
912.062	15538
912.176	15671
912.291	15618
912.405	15667
912.519	15819
912.633	15835
912.748	15606
912.862	15515
912.976	15481
913.09	15374
913.204	15485
913.318	15435
913.431	15572
913.545	15523
913.659	15568
913.772	15382
913.886	15291
914	15249
914.113	15241
914.226	15359
914.34	15279
914.453	15169
914.566	15268
914.68	15165
914.793	15184
914.906	14990
915.019	14948
915.132	14769
915.245	14849
915.358	14887
915.47	14861
915.583	14963
915.696	14887
915.809	14849
915.921	14960
916.034	14826
916.146	14705
916.259	14785
916.371	14857
916.483	14811
916.595	14682
916.708	14750
916.82	14617
916.932	14705
917.044	14655
917.156	14522
917.268	14427
917.38	14568
917.491	14503
917.603	14514
917.715	14632
917.826	14629
917.938	14419
918.049	14294
918.161	14438
918.272	14579
918.384	14568
918.495	14537
918.606	14377
918.717	14248
918.828	14290
918.939	14294
919.05	14218
919.161	14195
919.272	14043
919.383	14244
919.494	14377
919.604	14473
919.715	14221
919.826	14157
919.936	14199
920.047	14271
920.157	14256
920.267	14476
920.378	14313
920.488	14191
920.598	14366
920.708	14598
920.818	14427
920.928	14393
921.038	14568
921.148	14469
921.258	14142
921.368	14092
921.477	14024
921.587	13974
921.697	13913
921.806	13970
921.916	13757
922.025	13662
922.134	13628
922.244	13632
922.353	13696
922.462	13594
922.571	13476
922.68	13354
922.789	13228
922.898	13289
923.007	13293
923.116	13232
923.224	13255
923.333	13213
923.442	13129
923.55	13088
923.659	13107
923.767	13164
923.876	13061
923.984	13164
924.092	12932
924.201	13038
924.309	12951
924.417	13023
924.525	12973
924.633	12924
924.741	13784
924.849	12730
924.956	12844
925.064	12696
925.172	12631
925.279	12658
925.387	12738
925.494	12669
925.602	12894
925.709	12707
925.816	12525
925.924	12642
926.031	12692
926.138	12544
926.245	12757
926.352	12483
926.459	12578
926.566	12578
926.673	12593
926.779	12433
926.886	12361
926.993	12277
927.099	12311
927.206	12186
927.312	12194
927.419	12330
927.525	12247
927.631	12273
927.737	12102
927.843	12087
927.95	11992
928.056	12087
928.162	12114
928.267	12079
928.373	12654
928.479	12171
928.585	11954
928.69	12057
928.796	12186
928.901	11977
929.007	11775
929.112	11961
929.218	11931
929.323	11920
929.428	11840
929.533	11965
929.638	11745
929.743	11699
929.848	11840
929.953	11737
930.058	11592
930.163	11478
930.267	11535
930.372	11680
930.477	11414
930.581	11642
930.685	11501
930.79	11421
930.894	11436
930.998	11315
931.103	11490
931.207	11143
931.311	11109
931.415	11003
931.519	10782
931.623	10736
