Data from test_V78500241_1459.txt Node
Date: Fri Mar 25 15:51:54 CST 2022
User: usil
Spectrometer: V785-0024
Trigger mode: 0
Integration Time (sec): 4.000000E-1
Scans to average: 1
Nonlinearity correction enabled: false
Boxcar width: 0
Storing dark spectrum: false
XAxis mode: Wavelengths
Number of Pixels in Spectrum: 1024
>>>>>Begin Spectral Data<<<<<
801.071	27618
801.214	27458
801.356	27340
801.499	27226
801.641	27070
801.783	27036
801.926	27188
802.068	27135
802.211	27001
802.353	27070
802.496	26876
802.638	26792
802.78	26754
802.923	26724
803.065	26606
803.208	26689
803.35	26743
803.492	26940
803.635	26986
803.777	26853
803.919	27013
804.061	27241
804.204	26826
804.346	26906
804.488	26807
804.63	26762
804.773	26880
804.915	26883
805.057	27051
805.199	26994
805.341	27005
805.483	27043
805.626	27135
805.768	26899
805.91	27055
806.052	27093
806.194	27036
806.336	27332
806.478	27081
806.62	27203
806.762	27157
806.904	27279
807.046	27595
807.188	27538
807.33	27507
807.472	27420
807.614	27355
807.756	27424
807.898	27340
808.04	27256
808.182	27397
808.324	27351
808.465	27325
808.607	27538
808.749	27747
808.891	27846
809.033	27850
809.174	27660
809.316	27633
809.458	27587
809.6	27679
809.741	27755
809.883	27717
810.025	27926
810.166	27907
810.308	27994
810.45	27876
810.591	27770
810.733	27720
810.875	27656
811.016	27488
811.158	27530
811.299	27736
811.441	27865
811.582	27903
811.724	27637
811.865	27644
812.007	27671
812.148	27606
812.29	27614
812.431	27774
812.573	27960
812.714	27972
812.855	28139
812.997	28177
813.138	28306
813.279	28401
813.421	28128
813.562	28082
813.703	27918
813.845	27823
813.986	27625
814.127	27462
814.268	27416
814.41	27412
814.551	27370
814.692	27431
814.833	27222
814.974	27188
815.115	27230
815.256	27256
815.397	27192
815.539	27214
815.68	27180
815.821	27119
815.962	27116
816.103	27104
816.244	27081
816.385	26807
816.526	26800
816.666	26731
816.807	26526
816.948	26590
817.089	26701
817.23	26640
817.371	26636
817.512	26697
817.653	26644
817.793	26537
817.934	26499
818.075	26632
818.216	26606
818.356	26621
818.497	26476
818.638	26336
818.778	26385
818.919	26366
819.06	26336
819.2	26514
819.341	26453
819.481	26613
819.622	26629
819.762	26864
819.903	26811
820.043	26785
820.184	26712
820.324	26648
820.465	26849
820.605	26746
820.746	26602
820.886	26693
821.026	26758
821.167	26621
821.307	26735
821.447	26560
821.588	26533
821.728	26423
821.868	26107
822.008	26081
822.149	26062
822.289	26069
822.429	25860
822.569	25742
822.709	25571
822.849	25483
822.99	25681
823.13	25635
823.27	25441
823.41	25453
823.55	25206
823.69	25369
823.83	25350
823.97	25422
824.11	25206
824.25	25129
824.389	25145
824.529	25274
824.669	25217
824.809	25346
824.949	25384
825.089	25225
825.228	25137
825.368	25080
825.508	25110
825.648	25084
825.787	25091
825.927	25175
826.067	25057
826.206	24932
826.346	25034
826.485	25084
826.625	24935
826.765	25122
826.904	25122
827.044	24757
827.183	24749
827.323	24741
827.462	24722
827.601	24722
827.741	24787
827.88	24700
828.02	24597
828.159	24722
828.298	24844
828.437	24821
828.577	24688
828.716	24760
828.855	24749
828.994	24452
829.134	24494
829.273	24372
829.412	24502
829.551	24330
829.69	24460
829.829	24422
829.968	24452
830.107	24521
830.246	24494
830.385	24372
830.524	24441
830.663	24456
830.802	24155
830.941	24098
831.08	24041
831.219	24178
831.357	24213
831.496	24300
831.635	24102
831.774	23984
831.913	23923
832.051	23874
832.19	23950
832.329	23794
832.467	23726
832.606	23653
832.744	23756
832.883	23756
833.022	23608
833.16	23741
833.299	23775
833.437	23832
833.576	23847
833.714	23760
833.852	23882
833.991	23798
834.129	23882
834.267	23908
834.406	23821
834.544	23771
834.682	23847
834.821	23764
834.959	23870
835.097	23680
835.235	23771
835.373	23783
835.511	23779
835.65	23649
835.788	23695
835.926	23554
836.064	23467
836.202	23490
836.34	23672
836.478	23668
836.615	23657
836.753	23600
836.891	23726
837.029	23608
837.167	23634
837.305	23528
837.443	23337
837.58	23421
837.718	23486
837.856	23417
837.993	23531
838.131	23395
838.269	23436
838.406	23387
838.544	23178
838.681	23060
838.819	23212
838.956	22938
839.094	23071
839.231	22885
839.369	23128
839.506	23216
839.643	23200
839.781	22942
839.918	22904
840.055	22972
840.193	22934
840.33	22957
840.467	22866
840.604	22854
840.742	23140
840.879	22740
841.016	22797
841.153	22694
841.29	22843
841.427	22942
841.564	22949
841.701	22801
841.838	22824
841.975	22710
842.112	22759
842.249	22615
842.385	22675
842.522	22831
842.659	22713
842.796	22584
842.933	22668
843.069	22603
843.206	22542
843.343	22698
843.479	22691
843.616	22641
843.752	22356
843.889	22367
844.025	22565
844.162	22478
844.298	22550
844.435	22398
844.571	22253
844.708	22386
844.844	22527
844.98	22569
845.117	22497
845.253	22333
845.389	22333
845.525	22421
845.661	22169
845.798	22143
845.934	22246
846.07	22006
846.206	22135
846.342	22280
846.478	22150
846.614	21945
846.75	21884
846.886	21922
847.022	21861
847.158	21903
847.294	21915
847.429	21861
847.565	21732
847.701	22048
847.837	21618
847.972	21591
848.108	21606
848.244	21618
848.379	21469
848.515	21378
848.65	21462
848.786	21454
848.921	21492
849.057	21504
849.192	21595
849.328	21523
849.463	21473
849.598	21408
849.734	21275
849.869	21279
850.004	21222
850.14	21249
850.275	21287
850.41	21218
850.545	21176
850.68	21203
850.815	21211
850.95	21184
851.085	21473
851.22	21230
851.355	21203
851.49	21226
851.625	21237
851.76	21184
851.895	21184
852.03	21104
852.165	21211
852.299	21169
852.434	21154
852.569	21222
852.703	21214
852.838	21218
852.973	21367
853.107	21363
853.242	21085
853.376	21100
853.511	20971
853.645	21005
853.78	21230
853.914	21074
854.048	20967
854.183	21020
854.317	21036
854.451	21169
854.585	21039
854.72	21096
854.854	21195
854.988	21032
855.122	20998
855.256	20967
855.39	21100
855.524	21127
855.658	21165
855.792	21119
855.926	20971
856.06	21135
856.194	21135
856.327	21024
856.461	20975
856.595	20883
856.729	21013
856.862	21036
856.996	21039
857.13	21066
857.263	21070
857.397	21020
857.53	21005
857.664	21157
857.797	21214
857.931	21089
858.064	21024
858.197	21116
858.331	21020
858.464	20891
858.597	20845
858.731	21020
858.864	20963
858.997	20994
859.13	20971
859.263	21028
859.396	21123
859.529	20952
859.662	21096
859.795	20967
859.928	20986
860.061	21222
860.194	21176
860.327	21104
860.46	21032
860.592	21123
860.725	21154
860.858	21119
860.99	21161
861.123	20933
861.256	21009
861.388	20979
861.521	21838
861.653	20914
861.786	20986
861.918	20899
862.05	20998
862.183	20902
862.315	21005
862.447	20986
862.58	21013
862.712	20781
862.844	20788
862.976	20826
863.108	20838
863.24	21256
863.372	20674
863.504	20705
863.636	20796
863.768	20746
863.9	20777
864.032	20590
864.164	20746
864.296	20830
864.428	20872
864.559	20872
864.691	20902
864.823	20754
864.954	20777
865.086	20686
865.217	20712
865.349	20632
865.48	20746
865.612	20686
865.743	20857
865.875	20651
866.006	20541
866.137	20609
866.269	20640
866.4	20670
866.531	20686
866.662	20568
866.793	20598
866.924	20644
867.055	20583
867.186	20579
867.317	20537
867.448	20530
867.579	20598
867.71	20492
867.841	20511
867.972	20613
868.103	20549
868.233	20625
868.364	20564
868.495	20731
868.625	20739
868.756	20849
868.886	20727
869.017	20727
869.147	20967
869.278	20975
869.408	20921
869.539	20769
869.669	20910
869.799	20979
869.929	20982
870.06	20910
870.19	21184
870.32	21119
870.45	21287
870.58	21249
870.71	21245
870.84	21279
870.97	21241
871.1	21199
871.23	21401
871.36	21462
871.489	21306
871.619	21336
871.749	21363
871.879	21477
872.008	21488
872.138	21526
872.267	21443
872.397	21355
872.526	21218
872.656	21218
872.785	21283
872.915	21561
873.044	21523
873.173	21443
873.303	21511
873.432	21504
873.561	21583
873.69	21450
873.819	21500
873.948	21538
874.077	21462
874.206	21359
874.335	21507
874.464	21561
874.593	21705
874.722	21667
874.851	21816
874.979	21720
875.108	21720
875.237	21671
875.365	21549
875.494	21633
875.623	21663
875.751	21739
875.88	21610
876.008	21953
876.136	21888
876.265	22074
876.393	22158
876.521	22257
876.65	22230
876.778	22074
876.906	22067
877.034	22017
877.162	22021
877.29	21941
877.418	22116
877.546	21960
877.674	22055
877.802	22093
877.93	22070
878.058	22010
878.185	21991
878.313	22154
878.441	21987
878.568	21880
878.696	21930
878.824	22105
878.951	22139
879.079	22303
879.206	22341
879.333	22116
879.461	22143
879.588	22207
879.715	22131
879.842	22219
879.97	22192
880.097	21835
880.224	21842
880.351	21857
880.478	21915
880.605	21816
880.732	22063
880.859	22101
880.986	21827
881.112	21895
881.239	21774
881.366	21614
881.493	21485
881.619	21515
881.746	21416
881.872	21507
881.999	21386
882.125	21382
882.252	21447
882.378	21370
882.505	21614
882.631	21313
882.757	21127
882.883	21279
883.01	21127
883.136	21108
883.262	21009
883.388	20948
883.514	21165
883.64	21211
883.766	21096
883.892	20998
884.018	20994
884.143	21112
884.269	21184
884.395	20925
884.52	20800
884.646	20842
884.772	20686
884.897	20720
885.023	20823
885.148	20910
885.274	20918
885.399	20906
885.524	20792
885.65	20731
885.775	20883
885.9	20769
886.025	20834
886.15	20914
886.275	20724
886.4	20693
886.525	20777
886.65	20693
886.775	20701
886.9	20910
887.025	21066
887.149	20800
887.274	20552
887.399	20541
887.523	20568
887.648	20537
887.773	20514
887.897	20587
888.021	20598
888.146	20526
888.27	20693
888.395	20754
888.519	20667
888.643	20556
888.767	20434
888.891	20488
889.015	20438
889.139	20408
889.263	20305
889.387	20454
889.511	20590
889.635	20431
889.759	20358
889.883	20252
890.006	20396
890.13	20476
890.254	20328
890.377	20294
890.501	20153
890.624	20096
890.748	20195
890.871	20008
890.995	19936
891.118	19845
891.241	20027
891.364	19974
891.488	20153
891.611	20001
891.734	20008
891.857	19978
891.98	19986
892.103	20001
892.226	19978
892.349	19925
892.471	19742
892.594	19856
892.717	19947
892.839	19955
892.962	19860
893.085	19982
893.207	19887
893.33	19753
893.452	19738
893.575	19890
893.697	19788
893.819	19974
893.941	20058
894.064	20046
894.186	19742
894.308	19689
894.43	19928
894.552	20031
894.674	19967
894.796	19651
894.918	19871
895.04	19795
895.161	19871
895.283	19951
895.405	19795
895.526	19917
895.648	19830
895.769	19902
895.891	19925
896.012	19894
896.134	19894
896.255	19818
896.376	19830
896.498	19791
896.619	19989
896.74	19890
896.861	19902
896.982	20183
897.103	20309
897.224	20172
897.345	20096
897.466	20046
897.587	20073
897.708	20164
897.828	20164
897.949	20035
898.07	19917
898.19	20054
898.311	20229
898.431	20054
898.552	20107
898.672	20210
898.792	20134
898.913	20180
899.033	19921
899.153	19826
899.273	19776
899.393	19742
899.513	19864
899.633	19852
899.753	19799
899.873	19738
899.993	19883
900.113	19761
900.232	19883
900.352	19799
900.472	19723
900.591	19639
900.711	19559
900.83	19666
900.95	19708
901.069	19799
901.189	19533
901.308	19251
901.427	19221
901.546	19285
901.665	19259
901.784	19251
901.904	18996
902.023	19019
902.141	18772
902.26	18681
902.379	18802
902.498	18764
902.617	18719
902.735	18719
902.854	18700
902.973	18745
903.091	18433
903.21	18418
903.328	18357
903.446	18262
903.565	18171
903.683	18254
903.801	18011
903.919	18205
904.038	18171
904.156	18007
904.274	17992
904.392	18019
904.51	18057
904.627	17965
904.745	18003
904.863	18038
904.981	17794
905.098	17600
905.216	17687
905.334	17714
905.451	17703
905.569	17649
905.686	17672
905.803	17634
905.921	17474
906.038	17539
906.155	17478
906.272	17414
906.389	17292
906.506	17227
906.623	17246
906.74	17166
906.857	17079
906.974	17045
907.091	17250
907.208	17292
907.324	17162
907.441	17102
907.557	16976
907.674	16961
907.79	16923
907.907	16877
908.023	16934
908.139	17003
908.256	16889
908.372	16793
908.488	16691
908.604	16683
908.72	16599
908.836	16706
908.952	16565
909.068	16603
909.184	16790
909.3	16542
909.415	16611
909.531	16645
909.647	16352
909.762	16382
909.878	16371
909.993	16238
910.108	16284
910.224	16284
910.339	16348
910.454	16135
910.57	16204
910.685	16078
910.8	16341
910.915	16394
911.03	16109
911.145	15983
911.259	15884
911.374	15865
911.489	15895
911.604	15774
911.718	15641
911.833	15660
911.947	15599
912.062	15545
912.176	15713
912.291	15614
912.405	15759
912.519	15903
912.633	15861
912.748	15728
912.862	15637
912.976	15488
913.09	15386
913.204	15481
913.318	15599
913.431	15542
913.545	15564
913.659	15625
913.772	15439
913.886	15272
914	15233
914.113	15355
914.226	15291
914.34	15336
914.453	15165
914.566	15405
914.68	15176
914.793	15146
914.906	15009
915.019	14823
915.132	14979
915.245	14811
915.358	14883
915.47	14994
915.583	14906
915.696	14982
915.809	15055
915.921	15062
916.034	14883
916.146	14792
916.259	14727
916.371	14933
916.483	14781
916.595	14762
916.708	14792
916.82	14758
916.932	14781
917.044	14617
917.156	14663
917.268	14579
917.38	14602
917.491	14629
917.603	14568
917.715	14667
917.826	14701
917.938	14556
918.049	14480
918.161	14514
918.272	14632
918.384	14571
918.495	14503
918.606	14377
918.717	14381
918.828	14351
918.939	14438
919.05	14199
919.161	14339
919.272	14138
919.383	14142
919.494	14423
919.604	14594
919.715	14320
919.826	14145
919.936	14233
920.047	14324
920.157	14301
920.267	14434
920.378	14218
920.488	14275
920.598	14370
920.708	14640
920.818	14434
920.928	14393
921.038	14575
921.148	14625
921.258	14286
921.368	14191
921.477	14088
921.587	14012
921.697	13898
921.806	14046
921.916	13982
922.025	13772
922.134	13753
922.244	13639
922.353	13575
922.462	13674
922.571	13586
922.68	13354
922.789	13377
922.898	13369
923.007	13297
923.116	13339
923.224	13331
923.333	13285
923.442	13278
923.55	13187
923.659	13183
923.767	13232
923.876	13076
923.984	13259
924.092	13042
924.201	13103
924.309	13072
924.417	12993
924.525	13038
924.633	13015
924.741	13830
924.849	12753
924.956	12985
925.064	12821
925.172	12791
925.279	12764
925.387	12787
925.494	12795
925.602	12943
925.709	12745
925.816	12642
925.924	12760
926.031	12840
926.138	12722
926.245	12741
926.352	12593
926.459	12787
926.566	12791
926.673	12726
926.779	12555
926.886	12513
926.993	12403
927.099	12369
927.206	12308
927.312	12338
927.419	12353
927.525	12254
927.631	12414
927.737	12281
927.843	12175
927.95	12171
928.056	12167
928.162	12197
928.267	12243
928.373	12867
928.479	12243
928.585	12121
928.69	12140
928.796	12243
928.901	12045
929.007	11893
929.112	11942
929.218	11999
929.323	11878
929.428	11863
929.533	12045
929.638	11752
929.743	11878
929.848	11912
929.953	11897
930.058	11760
930.163	11577
930.267	11604
930.372	11684
930.477	11493
930.581	11729
930.685	11661
930.79	11467
930.894	11459
930.998	11372
931.103	11558
931.207	11208
931.311	11250
931.415	11037
931.519	10908
931.623	10793
