Data from test_V78500241_273.txt Node
Date: Fri Mar 25 15:43:41 CST 2022
User: usil
Spectrometer: V785-0024
Trigger mode: 0
Integration Time (sec): 4.000000E-1
Scans to average: 1
Nonlinearity correction enabled: false
Boxcar width: 0
Storing dark spectrum: false
XAxis mode: Wavelengths
Number of Pixels in Spectrum: 1024
>>>>>Begin Spectral Data<<<<<
801.071	29745
801.214	29745
801.356	29566
801.499	29448
801.641	29273
801.783	29410
801.926	29520
802.068	29216
802.211	29299
802.353	29193
802.496	29029
802.638	29132
802.78	28991
802.923	28976
803.065	28828
803.208	28847
803.35	28972
803.492	29117
803.635	29117
803.777	29083
803.919	29254
804.061	29444
804.204	29166
804.346	29094
804.488	29083
804.63	29094
804.773	29067
804.915	29022
805.057	29212
805.199	29098
805.341	29162
805.483	29223
805.626	29212
805.768	29189
805.91	29223
806.052	29170
806.194	29227
806.336	29531
806.478	29181
806.62	29410
806.762	29406
806.904	29505
807.046	29726
807.188	29710
807.33	29821
807.472	29714
807.614	29627
807.756	29535
807.898	29490
808.04	29459
808.182	29364
808.324	29592
808.465	29429
808.607	29718
808.749	29859
808.891	29954
809.033	30087
809.174	29950
809.316	29885
809.458	29999
809.6	29878
809.741	29999
809.883	29897
810.025	30232
810.166	30155
810.308	30186
810.45	30038
810.591	30209
810.733	29973
810.875	29916
811.016	29832
811.158	29824
811.299	30030
811.441	30129
811.582	30034
811.724	29882
811.865	29866
812.007	29851
812.148	29901
812.29	29965
812.431	29946
812.573	30144
812.714	30266
812.855	30407
812.997	30494
813.138	30623
813.279	30479
813.421	30418
813.562	30258
813.703	30209
813.845	30083
813.986	29824
814.127	29665
814.268	29520
814.41	29547
814.551	29379
814.692	29512
814.833	29474
814.974	29440
815.115	29535
815.256	29395
815.397	29284
815.539	29299
815.68	29337
815.821	29204
815.962	29288
816.103	29277
816.244	29216
816.385	29014
816.526	29029
816.666	28938
816.807	28843
816.948	28786
817.089	28820
817.23	28847
817.371	28683
817.512	28725
817.653	28763
817.793	28790
817.934	28892
818.075	28877
818.216	28778
818.356	28588
818.497	28618
818.638	28405
818.778	28485
818.919	28314
819.06	28542
819.2	28561
819.341	28656
819.481	28664
819.622	28805
819.762	29121
819.903	28927
820.043	28835
820.184	28850
820.324	28805
820.465	28809
820.605	28911
820.746	28805
820.886	28603
821.026	28603
821.167	28641
821.307	28805
821.447	28702
821.588	28447
821.728	28360
821.868	28223
822.008	28253
822.149	28120
822.289	28166
822.429	27926
822.569	27743
822.709	27884
822.849	27576
822.99	27580
823.13	27519
823.27	27580
823.41	27405
823.55	27317
823.69	27477
823.83	27393
823.97	27310
824.11	27230
824.25	27237
824.389	27112
824.529	27306
824.669	27230
824.809	27439
824.949	27207
825.089	27268
825.228	27294
825.368	27184
825.508	26960
825.648	27058
825.787	27146
825.927	27047
826.067	27028
826.206	27047
826.346	27154
826.485	27165
826.625	27028
826.765	27249
826.904	27062
827.044	26944
827.183	26933
827.323	26758
827.462	26902
827.601	26731
827.741	26720
827.88	26686
828.02	26655
828.159	26724
828.298	26796
828.437	26743
828.577	26735
828.716	26792
828.855	26762
828.994	26488
829.134	26503
829.273	26571
829.412	26370
829.551	26328
829.69	26465
829.829	26473
829.968	26442
830.107	26575
830.246	26381
830.385	26309
830.524	26339
830.663	26263
830.802	26111
830.941	26126
831.08	26024
831.219	26138
831.357	26073
831.496	26168
831.635	26005
831.774	25928
831.913	25894
832.051	25803
832.19	25655
832.329	25780
832.467	25871
832.606	25662
832.744	25457
832.883	25540
833.022	25590
833.16	25632
833.299	25750
833.437	25609
833.576	25734
833.714	25670
833.852	25677
833.991	25742
834.129	25613
834.267	25662
834.406	25514
834.544	25487
834.682	25841
834.821	25674
834.959	25765
835.097	25548
835.235	25605
835.373	25594
835.511	25616
835.65	25464
835.788	25453
835.926	25251
836.064	25251
836.202	25335
836.34	25422
836.478	25552
836.615	25388
836.753	25514
836.891	25464
837.029	25567
837.167	25304
837.305	25312
837.443	25301
837.58	25346
837.718	25434
837.856	25346
837.993	25270
838.131	25320
838.269	25209
838.406	25118
838.544	25088
838.681	24947
838.819	24894
838.956	24589
839.094	24715
839.231	24726
839.369	24882
839.506	25008
839.643	24989
839.781	24616
839.918	24589
840.055	24745
840.193	24669
840.33	24642
840.467	24574
840.604	24616
840.742	24802
840.879	24490
841.016	24433
841.153	24502
841.29	24741
841.427	24490
841.564	24677
841.701	24532
841.838	24505
841.975	24365
842.112	24494
842.249	24384
842.385	24254
842.522	24563
842.659	24319
842.796	24262
842.933	24330
843.069	24190
843.206	24095
843.343	24403
843.479	24167
843.616	24163
843.752	24155
843.889	23946
844.025	24197
844.162	23942
844.298	24110
844.435	23885
844.571	23969
844.708	24171
844.844	24133
844.98	24155
845.117	24152
845.253	23760
845.389	23904
845.525	23973
845.661	23904
845.798	23668
845.934	23802
846.07	23687
846.206	23718
846.342	23828
846.478	23665
846.614	23509
846.75	23433
846.886	23395
847.022	23539
847.158	23395
847.294	23315
847.429	23444
847.565	23280
847.701	23649
847.837	23022
847.972	23197
848.108	23322
848.244	23246
848.379	23075
848.515	23044
848.65	22980
848.786	23010
848.921	23105
849.057	23155
849.192	23044
849.328	23010
849.463	23025
849.598	22866
849.734	22892
849.869	22957
850.004	22771
850.14	22733
850.275	22854
850.41	22736
850.545	22763
850.68	22713
850.815	22782
850.95	22713
851.085	22881
851.22	22797
851.355	22744
851.49	22721
851.625	22862
851.76	22645
851.895	22733
852.03	22672
852.165	22786
852.299	22698
852.434	22873
852.569	22683
852.703	22615
852.838	22725
852.973	22767
853.107	22885
853.242	22641
853.376	22481
853.511	22462
853.645	22436
853.78	22626
853.914	22660
854.048	22470
854.183	22493
854.317	22516
854.451	22649
854.585	22478
854.72	22519
854.854	22500
854.988	22500
855.122	22504
855.256	22306
855.39	22402
855.524	22489
855.658	22512
855.792	22550
855.926	22478
856.06	22611
856.194	22611
856.327	22516
856.461	22344
856.595	22527
856.729	22424
856.862	22656
856.996	22500
857.13	22611
857.263	22656
857.397	22634
857.53	22417
857.664	22508
857.797	22656
857.931	22675
858.064	22421
858.197	22611
858.331	22398
858.464	22451
858.597	22352
858.731	22470
858.864	22470
858.997	22443
859.13	22417
859.263	22546
859.396	22577
859.529	22474
859.662	22451
859.795	22428
859.928	22527
860.061	22546
860.194	22713
860.327	22527
860.46	22428
860.592	22561
860.725	22630
860.858	22466
860.99	22466
861.123	22341
861.256	22447
861.388	22535
861.521	23147
861.653	22226
861.786	22185
861.918	22322
862.05	22424
862.183	22451
862.315	22428
862.447	22554
862.58	22367
862.712	22276
862.844	22154
862.976	22329
863.108	22257
863.24	22573
863.372	22082
863.504	22131
863.636	22192
863.768	22238
863.9	22082
864.032	22131
864.164	22196
864.296	22196
864.428	22169
864.559	22093
864.691	22154
864.823	22128
864.954	22135
865.086	22230
865.217	21983
865.349	22006
865.48	22067
865.612	22059
865.743	22192
865.875	22006
866.006	22143
866.137	21964
866.269	22059
866.4	22002
866.531	22036
866.662	21888
866.793	22006
866.924	22036
867.055	22021
867.186	22029
867.317	21850
867.448	21861
867.579	21934
867.71	21827
867.841	21922
867.972	21991
868.103	21819
868.233	21956
868.364	21972
868.495	21975
868.625	22166
868.756	22276
868.886	22010
869.017	22295
869.147	22371
869.278	22207
869.408	22078
869.539	22112
869.669	22215
869.799	22185
869.929	22272
870.06	22238
870.19	22394
870.32	22504
870.45	22527
870.58	22588
870.71	22660
870.84	22611
870.97	22618
871.1	22622
871.23	22740
871.36	22733
871.489	22546
871.619	22839
871.749	22934
871.879	22862
872.008	22930
872.138	22752
872.267	22831
872.397	22618
872.526	22527
872.656	22573
872.785	22622
872.915	22778
873.044	22805
873.173	22626
873.303	22713
873.432	22911
873.561	23025
873.69	22790
873.819	22824
873.948	22889
874.077	22816
874.206	22702
874.335	22759
874.464	22782
874.593	23014
874.722	22938
874.851	23155
874.979	23083
875.108	23098
875.237	22980
875.365	22831
875.494	22934
875.623	22991
875.751	22976
875.88	22995
876.008	23185
876.136	23197
876.265	23345
876.393	23535
876.521	23417
876.65	23497
876.778	23379
876.906	23353
877.034	23322
877.162	23330
877.29	23273
877.418	23402
877.546	23269
877.674	23356
877.802	23406
877.93	23356
878.058	23387
878.185	23056
878.313	23265
878.441	23307
878.568	23162
878.696	23311
878.824	23463
878.951	23474
879.079	23524
879.206	23718
879.333	23410
879.461	23478
879.588	23512
879.715	23482
879.842	23649
879.97	23440
880.097	23299
880.224	23159
880.351	23166
880.478	23140
880.605	23170
880.732	23109
880.859	23337
880.986	23121
881.112	23227
881.239	23029
881.366	22980
881.493	22820
881.619	22763
881.746	22858
881.872	22843
881.999	22656
882.125	22702
882.252	22694
882.378	22771
882.505	22839
882.631	22622
882.757	22493
882.883	22527
883.01	22459
883.136	22341
883.262	22325
883.388	22226
883.514	22428
883.64	22436
883.766	22363
883.892	22188
884.018	22261
884.143	22322
884.269	22344
884.395	22280
884.52	22139
884.646	22150
884.772	22006
884.897	21755
885.023	21987
885.148	22200
885.274	22234
885.399	22090
885.524	22055
885.65	21975
885.775	22067
885.9	21930
886.025	22116
886.15	22067
886.275	22109
886.4	21972
886.525	22063
886.65	21911
886.775	22017
886.9	22021
887.025	22344
887.149	22036
887.274	21835
887.399	21724
887.523	21747
887.648	21679
887.773	21724
887.897	21873
888.021	21838
888.146	21671
888.27	21945
888.395	21865
888.519	21934
888.643	21941
888.767	21698
888.891	21663
889.015	21526
889.139	21545
889.263	21515
889.387	21682
889.511	21743
889.635	21667
889.759	21549
889.883	21488
890.006	21534
890.13	21553
890.254	21462
890.377	21488
890.501	21344
890.624	21272
890.748	21351
890.871	21233
890.995	21104
891.118	21119
891.241	21264
891.364	21165
891.488	21154
891.611	21157
891.734	21058
891.857	21283
891.98	21066
892.103	21214
892.226	21146
892.349	21028
892.471	20937
892.594	21055
892.717	21241
892.839	20944
892.962	21024
893.085	21150
893.207	21001
893.33	20918
893.452	20960
893.575	21039
893.697	21028
893.819	21173
893.941	21096
894.064	21264
894.186	20956
894.308	20967
894.43	21047
894.552	21119
894.674	21020
894.796	20861
894.918	21039
895.04	20952
895.161	21173
895.283	21005
895.405	20998
895.526	21001
895.648	20986
895.769	20941
895.891	20952
896.012	20971
896.134	21062
896.255	21070
896.376	20929
896.498	20918
896.619	20998
896.74	21112
896.861	21142
896.982	21370
897.103	21428
897.224	21268
897.345	21283
897.466	21100
897.587	21195
897.708	21310
897.828	21302
897.949	21211
898.07	21036
898.19	21108
898.311	21298
898.431	21043
898.552	21245
898.672	21226
898.792	21279
898.913	21165
899.033	21020
899.153	20975
899.273	20895
899.393	20952
899.513	20883
899.633	21036
899.753	20880
899.873	20834
899.993	20876
900.113	20834
900.232	20880
900.352	20716
900.472	20739
900.591	20720
900.711	20716
900.83	20606
900.95	20697
901.069	20788
901.189	20495
901.308	20317
901.427	20267
901.546	20157
901.665	20256
901.784	20259
901.904	20164
902.023	19997
902.141	19909
902.26	19651
902.379	19776
902.498	19715
902.617	19635
902.735	19753
902.854	19651
902.973	19700
903.091	19407
903.21	19350
903.328	19343
903.446	19236
903.565	19221
903.683	19175
903.801	19088
903.919	19110
904.038	19065
904.156	18993
904.274	19004
904.392	18924
904.51	18932
904.627	18878
904.745	18909
904.863	18920
904.981	18779
905.098	18658
905.216	18532
905.334	18642
905.451	18658
905.569	18502
905.686	18589
905.803	18532
905.921	18338
906.038	18467
906.155	18376
906.272	18315
906.389	18258
906.506	18140
906.623	18091
906.74	18068
906.857	18110
906.974	17980
907.091	18186
907.208	18243
907.324	18022
907.441	17973
907.557	17821
907.674	17904
907.79	17805
907.907	17733
908.023	17893
908.139	17729
908.256	17680
908.372	17691
908.488	17665
908.604	17425
908.72	17478
908.836	17459
908.952	17532
909.068	17512
909.184	17581
909.3	17425
909.415	17486
909.531	17524
909.647	17212
909.762	17162
909.878	17098
909.993	17159
910.108	17132
910.224	17132
910.339	17242
910.454	16942
910.57	17006
910.685	16949
910.8	17170
910.915	17181
911.03	16911
911.145	16740
911.259	16778
911.374	16744
911.489	16675
911.604	16607
911.718	16440
911.833	16542
911.947	16497
912.062	16394
912.176	16561
912.291	16535
912.405	16504
912.519	16672
912.633	16531
912.748	16466
912.862	16447
912.976	16333
913.09	16196
913.204	16196
913.318	16314
913.431	16344
913.545	16371
913.659	16386
913.772	16185
913.886	16169
914	16067
914.113	16150
914.226	16303
914.34	16223
914.453	15972
914.566	16139
914.68	15968
914.793	16048
914.906	15686
915.019	15679
915.132	15663
915.245	15705
915.358	15793
915.47	15675
915.583	15656
915.696	15675
915.809	15606
915.921	15827
916.034	15720
916.146	15591
916.259	15584
916.371	15644
916.483	15580
916.595	15439
916.708	15496
916.82	15466
916.932	15439
917.044	15382
917.156	15485
917.268	15256
917.38	15405
917.491	15260
917.603	15245
917.715	15393
917.826	15306
917.938	15252
918.049	15097
918.161	15203
918.272	15321
918.384	15408
918.495	15272
918.606	15161
918.717	14994
918.828	15127
918.939	15009
919.05	14853
919.161	14944
919.272	14804
919.383	14902
919.494	15047
919.604	15165
919.715	14929
919.826	14876
919.936	14925
920.047	15005
920.157	15020
920.267	15116
920.378	15017
920.488	15001
920.598	15157
920.708	15241
920.818	15127
920.928	15138
921.038	15302
921.148	15135
921.258	14925
921.368	14800
921.477	14720
921.587	14682
921.697	14545
921.806	14674
921.916	14533
922.025	14328
922.134	14282
922.244	14256
922.353	14419
922.462	14237
922.571	14130
922.68	14024
922.789	13936
922.898	14005
923.007	13803
923.116	13951
923.224	13845
923.333	13921
923.442	13871
923.55	13700
923.659	13746
923.767	13784
923.876	13666
923.984	13784
924.092	13670
924.201	13609
924.309	13723
924.417	13689
924.525	13571
924.633	13552
924.741	14461
924.849	13381
924.956	13491
925.064	13445
925.172	13259
925.279	13365
925.387	13400
925.494	13339
925.602	13518
925.709	13289
925.816	13213
925.924	13297
926.031	13343
926.138	13373
926.245	13358
926.352	13099
926.459	13274
926.566	13339
926.673	13194
926.779	13084
926.886	13004
926.993	12909
927.099	12924
927.206	12772
927.312	12840
927.419	12932
927.525	12890
927.631	12901
927.737	12711
927.843	12684
927.95	12593
928.056	12665
928.162	12760
928.267	12760
928.373	13388
928.479	12722
928.585	12494
928.69	12601
928.796	12677
928.901	12547
929.007	12410
929.112	12513
929.218	12441
929.323	12422
929.428	12422
929.533	12528
929.638	12410
929.743	12277
929.848	12350
929.953	12327
930.058	12247
930.163	12095
930.267	12064
930.372	12213
930.477	12026
930.581	12285
930.685	12106
930.79	11870
930.894	12022
930.998	11870
931.103	12079
931.207	11726
931.311	11566
931.415	11516
931.519	11387
931.623	11299
