Data from test_V78500241_1768.txt Node
Date: Fri Mar 25 15:54:02 CST 2022
User: usil
Spectrometer: V785-0024
Trigger mode: 0
Integration Time (sec): 4.000000E-1
Scans to average: 1
Nonlinearity correction enabled: false
Boxcar width: 0
Storing dark spectrum: false
XAxis mode: Wavelengths
Number of Pixels in Spectrum: 1024
>>>>>Begin Spectral Data<<<<<
801.071	28980
801.214	28782
801.356	28622
801.499	28611
801.641	28413
801.783	28538
801.926	28694
802.068	28470
802.211	28447
802.353	28603
802.496	28379
802.638	28074
802.78	28318
802.923	28329
803.065	28021
803.208	28135
803.35	28356
803.492	28443
803.635	28451
803.777	28500
803.919	28474
804.061	28847
804.204	28497
804.346	28504
804.488	28421
804.63	28481
804.773	28386
804.915	28561
805.057	28782
805.199	28489
805.341	28588
805.483	28656
805.626	28596
805.768	28527
805.91	28440
806.052	28782
806.194	28573
806.336	28793
806.478	28717
806.62	28691
806.762	28923
806.904	28953
807.046	29254
807.188	29242
807.33	29090
807.472	29269
807.614	29029
807.756	29105
807.898	28915
808.04	28999
808.182	28908
808.324	29067
808.465	28953
808.607	29220
808.749	29372
808.891	29573
809.033	29520
809.174	29455
809.316	29356
809.458	29303
809.6	29337
809.741	29375
809.883	29535
810.025	29767
810.166	29634
810.308	29581
810.45	29638
810.591	29714
810.733	29501
810.875	29531
811.016	29277
811.158	29345
811.299	29509
811.441	29596
811.582	29467
811.724	29436
811.865	29387
812.007	29395
812.148	29398
812.29	29482
812.431	29653
812.573	29745
812.714	29802
812.855	29870
812.997	29988
813.138	30091
813.279	30091
813.421	30091
813.562	29745
813.703	29726
813.845	29573
813.986	29334
814.127	29193
814.268	29060
814.41	29151
814.551	29162
814.692	29098
814.833	29102
814.974	29071
815.115	29147
815.256	28987
815.397	29022
815.539	29060
815.68	29010
815.821	28942
815.962	28869
816.103	28927
816.244	28774
816.385	28809
816.526	28672
816.666	28554
816.807	28394
816.948	28500
817.089	28512
817.23	28341
817.371	28325
817.512	28474
817.653	28580
817.793	28432
817.934	28371
818.075	28428
818.216	28531
818.356	28333
818.497	28306
818.638	28234
818.778	28215
818.919	28185
819.06	28253
819.2	28367
819.341	28398
819.481	28489
819.622	28702
819.762	28645
819.903	28710
820.043	28615
820.184	28493
820.324	28538
820.465	28729
820.605	28550
820.746	28569
820.886	28516
821.026	28577
821.167	28405
821.307	28497
821.447	28538
821.588	28436
821.728	28333
821.868	27937
822.008	27994
822.149	27991
822.289	27892
822.429	27682
822.569	27610
822.709	27648
822.849	27526
822.99	27561
823.13	27424
823.27	27363
823.41	27222
823.55	27195
823.69	27291
823.83	27302
823.97	27119
824.11	27070
824.25	27096
824.389	27055
824.529	27112
824.669	27070
824.809	27146
824.949	27157
825.089	27275
825.228	27184
825.368	26998
825.508	26864
825.648	26929
825.787	26895
825.927	26998
826.067	26925
826.206	27005
826.346	27070
826.485	27108
826.625	26986
826.765	27112
826.904	26971
827.044	26758
827.183	26823
827.323	26568
827.462	26842
827.601	26712
827.741	26640
827.88	26655
828.02	26670
828.159	26629
828.298	26731
828.437	26629
828.577	26526
828.716	26625
828.855	26708
828.994	26537
829.134	26393
829.273	26343
829.412	26317
829.551	26366
829.69	26412
829.829	26393
829.968	26522
830.107	26389
830.246	26419
830.385	26305
830.524	26176
830.663	26069
830.802	26294
830.941	25963
831.08	25849
831.219	25951
831.357	26054
831.496	26134
831.635	25951
831.774	25849
831.913	25906
832.051	25776
832.19	25780
832.329	25841
832.467	25715
832.606	25597
832.744	25582
832.883	25635
833.022	25601
833.16	25597
833.299	25693
833.437	25738
833.576	25681
833.714	25746
833.852	25769
833.991	25738
834.129	25811
834.267	25864
834.406	25635
834.544	25677
834.682	25818
834.821	25624
834.959	25746
835.097	25681
835.235	25776
835.373	25571
835.511	25521
835.65	25556
835.788	25510
835.926	25506
836.064	25320
836.202	25316
836.34	25502
836.478	25613
836.615	25521
836.753	25514
836.891	25597
837.029	25495
837.167	25346
837.305	25331
837.443	25426
837.58	25331
837.718	25381
837.856	25407
837.993	25160
838.131	25312
838.269	25255
838.406	25236
838.544	25145
838.681	25088
838.819	24947
838.956	24726
839.094	24837
839.231	25000
839.369	24985
839.506	25160
839.643	25095
839.781	24760
839.918	24795
840.055	24715
840.193	24829
840.33	24821
840.467	24814
840.604	24711
840.742	24996
840.879	24616
841.016	24578
841.153	24642
841.29	24795
841.427	24681
841.564	24802
841.701	24696
841.838	24544
841.975	24513
842.112	24658
842.249	24528
842.385	24418
842.522	24814
842.659	24498
842.796	24661
842.933	24414
843.069	24300
843.206	24410
843.343	24589
843.479	24513
843.616	24372
843.752	24171
843.889	24235
844.025	24277
844.162	24281
844.298	24338
844.435	24262
844.571	24159
844.708	24197
844.844	24346
844.98	24315
845.117	24270
845.253	24232
845.389	23958
845.525	24076
845.661	24171
845.798	23977
845.934	24060
846.07	23923
846.206	24041
846.342	24186
846.478	23935
846.614	23779
846.75	23657
846.886	23771
847.022	23672
847.158	23638
847.294	23581
847.429	23661
847.565	23505
847.701	23889
847.837	23452
847.972	23383
848.108	23509
848.244	23455
848.379	23318
848.515	23284
848.65	23242
848.786	23200
848.921	23353
849.057	23284
849.192	23395
849.328	23330
849.463	23242
849.598	23277
849.734	23102
849.869	23105
850.004	22942
850.14	23166
850.275	22995
850.41	22885
850.545	23003
850.68	23041
850.815	23143
850.95	23006
851.085	23155
851.22	23174
851.355	23090
851.49	22957
851.625	22984
851.76	22942
851.895	23041
852.03	22972
852.165	22923
852.299	23155
852.434	23193
852.569	23128
852.703	23006
852.838	23121
852.973	23136
853.107	23166
853.242	23010
853.376	22873
853.511	22782
853.645	22763
853.78	22835
853.914	22713
854.048	22873
854.183	22812
854.317	22744
854.451	23052
854.585	22854
854.72	22873
854.854	22904
854.988	22866
855.122	22793
855.256	22649
855.39	22869
855.524	22805
855.658	22877
855.792	22835
855.926	22881
856.06	22812
856.194	22881
856.327	22881
856.461	22911
856.595	22873
856.729	22740
856.862	22809
856.996	22759
857.13	22930
857.263	22972
857.397	22889
857.53	22858
857.664	22889
857.797	22824
857.931	22904
858.064	22866
858.197	22923
858.331	22694
858.464	22771
858.597	22748
858.731	22862
858.864	22786
858.997	22771
859.13	22885
859.263	22850
859.396	22930
859.529	22763
859.662	22930
859.795	22782
859.928	22816
860.061	22881
860.194	22965
860.327	22900
860.46	22911
860.592	22949
860.725	22938
860.858	22930
860.99	22793
861.123	22782
861.256	22786
861.388	22835
861.521	23471
861.653	22774
861.786	22710
861.918	22588
862.05	22744
862.183	22828
862.315	22736
862.447	22991
862.58	22759
862.712	22599
862.844	22519
862.976	22611
863.108	22721
863.24	22812
863.372	22504
863.504	22660
863.636	22645
863.768	22660
863.9	22569
864.032	22592
864.164	22489
864.296	22611
864.428	22771
864.559	22546
864.691	22630
864.823	22546
864.954	22573
865.086	22478
865.217	22421
865.349	22234
865.48	22360
865.612	22432
865.743	22611
865.875	22394
866.006	22451
866.137	22409
866.269	22440
866.4	22462
866.531	22398
866.662	22284
866.793	22314
866.924	22344
867.055	22360
867.186	22382
867.317	22428
867.448	22211
867.579	22348
867.71	22211
867.841	22261
867.972	22306
868.103	22291
868.233	22287
868.364	22329
868.495	22360
868.625	22516
868.756	22668
868.886	22493
869.017	22538
869.147	22493
869.278	22843
869.408	22615
869.539	22645
869.669	22702
869.799	22641
869.929	22763
870.06	22584
870.19	22915
870.32	22866
870.45	22869
870.58	22942
870.71	23060
870.84	23086
870.97	23010
871.1	22976
871.23	23212
871.36	23242
871.489	23006
871.619	23136
871.749	23185
871.879	23155
872.008	23307
872.138	23132
872.267	23113
872.397	23090
872.526	22919
872.656	23010
872.785	23075
872.915	23181
873.044	23208
873.173	23113
873.303	23162
873.432	23231
873.561	23307
873.69	23220
873.819	23140
873.948	23216
874.077	23174
874.206	23117
874.335	23170
874.464	23330
874.593	23448
874.722	23406
874.851	23425
874.979	23421
875.108	23471
875.237	23398
875.365	23284
875.494	23360
875.623	23505
875.751	23368
875.88	23433
876.008	23543
876.136	23642
876.265	23752
876.393	23885
876.521	23874
876.65	23878
876.778	23767
876.906	23767
877.034	23783
877.162	23824
877.29	23684
877.418	23710
877.546	23661
877.674	23760
877.802	23824
877.93	23863
878.058	23775
878.185	23543
878.313	23718
878.441	23707
878.568	23455
878.696	23589
878.824	23783
878.951	23771
879.079	23946
879.206	23999
879.333	23775
879.461	23794
879.588	23821
879.715	23912
879.842	23931
879.97	23817
880.097	23573
880.224	23497
880.351	23547
880.478	23535
880.605	23493
880.732	23680
880.859	23760
880.986	23718
881.112	23524
881.239	23379
881.366	23231
881.493	23174
881.619	23052
881.746	23223
881.872	23052
881.999	23105
882.125	23067
882.252	23067
882.378	23128
882.505	23147
882.631	23037
882.757	22774
882.883	22809
883.01	22984
883.136	22816
883.262	22706
883.388	22577
883.514	22767
883.64	22831
883.766	22649
883.892	22516
884.018	22569
884.143	22634
884.269	22713
884.395	22523
884.52	22337
884.646	22299
884.772	22394
884.897	22284
885.023	22470
885.148	22417
885.274	22596
885.399	22535
885.524	22291
885.65	22344
885.775	22409
885.9	22360
886.025	22557
886.15	22455
886.275	22382
886.4	22371
886.525	22337
886.65	22379
886.775	22344
886.9	22443
887.025	22588
887.149	22360
887.274	22219
887.399	22188
887.523	22215
887.648	22116
887.773	22093
887.897	22116
888.021	22143
888.146	22150
888.27	22268
888.395	22367
888.519	22272
888.643	22124
888.767	22204
888.891	22093
889.015	22051
889.139	22017
889.263	21926
889.387	22139
889.511	22131
889.635	22097
889.759	21975
889.883	21964
890.006	21911
890.13	21941
890.254	21926
890.377	21774
890.501	21644
890.624	21690
890.748	21778
890.871	21583
890.995	21466
891.118	21431
891.241	21553
891.364	21485
891.488	21603
891.611	21568
891.734	21416
891.857	21637
891.98	21469
892.103	21618
892.226	21515
892.349	21492
892.471	21279
892.594	21367
892.717	21485
892.839	21370
892.962	21370
893.085	21416
893.207	21382
893.33	21294
893.452	21336
893.575	21424
893.697	21378
893.819	21545
893.941	21641
894.064	21408
894.186	21363
894.308	21218
894.43	21447
894.552	21526
894.674	21557
894.796	21252
894.918	21370
895.04	21397
895.161	21344
895.283	21431
895.405	21237
895.526	21344
895.648	21268
895.769	21405
895.891	21393
896.012	21393
896.134	21329
896.255	21332
896.376	21256
896.498	21275
896.619	21355
896.74	21291
896.861	21431
896.982	21694
897.103	21774
897.224	21572
897.345	21641
897.466	21488
897.587	21542
897.708	21762
897.828	21580
897.949	21485
898.07	21435
898.19	21428
898.311	21599
898.431	21443
898.552	21625
898.672	21515
898.792	21690
898.913	21488
899.033	21370
899.153	21241
899.273	21195
899.393	21218
899.513	21275
899.633	21218
899.753	21374
899.873	21245
899.993	21157
900.113	21245
900.232	21195
900.352	21116
900.472	21066
900.591	21036
900.711	21074
900.83	21009
900.95	21074
901.069	21127
901.189	20857
901.308	20701
901.427	20556
901.546	20678
901.665	20625
901.784	20518
901.904	20431
902.023	20366
902.141	20103
902.26	20153
902.379	20138
902.498	20084
902.617	20069
902.735	20115
902.854	20096
902.973	20012
903.091	19852
903.21	19814
903.328	19666
903.446	19635
903.565	19601
903.683	19468
903.801	19392
903.919	19438
904.038	19407
904.156	19365
904.274	19293
904.392	19190
904.51	19213
904.627	19278
904.745	19263
904.863	19384
904.981	19034
905.098	19004
905.216	18890
905.334	18928
905.451	19019
905.569	18954
905.686	18966
905.803	18920
905.921	18757
906.038	18878
906.155	18722
906.272	18593
906.389	18703
906.506	18490
906.623	18544
906.74	18460
906.857	18407
906.974	18486
907.091	18589
907.208	18604
907.324	18616
907.441	18433
907.557	18076
907.674	18209
907.79	18106
907.907	18171
908.023	18190
908.139	18194
908.256	18068
908.372	18003
908.488	18041
908.604	17901
908.72	17824
908.836	17935
908.952	17939
909.068	17969
909.184	17954
909.3	17870
909.415	17950
909.531	17859
909.647	17668
909.762	17581
909.878	17512
909.993	17524
910.108	17570
910.224	17547
910.339	17646
910.454	17490
910.57	17486
910.685	17334
910.8	17649
910.915	17436
911.03	17520
911.145	17200
911.259	17208
911.374	17189
911.489	17067
911.604	17075
911.718	16892
911.833	16930
911.947	16847
912.062	16713
912.176	16885
912.291	16892
912.405	16904
912.519	17083
912.633	17052
912.748	16908
912.862	16904
912.976	16801
913.09	16630
913.204	16580
913.318	16793
913.431	16900
913.545	16744
913.659	16911
913.772	16698
913.886	16451
914	16394
914.113	16592
914.226	16599
914.34	16611
914.453	16432
914.566	16523
914.68	16344
914.793	16329
914.906	16211
915.019	16093
915.132	16071
915.245	16078
915.358	16071
915.47	16029
915.583	16162
915.696	16090
915.809	16029
915.921	16162
916.034	15998
916.146	15934
916.259	15972
916.371	15960
916.483	15926
916.595	15949
916.708	15922
916.82	15884
916.932	15823
917.044	15759
917.156	15755
917.268	15584
917.38	15755
917.491	15770
917.603	15759
917.715	15713
917.826	15762
917.938	15584
918.049	15519
918.161	15682
918.272	15770
918.384	15720
918.495	15492
918.606	15504
918.717	15458
918.828	15481
918.939	15466
919.05	15359
919.161	15370
919.272	15192
919.383	15226
919.494	15549
919.604	15595
919.715	15355
919.826	15386
919.936	15348
920.047	15458
920.157	15359
920.267	15507
920.378	15420
920.488	15237
920.598	15462
920.708	15789
920.818	15523
920.928	15568
921.038	15679
921.148	15526
921.258	15351
921.368	15275
921.477	15055
921.587	15142
921.697	14929
921.806	15131
921.916	15009
922.025	14735
922.134	14705
922.244	14678
922.353	14746
922.462	14655
922.571	14583
922.68	14480
922.789	14317
922.898	14374
923.007	14244
923.116	14355
923.224	14343
923.333	14298
923.442	14248
923.55	14164
923.659	14187
923.767	14252
923.876	14111
923.984	14153
924.092	14134
924.201	14145
924.309	14115
924.417	14138
924.525	14100
924.633	13967
924.741	14743
924.849	13833
924.956	13993
925.064	13738
925.172	13632
925.279	13784
925.387	13643
925.494	13647
925.602	13845
925.709	13803
925.816	13662
925.924	13704
926.031	13772
926.138	13674
926.245	13666
926.352	13548
926.459	13616
926.566	13738
926.673	13605
926.779	13441
926.886	13464
926.993	13335
927.099	13232
927.206	13225
927.312	13232
927.419	13392
927.525	13209
927.631	13266
927.737	13145
927.843	13084
927.95	12985
928.056	13137
928.162	13057
928.267	13145
928.373	13734
928.479	13141
928.585	12939
928.69	12947
928.796	12993
928.901	12821
929.007	12779
929.112	12928
929.218	12878
929.323	12913
929.428	12825
929.533	12935
929.638	12684
929.743	12726
929.848	12715
929.953	12776
930.058	12650
930.163	12433
930.267	12536
930.372	12547
930.477	12410
930.581	12574
930.685	12475
930.79	12300
930.894	12357
930.998	12376
931.103	12388
931.207	12041
931.311	12038
931.415	11901
931.519	11760
931.623	11665
