Data from test_V78500241_2743.txt Node
Date: Fri Mar 25 16:00:48 CST 2022
User: usil
Spectrometer: V785-0024
Trigger mode: 0
Integration Time (sec): 4.000000E-1
Scans to average: 1
Nonlinearity correction enabled: false
Boxcar width: 0
Storing dark spectrum: false
XAxis mode: Wavelengths
Number of Pixels in Spectrum: 1024
>>>>>Begin Spectral Data<<<<<
801.071	28333
801.214	28417
801.356	28162
801.499	28048
801.641	27816
801.783	27895
801.926	28048
802.068	27956
802.211	27819
802.353	27842
802.496	27523
802.638	27835
802.78	27652
802.923	27603
803.065	27599
803.208	27663
803.35	27557
803.492	27728
803.635	27865
803.777	27675
803.919	27648
804.061	28287
804.204	27972
804.346	27899
804.488	27793
804.63	27884
804.773	27713
804.915	27903
805.057	28040
805.199	27899
805.341	27842
805.483	28010
805.626	27869
805.768	27797
805.91	27930
806.052	27937
806.194	27827
806.336	28268
806.478	27941
806.62	27899
806.762	28207
806.904	28162
807.046	28481
807.188	28424
807.33	28436
807.472	28485
807.614	28436
807.756	28424
807.898	28207
808.04	28154
808.182	28219
808.324	28185
808.465	28299
808.607	28645
808.749	28694
808.891	28763
809.033	28744
809.174	28691
809.316	28710
809.458	28535
809.6	28596
809.741	28801
809.883	28645
810.025	29029
810.166	28957
810.308	29006
810.45	28774
810.591	28900
810.733	28660
810.875	28630
811.016	28542
811.158	28531
811.299	28744
811.441	28763
811.582	28778
811.724	28664
811.865	28584
812.007	28500
812.148	28664
812.29	28683
812.431	28885
812.573	28927
812.714	29166
812.855	29246
812.997	29166
813.138	29429
813.279	29246
813.421	29265
813.562	29121
813.703	29003
813.845	28850
813.986	28523
814.127	28447
814.268	28371
814.41	28489
814.551	28363
814.692	28401
814.833	28253
814.974	28360
815.115	28462
815.256	28341
815.397	28158
815.539	28287
815.68	28158
815.821	28097
815.962	28303
816.103	28169
816.244	28116
816.385	27975
816.526	27819
816.666	27835
816.807	27526
816.948	27637
817.089	27743
817.23	27747
817.371	27648
817.512	27587
817.653	27694
817.793	27572
817.934	27728
818.075	27637
818.216	27713
818.356	27720
818.497	27462
818.638	27378
818.778	27462
818.919	27492
819.06	27424
819.2	27473
819.341	27675
819.481	27755
819.622	27698
819.762	28131
819.903	27998
820.043	27987
820.184	27808
820.324	27816
820.465	27888
820.605	27793
820.746	27743
820.886	27675
821.026	27816
821.167	27827
821.307	27785
821.447	27663
821.588	27534
821.728	27435
821.868	27146
822.008	27184
822.149	27123
822.289	27138
822.429	26925
822.569	26735
822.709	26727
822.849	26537
822.99	26621
823.13	26674
823.27	26621
823.41	26629
823.55	26404
823.69	26499
823.83	26526
823.97	26408
824.11	26259
824.25	26256
824.389	26290
824.529	26362
824.669	26256
824.809	26328
824.949	26514
825.089	26347
825.228	26317
825.368	26218
825.508	26218
825.648	26111
825.787	26157
825.927	26244
826.067	26145
826.206	26134
826.346	26172
826.485	26233
826.625	26320
826.765	26218
826.904	26180
827.044	25947
827.183	26062
827.323	25852
827.462	25970
827.601	25917
827.741	25883
827.88	25875
828.02	25822
828.159	25887
828.298	26001
828.437	25902
828.577	25890
828.716	25875
828.855	25909
828.994	25499
829.134	25548
829.273	25662
829.412	25491
829.551	25635
829.69	25613
829.829	25533
829.968	25658
830.107	25727
830.246	25639
830.385	25613
830.524	25441
830.663	25335
830.802	25247
830.941	25126
831.08	25190
831.219	25217
831.357	25324
831.496	25312
831.635	25274
831.774	25145
831.913	25164
832.051	24924
832.19	25164
832.329	25004
832.467	24890
832.606	24703
832.744	24791
832.883	24878
833.022	24856
833.16	24863
833.299	24886
833.437	24829
833.576	24996
833.714	24916
833.852	24867
833.991	24939
834.129	24916
834.267	25000
834.406	24970
834.544	24802
834.682	24875
834.821	24856
834.959	25065
835.097	24871
835.235	25038
835.373	24863
835.511	24916
835.65	24764
835.788	24760
835.926	24559
836.064	24650
836.202	24623
836.34	24745
836.478	24821
836.615	24639
836.753	24582
836.891	24821
837.029	24814
837.167	24745
837.305	24593
837.443	24650
837.58	24471
837.718	24669
837.856	24604
837.993	24502
838.131	24700
838.269	24414
838.406	24452
838.544	24414
838.681	24277
838.819	24216
838.956	23946
839.094	24117
839.231	24117
839.369	24224
839.506	24311
839.643	24315
839.781	24030
839.918	23958
840.055	24022
840.193	24064
840.33	23893
840.467	23996
840.604	24110
840.742	24205
840.879	23923
841.016	23866
841.153	23718
841.29	24076
841.427	23847
841.564	24003
841.701	23965
841.838	23874
841.975	23809
842.112	23874
842.249	23748
842.385	23794
842.522	23931
842.659	23764
842.796	23573
842.933	23767
843.069	23722
843.206	23691
843.343	23710
843.479	23592
843.616	23596
843.752	23524
843.889	23414
844.025	23676
844.162	23604
844.298	23627
844.435	23436
844.571	23383
844.708	23501
844.844	23668
844.98	23623
845.117	23592
845.253	23421
845.389	23353
845.525	23284
845.661	23334
845.798	23223
845.934	23402
846.07	23204
846.206	23265
846.342	23360
846.478	23159
846.614	22984
846.75	22904
846.886	22892
847.022	23025
847.158	22949
847.294	22972
847.429	22984
847.565	22904
847.701	23280
847.837	22584
847.972	22577
848.108	22687
848.244	22752
848.379	22580
848.515	22516
848.65	22459
848.786	22557
848.921	22478
849.057	22710
849.192	22630
849.328	22546
849.463	22611
849.598	22485
849.734	22497
849.869	22413
850.004	22325
850.14	22318
850.275	22249
850.41	22044
850.545	22196
850.68	22177
850.815	22299
850.95	22257
851.085	22405
851.22	22333
851.355	22360
851.49	22265
851.625	22284
851.76	22295
851.895	22318
852.03	22276
852.165	22230
852.299	22337
852.434	22215
852.569	22246
852.703	22154
852.838	22360
852.973	22493
853.107	22421
853.242	22272
853.376	22032
853.511	21994
853.645	22010
853.78	22162
853.914	22097
854.048	22055
854.183	22029
854.317	22116
854.451	22363
854.585	22059
854.72	22158
854.854	22135
854.988	22036
855.122	22147
855.256	21953
855.39	22021
855.524	22139
855.658	22181
855.792	22238
855.926	22173
856.06	22158
856.194	22204
856.327	22135
856.461	22063
856.595	22093
856.729	22158
856.862	22246
856.996	22128
857.13	22200
857.263	22249
857.397	22192
857.53	22051
857.664	22086
857.797	22169
857.931	22166
858.064	22287
858.197	22253
858.331	22150
858.464	22120
858.597	21857
858.731	22139
858.864	22013
858.997	22112
859.13	22192
859.263	22154
859.396	22135
859.529	21960
859.662	21964
859.795	22112
859.928	22105
860.061	22169
860.194	22310
860.327	22143
860.46	22169
860.592	22333
860.725	22188
860.858	22295
860.99	22055
861.123	21983
861.256	22032
861.388	22284
861.521	22771
861.653	22059
861.786	21831
861.918	21960
862.05	21975
862.183	22006
862.315	21934
862.447	22139
862.58	22101
862.712	21934
862.844	21778
862.976	21899
863.108	21918
863.24	22375
863.372	21717
863.504	21846
863.636	21747
863.768	21819
863.9	21831
864.032	21698
864.164	21808
864.296	21835
864.428	21850
864.559	21857
864.691	21804
864.823	21774
864.954	21842
865.086	21793
865.217	21793
865.349	21641
865.48	21682
865.612	21785
865.743	21793
865.875	21778
866.006	21679
866.137	21785
866.269	21686
866.4	21652
866.531	21682
866.662	21652
866.793	21705
866.924	21701
867.055	21816
867.186	21591
867.317	21622
867.448	21515
867.579	21637
867.71	21618
867.841	21660
867.972	21728
868.103	21701
868.233	21709
868.364	21641
868.495	21808
868.625	21800
868.756	21911
868.886	21838
869.017	22010
869.147	21953
869.278	21899
869.408	22040
869.539	21926
869.669	22025
869.799	21960
869.929	21964
870.06	22021
870.19	22169
870.32	22204
870.45	22181
870.58	22318
870.71	22424
870.84	22478
870.97	22344
871.1	22295
871.23	22500
871.36	22542
871.489	22440
871.619	22402
871.749	22577
871.879	22542
872.008	22729
872.138	22569
872.267	22481
872.397	22493
872.526	22352
872.656	22436
872.785	22379
872.915	22497
873.044	22588
873.173	22531
873.303	22584
873.432	22603
873.561	22584
873.69	22527
873.819	22653
873.948	22557
874.077	22592
874.206	22596
874.335	22436
874.464	22618
874.593	22641
874.722	22831
874.851	22679
874.979	22615
875.108	22953
875.237	22771
875.365	22668
875.494	22660
875.623	22896
875.751	22653
875.88	22649
876.008	22854
876.136	22831
876.265	23166
876.393	23239
876.521	23174
876.65	23208
876.778	23022
876.906	23052
877.034	23098
877.162	23147
877.29	22965
877.418	23117
877.546	23075
877.674	23014
877.802	23155
877.93	23121
878.058	22911
878.185	22957
878.313	23022
878.441	23079
878.568	22858
878.696	23067
878.824	23083
878.951	23155
879.079	23265
879.206	23288
879.333	23185
879.461	23075
879.588	23185
879.715	23132
879.842	23429
879.97	23174
880.097	22911
880.224	22911
880.351	22934
880.478	22957
880.605	22892
880.732	22915
880.859	22980
880.986	22873
881.112	22991
881.239	22809
881.366	22596
881.493	22436
881.619	22440
881.746	22436
881.872	22367
881.999	22344
882.125	22443
882.252	22417
882.378	22390
882.505	22535
882.631	22329
882.757	22112
882.883	22291
883.01	22147
883.136	22154
883.262	22109
883.388	21945
883.514	22128
883.64	22196
883.766	22063
883.892	21918
884.018	21953
884.143	22090
884.269	22181
884.395	21797
884.52	21732
884.646	21823
884.772	21793
884.897	21622
885.023	21732
885.148	21945
885.274	21922
885.399	21876
885.524	21751
885.65	21869
885.775	21804
885.9	21823
886.025	21880
886.15	21941
886.275	21785
886.4	21823
886.525	21778
886.65	21644
886.775	21739
886.9	21903
887.025	21930
887.149	21686
887.274	21663
887.399	21534
887.523	21439
887.648	21507
887.773	21431
887.897	21663
888.021	21599
888.146	21599
888.27	21671
888.395	21583
888.519	21599
888.643	21622
888.767	21511
888.891	21393
889.015	21313
889.139	21530
889.263	21310
889.387	21393
889.511	21614
889.635	21405
889.759	21317
889.883	21340
890.006	21325
890.13	21393
890.254	21344
890.377	21211
890.501	21100
890.624	21085
890.748	21150
890.871	20952
890.995	20925
891.118	20979
891.241	20868
891.364	20933
891.488	21199
891.611	20921
891.734	20963
891.857	20902
891.98	20826
892.103	20857
892.226	20883
892.349	20830
892.471	20701
892.594	20914
892.717	20769
892.839	20773
892.962	20788
893.085	20944
893.207	20773
893.33	20655
893.452	20705
893.575	20792
893.697	20853
893.819	20929
893.941	20990
894.064	20891
894.186	20663
894.308	20735
894.43	20868
894.552	20929
894.674	20986
894.796	20697
894.918	20807
895.04	20724
895.161	20800
895.283	20910
895.405	20689
895.526	20842
895.648	20727
895.769	20800
895.891	20857
896.012	20861
896.134	20857
896.255	20811
896.376	20769
896.498	20796
896.619	20830
896.74	20941
896.861	20800
896.982	21142
897.103	21313
897.224	21070
897.345	21036
897.466	20902
897.587	20941
897.708	21157
897.828	21051
897.949	20921
898.07	20834
898.19	20906
898.311	21157
898.431	20895
898.552	20994
898.672	21001
898.792	21093
898.913	20910
899.033	20864
899.153	20811
899.273	20712
899.393	20731
899.513	20804
899.633	20663
899.753	20773
899.873	20549
899.993	20731
900.113	20731
900.232	20689
900.352	20655
900.472	20492
900.591	20465
900.711	20503
900.83	20465
900.95	20522
901.069	20530
901.189	20328
901.308	20191
901.427	20183
901.546	20073
901.665	20168
901.784	20202
901.904	19799
902.023	19795
902.141	19685
902.26	19620
902.379	19662
902.498	19597
902.617	19540
902.735	19575
902.854	19483
902.973	19453
903.091	19152
903.21	19247
903.328	19190
903.446	19289
903.565	19034
903.683	19103
903.801	18943
903.919	19038
904.038	18905
904.156	18844
904.274	18867
904.392	18821
904.51	18817
904.627	18825
904.745	18795
904.863	18848
904.981	18593
905.098	18384
905.216	18570
905.334	18452
905.451	18525
905.569	18433
905.686	18578
905.803	18509
905.921	18262
906.038	18350
906.155	18205
906.272	18186
906.389	18270
906.506	18068
906.623	18049
906.74	17984
906.857	17866
906.974	17851
907.091	17984
907.208	18057
907.324	17939
907.441	17923
907.557	17733
907.674	17649
907.79	17543
907.907	17737
908.023	17779
908.139	17737
908.256	17581
908.372	17532
908.488	17619
908.604	17459
908.72	17387
908.836	17444
908.952	17440
909.068	17410
909.184	17528
909.3	17387
909.415	17482
909.531	17444
909.647	17242
909.762	17037
909.878	17071
909.993	17159
910.108	17041
910.224	17052
910.339	17090
910.454	16953
910.57	16953
910.685	16729
910.8	17109
910.915	17086
911.03	16930
911.145	16854
911.259	16774
911.374	16744
911.489	16691
911.604	16493
911.718	16424
911.833	16523
911.947	16325
912.062	16306
912.176	16447
912.291	16497
912.405	16402
912.519	16713
912.633	16603
912.748	16485
912.862	16325
912.976	16291
913.09	16131
913.204	16287
913.318	16230
913.431	16226
913.545	16306
913.659	16371
913.772	16185
913.886	16063
914	16010
914.113	16253
914.226	16120
914.34	16059
914.453	15892
914.566	16051
914.68	15941
914.793	15922
914.906	15774
915.019	15591
915.132	15538
915.245	15618
915.358	15591
915.47	15705
915.583	15694
915.696	15671
915.809	15759
915.921	15724
916.034	15595
916.146	15466
916.259	15397
916.371	15614
916.483	15595
916.595	15511
916.708	15485
916.82	15473
916.932	15428
917.044	15386
917.156	15386
917.268	15306
917.38	15344
917.491	15252
917.603	15294
917.715	15359
917.826	15332
917.938	15203
918.049	15066
918.161	15230
918.272	15325
918.384	15370
918.495	15165
918.606	15093
918.717	14952
918.828	15127
918.939	14975
919.05	14952
919.161	14971
919.272	14857
919.383	14891
919.494	15047
919.604	15249
919.715	14982
919.826	14899
919.936	14956
920.047	15097
920.157	14960
920.267	15165
920.378	15005
920.488	15001
920.598	15154
920.708	15298
920.818	15066
920.928	14990
921.038	15214
921.148	15195
921.258	14914
921.368	14925
921.477	14659
921.587	14792
921.697	14571
921.806	14754
921.916	14571
922.025	14385
922.134	14351
922.244	14218
922.353	14366
922.462	14202
922.571	14138
922.68	14005
922.789	13925
922.898	14050
923.007	13928
923.116	13978
923.224	14012
923.333	13951
923.442	13799
923.55	13852
923.659	13811
923.767	13734
923.876	13715
923.984	13791
924.092	13677
924.201	13674
924.309	13727
924.417	13723
924.525	13575
924.633	13655
924.741	14651
924.849	13392
924.956	13495
925.064	13422
925.172	13331
925.279	13331
925.387	13426
925.494	13419
925.602	13457
925.709	13377
925.816	13304
925.924	13251
926.031	13335
926.138	13266
926.245	13384
926.352	13164
926.459	13365
926.566	13312
926.673	13160
926.779	13114
926.886	13050
926.993	12901
927.099	12966
927.206	12859
927.312	12795
927.419	12905
927.525	12890
927.631	12996
927.737	12905
927.843	12806
927.95	12627
928.056	12768
928.162	12791
928.267	12749
928.373	13228
928.479	12798
928.585	12593
928.69	12646
928.796	12730
928.901	12654
929.007	12399
929.112	12585
929.218	12559
929.323	12441
929.428	12418
929.533	12585
929.638	12376
929.743	12342
929.848	12445
929.953	12292
930.058	12334
930.163	12194
930.267	12144
930.372	12239
930.477	12026
930.581	12300
930.685	12190
930.79	12022
930.894	11958
930.998	12026
931.103	12175
931.207	11813
931.311	11707
931.415	11535
931.519	11315
931.623	11349
