Data from test_V78500241_2653.txt Node
Date: Fri Mar 25 16:00:10 CST 2022
User: usil
Spectrometer: V785-0024
Trigger mode: 0
Integration Time (sec): 4.000000E-1
Scans to average: 1
Nonlinearity correction enabled: false
Boxcar width: 0
Storing dark spectrum: false
XAxis mode: Wavelengths
Number of Pixels in Spectrum: 1024
>>>>>Begin Spectral Data<<<<<
801.071	28774
801.214	28569
801.356	28424
801.499	28459
801.641	28219
801.783	28405
801.926	28215
802.068	28204
802.211	28303
802.353	28036
802.496	28097
802.638	28070
802.78	27968
802.923	27751
803.065	27827
803.208	27945
803.35	27937
803.492	28013
803.635	28181
803.777	28078
803.919	28284
804.061	28588
804.204	28219
804.346	28082
804.488	28105
804.63	28109
804.773	28059
804.915	28299
805.057	28261
805.199	28284
805.341	28226
805.483	28291
805.626	28348
805.768	28230
805.91	28504
806.052	28341
806.194	28284
806.336	28481
806.478	28344
806.62	28390
806.762	28417
806.904	28508
807.046	28896
807.188	28694
807.33	28790
807.472	28873
807.614	28824
807.756	28698
807.898	28588
808.04	28523
808.182	28516
808.324	28531
808.465	28736
808.607	28934
808.749	29018
808.891	28942
809.033	29185
809.174	29071
809.316	28957
809.458	29048
809.6	28927
809.741	29140
809.883	29102
810.025	29292
810.166	29303
810.308	29265
810.45	29254
810.591	29288
810.733	28991
810.875	28987
811.016	28923
811.158	28862
811.299	29109
811.441	29239
811.582	29155
811.724	29090
811.865	29064
812.007	28999
812.148	28984
812.29	29037
812.431	29037
812.573	29364
812.714	29486
812.855	29646
812.997	29680
813.138	29783
813.279	29684
813.421	29398
813.562	29417
813.703	29315
813.845	29254
813.986	28999
814.127	28809
814.268	28713
814.41	28748
814.551	28675
814.692	28786
814.833	28736
814.974	28672
815.115	28725
815.256	28569
815.397	28565
815.539	28702
815.68	28645
815.821	28398
815.962	28523
816.103	28527
816.244	28352
816.385	28341
816.526	28367
816.666	28082
816.807	27899
816.948	28150
817.089	28097
817.23	28040
817.371	27953
817.512	27922
817.653	28040
817.793	27846
817.934	28051
818.075	27975
818.216	27918
818.356	27987
818.497	27922
818.638	27797
818.778	27751
818.919	27762
819.06	27812
819.2	27972
819.341	27956
819.481	28051
819.622	28158
819.762	28440
819.903	28310
820.043	28112
820.184	28234
820.324	28093
820.465	28143
820.605	28128
820.746	28185
820.886	27949
821.026	28059
821.167	27918
821.307	28226
821.447	27994
821.588	28017
821.728	27812
821.868	27538
822.008	27534
822.149	27401
822.289	27450
822.429	27336
822.569	27272
822.709	27119
822.849	26982
822.99	27036
823.13	27138
823.27	26994
823.41	26830
823.55	26765
823.69	26842
823.83	26777
823.97	26788
824.11	26640
824.25	26667
824.389	26674
824.529	26785
824.669	26651
824.809	26720
824.949	26625
825.089	26769
825.228	26724
825.368	26469
825.508	26438
825.648	26533
825.787	26514
825.927	26697
826.067	26434
826.206	26575
826.346	26625
826.485	26648
826.625	26606
826.765	26629
826.904	26609
827.044	26317
827.183	26275
827.323	26199
827.462	26252
827.601	26233
827.741	26339
827.88	26290
828.02	26100
828.159	26263
828.298	26282
828.437	26195
828.577	26191
828.716	26313
828.855	26142
828.994	26031
829.134	26020
829.273	25963
829.412	25963
829.551	25845
829.69	25982
829.829	25944
829.968	25932
830.107	26035
830.246	25989
830.385	25906
830.524	25833
830.663	25894
830.802	25643
830.941	25510
831.08	25510
831.219	25696
831.357	25597
831.496	25742
831.635	25491
831.774	25616
831.913	25384
832.051	25434
832.19	25320
832.329	25506
832.467	25160
832.606	25209
832.744	25187
832.883	25289
833.022	25156
833.16	25187
833.299	25259
833.437	25228
833.576	25346
833.714	25312
833.852	25194
833.991	25381
834.129	25221
834.267	25316
834.406	25168
834.544	25285
834.682	25457
834.821	25289
834.959	25563
835.097	25255
835.235	25221
835.373	25362
835.511	25365
835.65	25171
835.788	25080
835.926	24897
836.064	24981
836.202	25000
836.34	25221
836.478	25114
836.615	25076
836.753	25183
836.891	25069
837.029	25118
837.167	25061
837.305	25042
837.443	24935
837.58	24905
837.718	25107
837.856	24901
837.993	24768
838.131	25015
838.269	24901
838.406	24768
838.544	24886
838.681	24623
838.819	24559
838.956	24365
839.094	24395
839.231	24418
839.369	24490
839.506	24882
839.643	24726
839.781	24410
839.918	24353
840.055	24380
840.193	24452
840.33	24319
840.467	24152
840.604	24376
840.742	24688
840.879	24049
841.016	24315
841.153	24152
841.29	24410
841.427	24270
841.564	24403
841.701	24262
841.838	24159
841.975	24254
842.112	24289
842.249	24163
842.385	24117
842.522	24106
842.659	24155
842.796	23912
842.933	23931
843.069	23996
843.206	24159
843.343	24110
843.479	24133
843.616	24038
843.752	23821
843.889	23775
844.025	23942
844.162	23779
844.298	23939
844.435	23950
844.571	23707
844.708	23809
844.844	23999
844.98	23927
845.117	23916
845.253	23745
845.389	23703
845.525	23665
845.661	23615
845.798	23619
845.934	23649
846.07	23463
846.206	23619
846.342	23733
846.478	23524
846.614	23414
846.75	23315
846.886	23311
847.022	23364
847.158	23246
847.294	23326
847.429	23250
847.565	23288
847.701	23581
847.837	23052
847.972	23025
848.108	23086
848.244	23124
848.379	22919
848.515	22953
848.65	22809
848.786	22831
848.921	22889
849.057	22980
849.192	22980
849.328	22904
849.463	22942
849.598	22869
849.734	22774
849.869	22771
850.004	22626
850.14	22653
850.275	22866
850.41	22672
850.545	22596
850.68	22672
850.815	22694
850.95	22694
851.085	22873
851.22	22812
851.355	22725
851.49	22489
851.625	22516
851.76	22546
851.895	22561
852.03	22554
852.165	22603
852.299	22713
852.434	22767
852.569	22592
852.703	22607
852.838	22721
852.973	22805
853.107	22752
853.242	22523
853.376	22508
853.511	22382
853.645	22409
853.78	22577
853.914	22443
854.048	22462
854.183	22405
854.317	22489
854.451	22645
854.585	22535
854.72	22512
854.854	22497
854.988	22379
855.122	22569
855.256	22402
855.39	22379
855.524	22459
855.658	22455
855.792	22512
855.926	22470
856.06	22428
856.194	22626
856.327	22386
856.461	22394
856.595	22402
856.729	22447
856.862	22664
856.996	22531
857.13	22440
857.263	22535
857.397	22649
857.53	22527
857.664	22573
857.797	22527
857.931	22565
858.064	22527
858.197	22649
858.331	22497
858.464	22398
858.597	22481
858.731	22531
858.864	22405
858.997	22493
859.13	22409
859.263	22447
859.396	22569
859.529	22493
859.662	22386
859.795	22519
859.928	22485
860.061	22550
860.194	22736
860.327	22542
860.46	22390
860.592	22592
860.725	22710
860.858	22615
860.99	22607
861.123	22405
861.256	22409
861.388	22538
861.521	23334
861.653	22344
861.786	22257
861.918	22341
862.05	22363
862.183	22489
862.315	22375
862.447	22542
862.58	22432
862.712	22280
862.844	22120
862.976	22291
863.108	22268
863.24	22588
863.372	22124
863.504	22295
863.636	22230
863.768	22196
863.9	22154
864.032	22226
864.164	22055
864.296	22287
864.428	22306
864.559	22192
864.691	22230
864.823	22162
864.954	22173
865.086	22135
865.217	22139
865.349	21987
865.48	22154
865.612	22143
865.743	22219
865.875	22112
866.006	22002
866.137	22059
866.269	22158
866.4	22105
866.531	22135
866.662	21991
866.793	21998
866.924	22090
867.055	21964
867.186	22097
867.317	21960
867.448	21892
867.579	21968
867.71	21934
867.841	21991
867.972	21968
868.103	22070
868.233	22131
868.364	22021
868.495	22131
868.625	22207
868.756	22253
868.886	22162
869.017	22181
869.147	22523
869.278	22310
869.408	22333
869.539	22211
869.669	22322
869.799	22291
869.929	22337
870.06	22390
870.19	22565
870.32	22653
870.45	22660
870.58	22713
870.71	22615
870.84	22824
870.97	22649
871.1	22645
871.23	22763
871.36	22854
871.489	22755
871.619	22790
871.749	22820
871.879	22900
872.008	23083
872.138	22881
872.267	22759
872.397	22793
872.526	22672
872.656	22630
872.785	22584
872.915	22984
873.044	23132
873.173	22927
873.303	22854
873.432	22995
873.561	23022
873.69	22904
873.819	22828
873.948	23010
874.077	22904
874.206	22923
874.335	22866
874.464	22858
874.593	23170
874.722	23048
874.851	23117
874.979	23159
875.108	23239
875.237	23006
875.365	23033
875.494	23067
875.623	23143
875.751	23181
875.88	23223
876.008	23239
876.136	23212
876.265	23425
876.393	23596
876.521	23520
876.65	23539
876.778	23577
876.906	23520
877.034	23505
877.162	23387
877.29	23296
877.418	23448
877.546	23471
877.674	23379
877.802	23425
877.93	23356
878.058	23425
878.185	23269
878.313	23383
878.441	23379
878.568	23337
878.696	23402
878.824	23486
878.951	23516
879.079	23512
879.206	23767
879.333	23592
879.461	23429
879.588	23516
879.715	23463
879.842	23756
879.97	23383
880.097	23284
880.224	23178
880.351	23212
880.478	23330
880.605	23292
880.732	23235
880.859	23474
880.986	23288
881.112	23185
881.239	23132
881.366	22942
881.493	22896
881.619	22809
881.746	22839
881.872	22824
881.999	22736
882.125	22721
882.252	22858
882.378	22729
882.505	22847
882.631	22847
882.757	22504
882.883	22424
883.01	22421
883.136	22466
883.262	22478
883.388	22348
883.514	22405
883.64	22573
883.766	22318
883.892	22223
884.018	22287
884.143	22455
884.269	22375
884.395	22287
884.52	22040
884.646	22166
884.772	21926
884.897	22040
885.023	22185
885.148	22139
885.274	22265
885.399	22257
885.524	22116
885.65	22147
885.775	22131
885.9	22078
886.025	22287
886.15	22204
886.275	21991
886.4	21987
886.525	22010
886.65	22010
886.775	22063
886.9	22188
887.025	22356
887.149	22097
887.274	21880
887.399	21857
887.523	21876
887.648	21846
887.773	21865
887.897	21865
888.021	21930
888.146	21671
888.27	22078
888.395	21964
888.519	21865
888.643	21949
888.767	21934
888.891	21694
889.015	21732
889.139	21766
889.263	21701
889.387	21747
889.511	21926
889.635	21838
889.759	21633
889.883	21739
890.006	21675
890.13	21682
890.254	21488
890.377	21610
890.501	21568
890.624	21431
890.748	21466
890.871	21306
890.995	21203
891.118	21176
891.241	21127
891.364	21230
891.488	21340
891.611	21230
891.734	21291
891.857	21222
891.98	21260
892.103	21249
892.226	21313
892.349	21222
892.471	21024
892.594	21036
892.717	21142
892.839	21096
892.962	21096
893.085	21214
893.207	20990
893.33	21085
893.452	21066
893.575	21157
893.697	21055
893.819	21169
893.941	21370
894.064	21176
894.186	21032
894.308	21055
894.43	21150
894.552	21294
894.674	21199
894.796	21055
894.918	21104
895.04	20990
895.161	21256
895.283	21222
895.405	20982
895.526	21005
895.648	21154
895.769	21214
895.891	21252
896.012	21013
896.134	21127
896.255	21150
896.376	20963
896.498	21020
896.619	21249
896.74	20982
896.861	21146
896.982	21458
897.103	21492
897.224	21367
897.345	21283
897.466	21119
897.587	21321
897.708	21420
897.828	21340
897.949	21298
898.07	21180
898.19	21169
898.311	21294
898.431	21157
898.552	21256
898.672	21199
898.792	21408
898.913	21218
899.033	21298
899.153	21066
899.273	20929
899.393	20910
899.513	21047
899.633	21009
899.753	21036
899.873	20929
899.993	21127
900.113	20914
900.232	21001
900.352	20971
900.472	20842
900.591	20781
900.711	20800
900.83	20724
900.95	20960
901.069	20906
901.189	20689
901.308	20564
901.427	20259
901.546	20393
901.665	20454
901.784	20324
901.904	20210
902.023	20157
902.141	19928
902.26	19852
902.379	19970
902.498	19982
902.617	19795
902.735	19940
902.854	19791
902.973	19811
903.091	19540
903.21	19453
903.328	19533
903.446	19559
903.565	19377
903.683	19384
903.801	19240
903.919	19278
904.038	19316
904.156	19103
904.274	19088
904.392	19004
904.51	19088
904.627	19072
904.745	19004
904.863	19187
904.981	18810
905.098	18871
905.216	18837
905.334	18734
905.451	18661
905.569	18681
905.686	18749
905.803	18764
905.921	18502
906.038	18612
906.155	18650
906.272	18391
906.389	18437
906.506	18323
906.623	18330
906.74	18289
906.857	18235
906.974	18201
907.091	18296
907.208	18365
907.324	18327
907.441	18201
907.557	17999
907.674	17984
907.79	17969
907.907	17984
908.023	17942
908.139	18003
908.256	17939
908.372	17813
908.488	17798
908.604	17775
908.72	17684
908.836	17691
908.952	17570
909.068	17627
909.184	17893
909.3	17611
909.415	17703
909.531	17699
909.647	17410
909.762	17402
909.878	17341
909.993	17444
910.108	17330
910.224	17364
910.339	17372
910.454	17258
910.57	17277
910.685	17041
910.8	17261
910.915	17395
911.03	17193
911.145	17037
911.259	17014
911.374	16995
911.489	16889
911.604	16946
911.718	16771
911.833	16683
911.947	16596
912.062	16573
912.176	16687
912.291	16736
912.405	16752
912.519	16862
912.633	16919
912.748	16736
912.862	16622
912.976	16531
913.09	16360
913.204	16523
913.318	16466
913.431	16622
913.545	16558
913.659	16508
913.772	16523
913.886	16390
914	16211
914.113	16398
914.226	16436
914.34	16306
914.453	16158
914.566	16272
914.68	16272
914.793	16154
914.906	15983
915.019	15819
915.132	15838
915.245	15808
915.358	15873
915.47	15865
915.583	15873
915.696	15934
915.809	15960
915.921	16078
916.034	15759
916.146	15747
916.259	15880
916.371	15861
916.483	15827
916.595	15709
916.708	15644
916.82	15660
916.932	15656
917.044	15648
917.156	15561
917.268	15469
917.38	15557
917.491	15462
917.603	15511
917.715	15561
917.826	15572
917.938	15401
918.049	15386
918.161	15466
918.272	15496
918.384	15618
918.495	15439
918.606	15279
918.717	15195
918.828	15165
918.939	15188
919.05	15146
919.161	15157
919.272	14990
919.383	15081
919.494	15211
919.604	15428
919.715	15249
919.826	15157
919.936	15093
920.047	15237
920.157	15108
920.267	15287
920.378	15081
920.488	15211
920.598	15355
920.708	15416
920.818	15355
920.928	15241
921.038	15447
921.148	15329
921.258	15104
921.368	14994
921.477	14998
921.587	14883
921.697	14826
921.806	14937
921.916	14659
922.025	14590
922.134	14530
922.244	14476
922.353	14625
922.462	14450
922.571	14396
922.68	14256
922.789	14210
922.898	14248
923.007	14092
923.116	14237
923.224	14062
923.333	14225
923.442	14031
923.55	14077
923.659	14126
923.767	14046
923.876	13936
923.984	13963
924.092	13921
924.201	13909
924.309	13864
924.417	13967
924.525	13803
924.633	13826
924.741	14739
924.849	13601
924.956	13814
925.064	13605
925.172	13438
925.279	13544
925.387	13544
925.494	13556
925.602	13632
925.709	13620
925.816	13426
925.924	13491
926.031	13613
926.138	13510
926.245	13449
926.352	13422
926.459	13567
926.566	13586
926.673	13422
926.779	13270
926.886	13381
926.993	13171
927.099	13099
927.206	12981
927.312	13050
927.419	13160
927.525	13118
927.631	13095
927.737	13008
927.843	12920
927.95	12787
928.056	12867
928.162	13046
928.267	12970
928.373	13529
928.479	12977
928.585	12802
928.69	12856
928.796	12909
928.901	12722
929.007	12669
929.112	12886
929.218	12757
929.323	12692
929.428	12711
929.533	12764
929.638	12574
929.743	12623
929.848	12669
929.953	12566
930.058	12494
930.163	12372
930.267	12338
930.372	12426
930.477	12311
930.581	12517
930.685	12330
930.79	12201
930.894	12224
930.998	12178
931.103	12308
931.207	11988
931.311	11840
931.415	11824
931.519	11623
931.623	11592
