Data from test_V78500241_3544.txt Node
Date: Fri Mar 25 16:06:21 CST 2022
User: usil
Spectrometer: V785-0024
Trigger mode: 0
Integration Time (sec): 4.000000E-1
Scans to average: 1
Nonlinearity correction enabled: false
Boxcar width: 0
Storing dark spectrum: false
XAxis mode: Wavelengths
Number of Pixels in Spectrum: 1024
>>>>>Begin Spectral Data<<<<<
801.071	28965
801.214	28847
801.356	28831
801.499	28634
801.641	28630
801.783	28596
801.926	28508
802.068	28504
802.211	28516
802.353	28535
802.496	28352
802.638	28299
802.78	28405
802.923	28116
803.065	28078
803.208	28253
803.35	28196
803.492	28436
803.635	28592
803.777	28329
803.919	28577
804.061	28888
804.204	28592
804.346	28428
804.488	28440
804.63	28455
804.773	28379
804.915	28527
805.057	28820
805.199	28478
805.341	28546
805.483	28698
805.626	28729
805.768	28542
805.91	28618
806.052	28816
806.194	28569
806.336	28801
806.478	28694
806.62	28774
806.762	28904
806.904	29003
807.046	29368
807.188	28976
807.33	29143
807.472	29189
807.614	29075
807.756	29193
807.898	29067
808.04	28862
808.182	28980
808.324	29086
808.465	29060
808.607	29220
808.749	29577
808.891	29463
809.033	29520
809.174	29448
809.316	29440
809.458	29414
809.6	29436
809.741	29471
809.883	29474
810.025	29665
810.166	29687
810.308	29923
810.45	29634
810.591	29680
810.733	29478
810.875	29387
811.016	29391
811.158	29254
811.299	29535
811.441	29592
811.582	29535
811.724	29455
811.865	29360
812.007	29414
812.148	29516
812.29	29391
812.431	29707
812.573	29714
812.714	29828
812.855	29843
812.997	29999
813.138	30110
813.279	30098
813.421	29935
813.562	29847
813.703	29733
813.845	29642
813.986	29501
814.127	29303
814.268	29204
814.41	29197
814.551	29185
814.692	29193
814.833	28957
814.974	29098
815.115	29299
815.256	29109
815.397	28984
815.539	28930
815.68	28938
815.821	28991
815.962	29048
816.103	28888
816.244	28812
816.385	28672
816.526	28679
816.666	28523
816.807	28375
816.948	28592
817.089	28618
817.23	28462
817.371	28394
817.512	28478
817.653	28500
817.793	28428
817.934	28508
818.075	28474
818.216	28542
818.356	28356
818.497	28440
818.638	28188
818.778	28341
818.919	28318
819.06	28318
819.2	28299
819.341	28596
819.481	28459
819.622	28599
819.762	28927
819.903	28755
820.043	28710
820.184	28634
820.324	28744
820.465	28744
820.605	28554
820.746	28538
820.886	28584
821.026	28668
821.167	28550
821.307	28675
821.447	28538
821.588	28428
821.728	28348
821.868	28253
822.008	28036
822.149	27975
822.289	27926
822.429	27637
822.569	27679
822.709	27610
822.849	27431
822.99	27568
823.13	27389
823.27	27492
823.41	27370
823.55	27325
823.69	27302
823.83	27389
823.97	27192
824.11	27074
824.25	27070
824.389	27005
824.529	27294
824.669	27176
824.809	27291
824.949	27306
825.089	27180
825.228	27176
825.368	26937
825.508	27009
825.648	27047
825.787	27039
825.927	27138
826.067	27013
826.206	26990
826.346	26975
826.485	27051
826.625	26998
826.765	27108
826.904	27085
827.044	26902
827.183	26823
827.323	26697
827.462	26842
827.601	26861
827.741	26731
827.88	26762
828.02	26655
828.159	26769
828.298	26796
828.437	26842
828.577	26568
828.716	26830
828.855	26670
828.994	26438
829.134	26427
829.273	26396
829.412	26457
829.551	26377
829.69	26286
829.829	26412
829.968	26495
830.107	26492
830.246	26457
830.385	26313
830.524	26244
830.663	26233
830.802	26050
830.941	25982
831.08	25978
831.219	26183
831.357	26164
831.496	26240
831.635	26130
831.774	25921
831.913	25841
832.051	25875
832.19	25833
832.329	25856
832.467	25693
832.606	25715
832.744	25677
832.883	25620
833.022	25601
833.16	25651
833.299	25708
833.437	25712
833.576	25936
833.714	25830
833.852	25799
833.991	25769
834.129	25845
834.267	25841
834.406	25734
834.544	25906
834.682	25696
834.821	25841
834.959	25928
835.097	25632
835.235	25772
835.373	25784
835.511	25784
835.65	25620
835.788	25613
835.926	25449
836.064	25346
836.202	25499
836.34	25495
836.478	25635
836.615	25605
836.753	25597
836.891	25628
837.029	25632
837.167	25499
837.305	25438
837.443	25559
837.58	25415
837.718	25403
837.856	25411
837.993	25403
838.131	25217
838.269	25190
838.406	25346
838.544	25213
838.681	25168
838.819	25099
838.956	24897
839.094	24852
839.231	24962
839.369	24939
839.506	25183
839.643	25107
839.781	24962
839.918	24795
840.055	24821
840.193	24867
840.33	24894
840.467	24821
840.604	24779
840.742	25000
840.879	24563
841.016	24764
841.153	24715
841.29	24783
841.427	24673
841.564	24798
841.701	24696
841.838	24730
841.975	24734
842.112	24760
842.249	24620
842.385	24555
842.522	24806
842.659	24661
842.796	24536
842.933	24650
843.069	24525
843.206	24448
843.343	24635
843.479	24479
843.616	24452
843.752	24403
843.889	24273
844.025	24376
844.162	24350
844.298	24422
844.435	24315
844.571	24330
844.708	24342
844.844	24388
844.98	24479
845.117	24426
845.253	24247
845.389	24148
845.525	24228
845.661	24174
845.798	23992
845.934	24098
846.07	24041
846.206	24114
846.342	24254
846.478	23961
846.614	23756
846.75	23729
846.886	23729
847.022	23805
847.158	23805
847.294	23916
847.429	23767
847.565	23767
847.701	24011
847.837	23535
847.972	23482
848.108	23554
848.244	23493
848.379	23398
848.515	23337
848.65	23280
848.786	23330
848.921	23337
849.057	23436
849.192	23490
849.328	23391
849.463	23349
849.598	23273
849.734	23246
849.869	23124
850.004	23090
850.14	23147
850.275	23136
850.41	23159
850.545	22965
850.68	23181
850.815	23200
850.95	23189
851.085	23231
851.22	23242
851.355	23197
851.49	23128
851.625	23136
851.76	23067
851.895	23033
852.03	23052
852.165	23041
852.299	23041
852.434	23075
852.569	23067
852.703	23151
852.838	23193
852.973	23109
853.107	23197
853.242	23014
853.376	23003
853.511	22835
853.645	22908
853.78	23071
853.914	23006
854.048	22976
854.183	22991
854.317	22946
854.451	23178
854.585	22965
854.72	22961
854.854	23079
854.988	22980
855.122	22908
855.256	22927
855.39	22984
855.524	22965
855.658	22915
855.792	22923
855.926	22904
856.06	23037
856.194	23098
856.327	22820
856.461	22835
856.595	22892
856.729	22938
856.862	23044
856.996	22946
857.13	22972
857.263	23098
857.397	22972
857.53	22976
857.664	22923
857.797	22942
857.931	23029
858.064	22953
858.197	23159
858.331	22900
858.464	22881
858.597	22782
858.731	22885
858.864	22839
858.997	22858
859.13	22866
859.263	22961
859.396	23071
859.529	22873
859.662	22904
859.795	22748
859.928	22896
860.061	23025
860.194	23159
860.327	23018
860.46	22984
860.592	22938
860.725	23071
860.858	23136
860.99	22965
861.123	22908
861.256	22774
861.388	22911
861.521	23547
861.653	22767
861.786	22759
861.918	22683
862.05	22885
862.183	22873
862.315	22850
862.447	23014
862.58	22793
862.712	22664
862.844	22580
862.976	22546
863.108	22618
863.24	23083
863.372	22588
863.504	22679
863.636	22618
863.768	22607
863.9	22679
864.032	22569
864.164	22653
864.296	22527
864.428	22717
864.559	22656
864.691	22717
864.823	22607
864.954	22565
865.086	22584
865.217	22550
865.349	22413
865.48	22500
865.612	22516
865.743	22626
865.875	22504
866.006	22577
866.137	22459
866.269	22569
866.4	22478
866.531	22443
866.662	22348
866.793	22402
866.924	22402
867.055	22382
867.186	22497
867.317	22535
867.448	22386
867.579	22462
867.71	22386
867.841	22386
867.972	22516
868.103	22417
868.233	22512
868.364	22489
868.495	22451
868.625	22573
868.756	22805
868.886	22516
869.017	22683
869.147	22816
869.278	22683
869.408	22778
869.539	22634
869.669	22835
869.799	22790
869.929	22679
870.06	22748
870.19	22835
870.32	22889
870.45	22999
870.58	23075
870.71	23349
870.84	23067
870.97	23071
871.1	23022
871.23	23265
871.36	23235
871.489	23064
871.619	23067
871.749	23216
871.879	23174
872.008	23410
872.138	23212
872.267	23239
872.397	23170
872.526	23113
872.656	23239
872.785	23121
872.915	23231
873.044	23376
873.173	23387
873.303	23436
873.432	23398
873.561	23379
873.69	23307
873.819	23288
873.948	23353
874.077	23280
874.206	23117
874.335	23303
874.464	23414
874.593	23444
874.722	23296
874.851	23501
874.979	23452
875.108	23524
875.237	23493
875.365	23395
875.494	23509
875.623	23512
875.751	23516
875.88	23562
876.008	23547
876.136	23779
876.265	23832
876.393	24034
876.521	23927
876.65	23920
876.778	23851
876.906	23908
877.034	23843
877.162	23832
877.29	23786
877.418	23866
877.546	23874
877.674	23786
877.802	23851
877.93	23691
878.058	23680
878.185	23672
878.313	23752
878.441	23714
878.568	23710
878.696	23783
878.824	23832
878.951	23901
879.079	23996
879.206	24163
879.333	23977
879.461	23916
879.588	23931
879.715	23996
879.842	24182
879.97	23908
880.097	23646
880.224	23581
880.351	23691
880.478	23771
880.605	23638
880.732	23589
880.859	23961
880.986	23680
881.112	23596
881.239	23562
881.366	23322
881.493	23277
881.619	23223
881.746	23204
881.872	23242
881.999	23223
882.125	23064
882.252	23197
882.378	23056
882.505	23197
882.631	23052
882.757	22885
882.883	23102
883.01	22824
883.136	22850
883.262	22706
883.388	22698
883.514	22793
883.64	22793
883.766	22702
883.892	22611
884.018	22721
884.143	22927
884.269	22771
884.395	22626
884.52	22440
884.646	22500
884.772	22413
884.897	22455
885.023	22382
885.148	22523
885.274	22660
885.399	22569
885.524	22527
885.65	22561
885.775	22550
885.9	22554
886.025	22615
886.15	22554
886.275	22481
886.4	22481
886.525	22356
886.65	22440
886.775	22436
886.9	22611
887.025	22634
887.149	22402
887.274	22371
887.399	22246
887.523	22249
887.648	22101
887.773	22173
887.897	22341
888.021	22158
888.146	22124
888.27	22306
888.395	22196
888.519	22310
888.643	22337
888.767	22337
888.891	22116
889.015	22040
889.139	22207
889.263	22025
889.387	22200
889.511	22074
889.635	22242
889.759	21975
889.883	22131
890.006	22021
890.13	22207
890.254	21892
890.377	21873
890.501	21789
890.624	21762
890.748	21816
890.871	21637
890.995	21618
891.118	21534
891.241	21648
891.364	21587
891.488	21637
891.611	21641
891.734	21587
891.857	21591
891.98	21538
892.103	21545
892.226	21435
892.349	21466
892.471	21389
892.594	21500
892.717	21614
892.839	21469
892.962	21511
893.085	21526
893.207	21408
893.33	21386
893.452	21405
893.575	21572
893.697	21336
893.819	21545
893.941	21618
894.064	21549
894.186	21450
894.308	21287
894.43	21557
894.552	21583
894.674	21401
894.796	21412
894.918	21363
895.04	21477
895.161	21447
895.283	21576
895.405	21370
895.526	21408
895.648	21317
895.769	21481
895.891	21329
896.012	21599
896.134	21530
896.255	21370
896.376	21370
896.498	21439
896.619	21511
896.74	21443
896.861	21500
896.982	21679
897.103	21728
897.224	21637
897.345	21713
897.466	21576
897.587	21587
897.708	21743
897.828	21633
897.949	21587
898.07	21511
898.19	21564
898.311	21667
898.431	21530
898.552	21667
898.672	21610
898.792	21698
898.913	21504
899.033	21458
899.153	21431
899.273	21287
899.393	21291
899.513	21279
899.633	21287
899.753	21351
899.873	21310
899.993	21367
900.113	21214
900.232	21211
900.352	21317
900.472	21142
900.591	21100
900.711	21165
900.83	21070
900.95	21230
901.069	21093
901.189	20963
901.308	20678
901.427	20659
901.546	20621
901.665	20651
901.784	20594
901.904	20476
902.023	20431
902.141	20191
902.26	20187
902.379	20122
902.498	20176
902.617	20122
902.735	20195
902.854	20134
902.973	20119
903.091	19833
903.21	19761
903.328	19814
903.446	19746
903.565	19533
903.683	19601
903.801	19438
903.919	19658
904.038	19556
904.156	19396
904.274	19441
904.392	19346
904.51	19225
904.627	19468
904.745	19335
904.863	19502
904.981	19164
905.098	18996
905.216	19099
905.334	19031
905.451	18943
905.569	19042
905.686	18951
905.803	19164
905.921	18951
906.038	18947
906.155	18916
906.272	18688
906.389	18692
906.506	18608
906.623	18521
906.74	18612
906.857	18467
906.974	18525
907.091	18631
907.208	18661
907.324	18734
907.441	18445
907.557	18220
907.674	18266
907.79	18159
907.907	18292
908.023	18285
908.139	18262
908.256	18304
908.372	18182
908.488	18178
908.604	18011
908.72	18057
908.836	18091
908.952	17984
909.068	17939
909.184	18064
909.3	17931
909.415	17939
909.531	17942
909.647	17634
909.762	17665
909.878	17532
909.993	17771
910.108	17573
910.224	17509
910.339	17661
910.454	17532
910.57	17532
910.685	17364
910.8	17707
910.915	17638
911.03	17440
911.145	17269
911.259	17303
911.374	17288
911.489	17166
911.604	17151
911.718	16987
911.833	17052
911.947	16824
912.062	16763
912.176	17079
912.291	16968
912.405	16873
912.519	17162
912.633	17151
912.748	17003
912.862	17048
912.976	16679
913.09	16713
913.204	16733
913.318	16820
913.431	16942
913.545	16866
913.659	16995
913.772	16774
913.886	16569
914	16561
914.113	16668
914.226	16664
914.34	16573
914.453	16405
914.566	16615
914.68	16409
914.793	16398
914.906	16207
915.019	16158
915.132	16063
915.245	16135
915.358	16158
915.47	16109
915.583	16112
915.696	16196
915.809	16246
915.921	16249
916.034	16093
916.146	16025
916.259	16029
916.371	16246
916.483	16086
916.595	16036
916.708	15994
916.82	15956
916.932	15903
917.044	15964
917.156	15907
917.268	15793
917.38	15717
917.491	15671
917.603	15766
917.715	15861
917.826	15743
917.938	15717
918.049	15675
918.161	15686
918.272	15880
918.384	15831
918.495	15709
918.606	15473
918.717	15298
918.828	15545
918.939	15488
919.05	15382
919.161	15408
919.272	15283
919.383	15424
919.494	15469
919.604	15625
919.715	15447
919.826	15374
919.936	15420
920.047	15519
920.157	15443
920.267	15584
920.378	15454
920.488	15336
920.598	15561
920.708	15656
920.818	15500
920.928	15572
921.038	15736
921.148	15633
921.258	15336
921.368	15336
921.477	15195
921.587	15116
921.697	14960
921.806	15161
921.916	14872
922.025	14838
922.134	14708
922.244	14727
922.353	14796
922.462	14663
922.571	14785
922.68	14446
922.789	14351
922.898	14507
923.007	14320
923.116	14476
923.224	14438
923.333	14339
923.442	14370
923.55	14256
923.659	14202
923.767	14248
923.876	14149
923.984	14229
924.092	14119
924.201	14130
924.309	14138
924.417	14119
924.525	14058
924.633	14111
924.741	15020
924.849	13868
924.956	13970
925.064	13765
925.172	13712
925.279	13689
925.387	13811
925.494	13674
925.602	13871
925.709	13879
925.816	13681
925.924	13689
926.031	13864
926.138	13712
926.245	13731
926.352	13594
926.459	13845
926.566	13757
926.673	13620
926.779	13605
926.886	13514
926.993	13331
927.099	13350
927.206	13339
927.312	13270
927.419	13346
927.525	13434
927.631	13320
927.737	13171
927.843	13194
927.95	13050
928.056	13110
928.162	13069
928.267	13126
928.373	13788
928.479	13244
928.585	12890
928.69	13137
928.796	13118
928.901	12985
929.007	12867
929.112	12920
929.218	12954
929.323	12882
929.428	12741
929.533	12859
929.638	12795
929.743	12871
929.848	12875
929.953	12730
930.058	12532
930.163	12521
930.267	12437
930.372	12665
930.477	12437
930.581	12692
930.685	12551
930.79	12445
930.894	12403
930.998	12361
931.103	12483
931.207	12155
931.311	12015
931.415	11942
931.519	11726
931.623	11771
