Data from test_V78500241_877.txt Node
Date: Fri Mar 25 15:47:52 CST 2022
User: usil
Spectrometer: V785-0024
Trigger mode: 0
Integration Time (sec): 4.000000E-1
Scans to average: 1
Nonlinearity correction enabled: false
Boxcar width: 0
Storing dark spectrum: false
XAxis mode: Wavelengths
Number of Pixels in Spectrum: 1024
>>>>>Begin Spectral Data<<<<<
801.071	27785
801.214	27568
801.356	27389
801.499	27382
801.641	27199
801.783	27272
801.926	27310
802.068	27294
802.211	27207
802.353	27218
802.496	26891
802.638	26895
802.78	26895
802.923	27116
803.065	26910
803.208	26712
803.35	26823
803.492	26944
803.635	27074
803.777	26963
803.919	27222
804.061	27256
804.204	27123
804.346	26918
804.488	27020
804.63	27131
804.773	26990
804.915	27116
805.057	27203
805.199	27051
805.341	27154
805.483	27252
805.626	27169
805.768	27104
805.91	27218
806.052	27298
806.194	27135
806.336	27408
806.478	27157
806.62	27256
806.762	27317
806.904	27431
807.046	27599
807.188	27564
807.33	27606
807.472	27675
807.614	27466
807.756	27656
807.898	27507
808.04	27458
808.182	27374
808.324	27488
808.465	27553
808.607	27785
808.749	27918
808.891	27899
809.033	28059
809.174	27968
809.316	27899
809.458	27785
809.6	27812
809.741	28044
809.883	27857
810.025	28234
810.166	28185
810.308	28021
810.45	28036
810.591	28120
810.733	27903
810.875	27804
811.016	27835
811.158	27781
811.299	27884
811.441	28082
811.582	28109
811.724	27869
811.865	27854
812.007	27907
812.148	27892
812.29	27831
812.431	28029
812.573	28112
812.714	28360
812.855	28337
812.997	28447
813.138	28535
813.279	28451
813.421	28424
813.562	28329
813.703	28265
813.845	28082
813.986	27739
814.127	27618
814.268	27599
814.41	27553
814.551	27610
814.692	27724
814.833	27435
814.974	27473
815.115	27545
815.256	27473
815.397	27355
815.539	27317
815.68	27230
815.821	27298
815.962	27355
816.103	27230
816.244	27237
816.385	27241
816.526	27070
816.666	26830
816.807	26880
816.948	26868
817.089	26998
817.23	26933
817.371	26853
817.512	26823
817.653	26857
817.793	26777
817.934	26876
818.075	26891
818.216	26838
818.356	26826
818.497	26697
818.638	26708
818.778	26632
818.919	26590
819.06	26765
819.2	26697
819.341	26785
819.481	26849
819.622	27013
819.762	27119
819.903	27047
820.043	26921
820.184	26944
820.324	26838
820.465	26967
820.605	26883
820.746	26906
820.886	26762
821.026	26933
821.167	26731
821.307	26979
821.447	26861
821.588	26731
821.728	26739
821.868	26457
822.008	26381
822.149	26225
822.289	26111
822.429	25925
822.569	25845
822.709	26005
822.849	25898
822.99	25841
823.13	25708
823.27	25822
823.41	25780
823.55	25559
823.69	25582
823.83	25540
823.97	25407
824.11	25419
824.25	25392
824.389	25403
824.529	25559
824.669	25548
824.809	25674
824.949	25533
825.089	25453
825.228	25586
825.368	25343
825.508	25400
825.648	25358
825.787	25419
825.927	25502
826.067	25339
826.206	25331
826.346	25312
826.485	25407
826.625	25403
826.765	25411
826.904	25240
827.044	25213
827.183	24977
827.323	24970
827.462	25129
827.601	25065
827.741	25019
827.88	24973
828.02	24939
828.159	24992
828.298	25015
828.437	25072
828.577	24973
828.716	25148
828.855	24913
828.994	24768
829.134	24772
829.273	24726
829.412	24783
829.551	24700
829.69	24821
829.829	24730
829.968	24814
830.107	24749
830.246	24650
830.385	24738
830.524	24650
830.663	24540
830.802	24566
830.941	24311
831.08	24308
831.219	24559
831.357	24403
831.496	24536
831.635	24311
831.774	24220
831.913	24209
832.051	24201
832.19	24121
832.329	24262
832.467	24121
832.606	23996
832.744	23863
832.883	23980
833.022	24064
833.16	24060
833.299	24098
833.437	24174
833.576	24125
833.714	24106
833.852	24053
833.991	24133
834.129	24224
834.267	24102
834.406	24125
834.544	23988
834.682	24053
834.821	24114
834.959	24270
835.097	24011
835.235	24106
835.373	23954
835.511	23992
835.65	23931
835.788	24049
835.926	23767
836.064	23680
836.202	23843
836.34	23950
836.478	24186
836.615	23836
836.753	23809
836.891	24038
837.029	24011
837.167	23977
837.305	23847
837.443	23714
837.58	23718
837.718	23870
837.856	23764
837.993	23699
838.131	23748
838.269	23570
838.406	23596
838.544	23570
838.681	23311
838.819	23524
838.956	23307
839.094	23277
839.231	23307
839.369	23326
839.506	23668
839.643	23425
839.781	23288
839.918	23178
840.055	23242
840.193	23204
840.33	23227
840.467	23220
840.604	23098
840.742	23505
840.879	22995
841.016	23094
841.153	22980
841.29	23273
841.427	22976
841.564	23124
841.701	23151
841.838	23086
841.975	23014
842.112	23159
842.249	22892
842.385	23006
842.522	23105
842.659	23014
842.796	22797
842.933	22904
843.069	22877
843.206	22889
843.343	22908
843.479	22858
843.616	22850
843.752	22729
843.889	22691
844.025	22847
844.162	22569
844.298	22656
844.435	22694
844.571	22649
844.708	22679
844.844	22828
844.98	22771
845.117	22771
845.253	22516
845.389	22550
845.525	22535
845.661	22615
845.798	22379
845.934	22485
846.07	22318
846.206	22360
846.342	22432
846.478	22322
846.614	22238
846.75	22128
846.886	22120
847.022	22158
847.158	22173
847.294	22185
847.429	22162
847.565	22036
847.701	22504
847.837	21778
847.972	21793
848.108	21941
848.244	21880
848.379	21850
848.515	21701
848.65	21732
848.786	21705
848.921	21808
849.057	21720
849.192	21823
849.328	21766
849.463	21686
849.598	21724
849.734	21663
849.869	21519
850.004	21485
850.14	21519
850.275	21458
850.41	21367
850.545	21431
850.68	21462
850.815	21393
850.95	21367
851.085	21660
851.22	21553
851.355	21485
851.49	21542
851.625	21488
851.76	21401
851.895	21329
852.03	21283
852.165	21382
852.299	21504
852.434	21557
852.569	21572
852.703	21523
852.838	21428
852.973	21625
853.107	21701
853.242	21485
853.376	21310
853.511	21310
853.645	21302
853.78	21351
853.914	21325
854.048	21351
854.183	21222
854.317	21542
854.451	21660
854.585	21310
854.72	21283
854.854	21458
854.988	21211
855.122	21268
855.256	21207
855.39	21260
855.524	21355
855.658	21313
855.792	21336
855.926	21378
856.06	21355
856.194	21363
856.327	21241
856.461	21275
856.595	21355
856.729	21374
856.862	21329
856.996	21351
857.13	21469
857.263	21382
857.397	21344
857.53	21192
857.664	21401
857.797	21408
857.931	21462
858.064	21367
858.197	21405
858.331	21298
858.464	21355
858.597	21142
858.731	21222
858.864	21256
858.997	21275
859.13	21279
859.263	21359
859.396	21393
859.529	21294
859.662	21230
859.795	21378
859.928	21374
860.061	21561
860.194	21477
860.327	21424
860.46	21431
860.592	21378
860.725	21488
860.858	21359
860.99	21256
861.123	21264
861.256	21218
861.388	21260
861.521	21972
861.653	21135
861.786	21036
861.918	21119
862.05	21214
862.183	21169
862.315	21256
862.447	21340
862.58	21264
862.712	21077
862.844	20994
862.976	21108
863.108	21077
863.24	21428
863.372	20990
863.504	21062
863.636	20948
863.768	21028
863.9	21051
864.032	20819
864.164	20971
864.296	20963
864.428	21192
864.559	21085
864.691	21135
864.823	21032
864.954	20998
865.086	20986
865.217	20933
865.349	20918
865.48	20880
865.612	20994
865.743	21089
865.875	21024
866.006	20910
866.137	21001
866.269	20899
866.4	20967
866.531	20849
866.662	20872
866.793	20842
866.924	20826
867.055	20902
867.186	20861
867.317	20853
867.448	20804
867.579	20804
867.71	20686
867.841	20632
867.972	20899
868.103	20906
868.233	20887
868.364	20887
868.495	20975
868.625	21051
868.756	21165
868.886	21173
869.017	20918
869.147	21123
869.278	21203
869.408	21211
869.539	21112
869.669	21135
869.799	21123
869.929	21264
870.06	21123
870.19	21443
870.32	21462
870.45	21340
870.58	21397
870.71	21595
870.84	21641
870.97	21572
871.1	21538
871.23	21686
871.36	21724
871.489	21564
871.619	21595
871.749	21781
871.879	21694
872.008	21838
872.138	21614
872.267	21648
872.397	21488
872.526	21641
872.656	21519
872.785	21454
872.915	21724
873.044	21808
873.173	21648
873.303	21690
873.432	21774
873.561	21831
873.69	21663
873.819	21667
873.948	21892
874.077	21827
874.206	21682
874.335	21587
874.464	21819
874.593	22063
874.722	21804
874.851	22006
874.979	21949
875.108	22029
875.237	21899
875.365	21789
875.494	21960
875.623	22013
875.751	21854
875.88	22055
876.008	22124
876.136	21983
876.265	22341
876.393	22462
876.521	22462
876.65	22447
876.778	22413
876.906	22242
877.034	22333
877.162	22265
877.29	22196
877.418	22447
877.546	22375
877.674	22215
877.802	22230
877.93	22257
878.058	22120
878.185	22147
878.313	22215
878.441	22352
878.568	22093
878.696	22116
878.824	22405
878.951	22382
879.079	22405
879.206	22630
879.333	22580
879.461	22314
879.588	22344
879.715	22402
879.842	22580
879.97	22303
880.097	22135
880.224	22067
880.351	22067
880.478	22128
880.605	21994
880.732	22017
880.859	22394
880.986	22147
881.112	22002
881.239	21903
881.366	21808
881.493	21743
881.619	21720
881.746	21705
881.872	21842
881.999	21717
882.125	21660
882.252	21648
882.378	21641
882.505	21770
882.631	21564
882.757	21412
882.883	21424
883.01	21363
883.136	21397
883.262	21184
883.388	21256
883.514	21382
883.64	21500
883.766	21291
883.892	21062
884.018	21264
884.143	21302
884.269	21424
884.395	21020
884.52	21066
884.646	21047
884.772	20941
884.897	20960
885.023	21047
885.148	21131
885.274	21108
885.399	20975
885.524	21032
885.65	21005
885.775	21062
885.9	21062
886.025	21070
886.15	20883
886.275	20880
886.4	20914
886.525	20842
886.65	20842
886.775	20963
886.9	21062
887.025	21039
887.149	20990
887.274	20819
887.399	20826
887.523	20739
887.648	20868
887.773	20697
887.897	20902
888.021	20819
888.146	20708
888.27	20861
888.395	21055
888.519	20819
888.643	20788
888.767	20861
888.891	20655
889.015	20625
889.139	20640
889.263	20598
889.387	20674
889.511	20868
889.635	20796
889.759	20556
889.883	20514
890.006	20651
890.13	20762
890.254	20476
890.377	20507
890.501	20442
890.624	20377
890.748	20332
890.871	20221
890.995	20187
891.118	20100
891.241	20115
891.364	20244
891.488	20248
891.611	20180
891.734	20206
891.857	20271
891.98	20183
892.103	20214
892.226	20103
892.349	20092
892.471	20024
892.594	20088
892.717	20107
892.839	20043
892.962	20058
893.085	20202
893.207	20043
893.33	19928
893.452	20073
893.575	20069
893.697	20012
893.819	20180
893.941	20218
894.064	20092
894.186	20058
894.308	19928
894.43	20115
894.552	20168
894.674	20126
894.796	19989
894.918	20058
895.04	19967
895.161	20142
895.283	20096
895.405	20027
895.526	20058
895.648	20062
895.769	20084
895.891	20005
896.012	20176
896.134	20161
896.255	20096
896.376	20012
896.498	20157
896.619	20138
896.74	20149
896.861	20130
896.982	20461
897.103	20514
897.224	20339
897.345	20252
897.466	20183
897.587	20339
897.708	20503
897.828	20240
897.949	20244
898.07	20073
898.19	20275
898.311	20317
898.431	20252
898.552	20324
898.672	20282
898.792	20290
898.913	20225
899.033	20081
899.153	20020
899.273	20065
899.393	19959
899.513	20054
899.633	19993
899.753	19982
899.873	20058
899.993	20058
900.113	20001
900.232	19944
900.352	19898
900.472	19909
900.591	19788
900.711	19814
900.83	19791
900.95	19967
901.069	19955
901.189	19765
901.308	19529
901.427	19377
901.546	19426
901.665	19407
901.784	19499
901.904	19320
902.023	19194
902.141	19012
902.26	18890
902.379	19012
902.498	18935
902.617	18871
902.735	18856
902.854	18989
902.973	18825
903.091	18620
903.21	18563
903.328	18620
903.446	18441
903.565	18338
903.683	18441
903.801	18319
903.919	18228
904.038	18422
904.156	18190
904.274	18190
904.392	18125
904.51	18045
904.627	18213
904.745	18182
904.863	18213
904.981	17958
905.098	17828
905.216	17805
905.334	17923
905.451	17889
905.569	17882
905.686	17779
905.803	17847
905.921	17649
906.038	17722
906.155	17646
906.272	17558
906.389	17501
906.506	17512
906.623	17368
906.74	17353
906.857	17284
906.974	17250
907.091	17448
907.208	17402
907.324	17459
907.441	17269
907.557	17151
907.674	17018
907.79	17090
907.907	17029
908.023	17102
908.139	17064
908.256	17041
908.372	16877
908.488	16953
908.604	16771
908.72	16763
908.836	16759
908.952	16767
909.068	16942
909.184	16885
909.3	16725
909.415	16771
909.531	16873
909.647	16516
909.762	16531
909.878	16527
909.993	16519
910.108	16424
910.224	16500
910.339	16443
910.454	16455
910.57	16337
910.685	16261
910.8	16546
910.915	16443
911.03	16371
911.145	16147
911.259	16086
911.374	16048
911.489	16021
911.604	15991
911.718	15827
911.833	15842
911.947	15770
912.062	15698
912.176	15953
912.291	15884
912.405	15918
912.519	16032
912.633	16048
912.748	15861
912.862	15778
912.976	15694
913.09	15538
913.204	15622
913.318	15568
913.431	15694
913.545	15694
913.659	15694
913.772	15709
913.886	15485
914	15428
914.113	15549
914.226	15618
914.34	15473
914.453	15268
914.566	15439
914.68	15435
914.793	15397
914.906	15058
915.019	15146
915.132	15017
915.245	15005
915.358	15112
915.47	15089
915.583	15062
915.696	15036
915.809	15218
915.921	15119
916.034	14990
916.146	15039
916.259	14963
916.371	15009
916.483	15070
916.595	14933
916.708	14948
916.82	14891
916.932	14815
917.044	14842
917.156	14895
917.268	14739
917.38	14682
917.491	14724
917.603	14720
917.715	14758
917.826	14781
917.938	14640
918.049	14503
918.161	14644
918.272	14796
918.384	14754
918.495	14606
918.606	14488
918.717	14446
918.828	14530
918.939	14537
919.05	14389
919.161	14522
919.272	14256
919.383	14408
919.494	14522
919.604	14644
919.715	14503
919.826	14370
919.936	14537
920.047	14480
920.157	14457
920.267	14701
920.378	14499
920.488	14476
920.598	14571
920.708	14743
920.818	14594
920.928	14575
921.038	14823
921.148	14682
921.258	14309
921.368	14252
921.477	14214
921.587	14180
921.697	14065
921.806	14229
921.916	14024
922.025	13868
922.134	13799
922.244	13780
922.353	13868
922.462	13742
922.571	13693
922.68	13472
922.789	13529
922.898	13430
923.007	13419
923.116	13419
923.224	13460
923.333	13438
923.442	13350
923.55	13308
923.659	13278
923.767	13331
923.876	13346
923.984	13392
924.092	13289
924.201	13175
924.309	13232
924.417	13247
924.525	13160
924.633	13065
924.741	14221
924.849	12951
924.956	13152
925.064	12897
925.172	12821
925.279	12867
925.387	12920
925.494	12859
925.602	13061
925.709	12977
925.816	12802
925.924	12867
926.031	13027
926.138	12856
926.245	12863
926.352	12696
926.459	12852
926.566	12939
926.673	12711
926.779	12669
926.886	12654
926.993	12547
927.099	12582
927.206	12475
927.312	12483
927.419	12502
927.525	12445
927.631	12464
927.737	12315
927.843	12232
927.95	12155
928.056	12304
928.162	12388
928.267	12365
928.373	12871
928.479	12395
928.585	12053
928.69	12247
928.796	12315
928.901	12213
929.007	11977
929.112	12136
929.218	12194
929.323	11980
929.428	12049
929.533	12182
929.638	11996
929.743	12007
929.848	11999
929.953	11923
930.058	11866
930.163	11726
930.267	11741
930.372	11863
930.477	11741
930.581	11885
930.685	11771
930.79	11589
930.894	11596
930.998	11558
931.103	11722
931.207	11383
931.311	11273
931.415	11231
931.519	10972
931.623	11022
