Data from test_V78500241_3438.txt Node
Date: Fri Mar 25 16:05:37 CST 2022
User: usil
Spectrometer: V785-0024
Trigger mode: 0
Integration Time (sec): 4.000000E-1
Scans to average: 1
Nonlinearity correction enabled: false
Boxcar width: 0
Storing dark spectrum: false
XAxis mode: Wavelengths
Number of Pixels in Spectrum: 1024
>>>>>Begin Spectral Data<<<<<
801.071	28759
801.214	28812
801.356	28752
801.499	28577
801.641	28485
801.783	28432
801.926	28634
802.068	28577
802.211	28367
802.353	28344
802.496	28242
802.638	28215
802.78	28207
802.923	28044
803.065	27953
803.208	28188
803.35	28337
803.492	28303
803.635	28284
803.777	28401
803.919	28428
804.061	28839
804.204	28577
804.346	28409
804.488	28337
804.63	28455
804.773	28413
804.915	28557
805.057	28569
805.199	28428
805.341	28478
805.483	28626
805.626	28573
805.768	28379
805.91	28588
806.052	28519
806.194	28538
806.336	28637
806.478	28489
806.62	28546
806.762	28717
806.904	28733
807.046	29242
807.188	29109
807.33	28999
807.472	29064
807.614	29090
807.756	28995
807.898	28812
808.04	28858
808.182	28858
808.324	28942
808.465	29010
808.607	29132
808.749	29292
808.891	29277
809.033	29375
809.174	29364
809.316	29318
809.458	29246
809.6	29318
809.741	29299
809.883	29429
810.025	29577
810.166	29611
810.308	29630
810.45	29516
810.591	29562
810.733	29299
810.875	29368
811.016	29170
811.158	29227
811.299	29410
811.441	29490
811.582	29509
811.724	29254
811.865	29292
812.007	29284
812.148	29334
812.29	29379
812.431	29516
812.573	29684
812.714	29672
812.855	29912
812.997	30041
813.138	30053
813.279	29904
813.421	29824
813.562	29794
813.703	29600
813.845	29703
813.986	29318
814.127	29162
814.268	29094
814.41	29117
814.551	29079
814.692	29048
814.833	29060
814.974	28919
815.115	29143
815.256	28980
815.397	28896
815.539	28961
815.68	28725
815.821	28729
815.962	28919
816.103	28771
816.244	28744
816.385	28660
816.526	28569
816.666	28599
816.807	28246
816.948	28325
817.089	28493
817.23	28432
817.371	28436
817.512	28219
817.653	28310
817.793	28390
817.934	28382
818.075	28265
818.216	28329
818.356	28207
818.497	28253
818.638	28025
818.778	28082
818.919	28162
819.06	28131
819.2	28352
819.341	28478
819.481	28375
819.622	28516
819.762	28725
819.903	28577
820.043	28538
820.184	28523
820.324	28379
820.465	28546
820.605	28417
820.746	28512
820.886	28280
821.026	28394
821.167	28519
821.307	28398
821.447	28360
821.588	28394
821.728	28261
821.868	27930
822.008	27850
822.149	27778
822.289	27869
822.429	27652
822.569	27466
822.709	27462
822.849	27526
822.99	27355
823.13	27287
823.27	27344
823.41	27157
823.55	27058
823.69	27116
823.83	27310
823.97	27146
824.11	26975
824.25	26956
824.389	26971
824.529	27028
824.669	27055
824.809	27123
824.949	27066
825.089	27024
825.228	27028
825.368	26902
825.508	26804
825.648	26963
825.787	26986
825.927	26948
826.067	26811
826.206	26826
826.346	26960
826.485	26914
826.625	26845
826.765	26921
826.904	26975
827.044	26705
827.183	26598
827.323	26636
827.462	26617
827.601	26682
827.741	26625
827.88	26682
828.02	26473
828.159	26583
828.298	26678
828.437	26606
828.577	26522
828.716	26571
828.855	26545
828.994	26431
829.134	26366
829.273	26336
829.412	26355
829.551	26199
829.69	26199
829.829	26351
829.968	26415
830.107	26522
830.246	26370
830.385	26142
830.524	26199
830.663	26122
830.802	25989
830.941	25955
831.08	25799
831.219	25791
831.357	25959
831.496	26176
831.635	25890
831.774	25780
831.913	25753
832.051	25761
832.19	25700
832.329	25750
832.467	25518
832.606	25533
832.744	25571
832.883	25590
833.022	25472
833.16	25605
833.299	25655
833.437	25616
833.576	25601
833.714	25639
833.852	25677
833.991	25750
834.129	25723
834.267	25734
834.406	25723
834.544	25788
834.682	25662
834.821	25662
834.959	25715
835.097	25567
835.235	25533
835.373	25544
835.511	25582
835.65	25548
835.788	25586
835.926	25259
836.064	25339
836.202	25419
836.34	25377
836.478	25590
836.615	25502
836.753	25559
836.891	25590
837.029	25479
837.167	25327
837.305	25324
837.443	25358
837.58	25327
837.718	25346
837.856	25362
837.993	25198
838.131	25301
838.269	25099
838.406	25175
838.544	25080
838.681	24954
838.819	24981
838.956	24749
839.094	24837
839.231	24734
839.369	25000
839.506	25072
839.643	25076
839.781	24719
839.918	24696
840.055	24760
840.193	24757
840.33	24498
840.467	24871
840.604	24555
840.742	24840
840.879	24559
841.016	24707
841.153	24593
841.29	24707
841.427	24677
841.564	24661
841.701	24555
841.838	24623
841.975	24627
842.112	24513
842.249	24388
842.385	24418
842.522	24589
842.659	24445
842.796	24407
842.933	24448
843.069	24441
843.206	24350
843.343	24433
843.479	24365
843.616	24483
843.752	24178
843.889	24190
844.025	24258
844.162	24155
844.298	24129
844.435	24182
844.571	24087
844.708	24285
844.844	24262
844.98	24308
845.117	24445
845.253	24194
845.389	24140
845.525	24098
845.661	23946
845.798	23954
845.934	23984
846.07	23977
846.206	23889
846.342	23946
846.478	23977
846.614	23676
846.75	23638
846.886	23604
847.022	23710
847.158	23707
847.294	23554
847.429	23718
847.565	23551
847.701	23950
847.837	23349
847.972	23315
848.108	23596
848.244	23356
848.379	23322
848.515	23159
848.65	23178
848.786	23083
848.921	23280
849.057	23368
849.192	23455
849.328	23318
849.463	23208
849.598	23094
849.734	23235
849.869	23083
850.004	23003
850.14	22965
850.275	22911
850.41	22919
850.545	22999
850.68	22999
850.815	23208
850.95	23010
851.085	23143
851.22	23071
851.355	23018
851.49	22930
851.625	22934
851.76	22957
851.895	22949
852.03	22877
852.165	23041
852.299	22915
852.434	23060
852.569	23003
852.703	22995
852.838	23113
852.973	23025
853.107	23174
853.242	22934
853.376	22828
853.511	22752
853.645	22812
853.78	22885
853.914	22790
854.048	22778
854.183	22797
854.317	22702
854.451	23006
854.585	22816
854.72	22911
854.854	22816
854.988	22786
855.122	22801
855.256	22786
855.39	22854
855.524	22858
855.658	22812
855.792	22797
855.926	22809
856.06	22790
856.194	22869
856.327	22763
856.461	22702
856.595	22706
856.729	22694
856.862	22866
856.996	22786
857.13	22889
857.263	22790
857.397	22911
857.53	22683
857.664	22850
857.797	22889
857.931	22847
858.064	22923
858.197	22892
858.331	22797
858.464	22793
858.597	22615
858.731	22816
858.864	22713
858.997	22702
859.13	22771
859.263	22744
859.396	22850
859.529	22835
859.662	22755
859.795	22790
859.928	22782
860.061	22938
860.194	23033
860.327	22869
860.46	22854
860.592	22946
860.725	22942
860.858	22904
860.99	22831
861.123	22710
861.256	22767
861.388	22900
861.521	23379
861.653	22672
861.786	22713
861.918	22744
862.05	22683
862.183	22835
862.315	22767
862.447	22717
862.58	22725
862.712	22546
862.844	22516
862.976	22493
863.108	22691
863.24	22877
863.372	22440
863.504	22474
863.636	22603
863.768	22466
863.9	22546
864.032	22390
864.164	22432
864.296	22508
864.428	22679
864.559	22538
864.691	22356
864.823	22645
864.954	22546
865.086	22512
865.217	22462
865.349	22417
865.48	22405
865.612	22325
865.743	22607
865.875	22436
866.006	22337
866.137	22360
866.269	22413
866.4	22303
866.531	22356
866.662	22276
866.793	22394
866.924	22314
867.055	22295
867.186	22329
867.317	22363
867.448	22211
867.579	22306
867.71	22246
867.841	22238
867.972	22436
868.103	22394
868.233	22291
868.364	22421
868.495	22409
868.625	22485
868.756	22656
868.886	22455
869.017	22569
869.147	22607
869.278	22748
869.408	22497
869.539	22573
869.669	22588
869.799	22698
869.929	22774
870.06	22698
870.19	22866
870.32	22911
870.45	22862
870.58	22904
870.71	23064
870.84	23041
870.97	22835
871.1	23098
871.23	23147
871.36	23143
871.489	23029
871.619	23212
871.749	23147
871.879	23227
872.008	23181
872.138	23193
872.267	23098
872.397	22995
872.526	23018
872.656	22911
872.785	23037
872.915	23151
873.044	23315
873.173	23189
873.303	23193
873.432	23326
873.561	23372
873.69	23162
873.819	23185
873.948	23231
874.077	23181
874.206	23151
874.335	23193
874.464	23398
874.593	23471
874.722	23349
874.851	23383
874.979	23471
875.108	23452
875.237	23284
875.365	23223
875.494	23391
875.623	23440
875.751	23341
875.88	23417
876.008	23421
876.136	23566
876.265	23775
876.393	23973
876.521	23847
876.65	23912
876.778	23798
876.906	23695
877.034	23756
877.162	23866
877.29	23794
877.418	23836
877.546	23691
877.674	23665
877.802	23798
877.93	23748
878.058	23790
878.185	23581
878.313	23657
878.441	23642
878.568	23539
878.696	23592
878.824	23786
878.951	23817
879.079	23908
879.206	23961
879.333	23859
879.461	23752
879.588	23786
879.715	24003
879.842	23935
879.97	23847
880.097	23433
880.224	23611
880.351	23634
880.478	23497
880.605	23547
880.732	23600
880.859	23764
880.986	23512
881.112	23611
881.239	23440
881.366	23360
881.493	23102
881.619	23147
881.746	23060
881.872	23242
881.999	22980
882.125	23018
882.252	23136
882.378	22965
882.505	23178
882.631	22953
882.757	22824
882.883	22824
883.01	22752
883.136	22717
883.262	22694
883.388	22455
883.514	22725
883.64	22774
883.766	22592
883.892	22516
884.018	22554
884.143	22763
884.269	22816
884.395	22436
884.52	22417
884.646	22478
884.772	22386
884.897	22310
885.023	22352
885.148	22478
885.274	22569
885.399	22493
885.524	22371
885.65	22382
885.775	22466
885.9	22455
886.025	22538
886.15	22569
886.275	22306
886.4	22352
886.525	22333
886.65	22325
886.775	22204
886.9	22481
887.025	22637
887.149	22291
887.274	22246
887.399	22131
887.523	22318
887.648	22109
887.773	22059
887.897	22242
888.021	22109
888.146	22105
888.27	22147
888.395	22211
888.519	22242
888.643	22215
888.767	22116
888.891	22051
889.015	21991
889.139	22059
889.263	21918
889.387	22017
889.511	22211
889.635	22086
889.759	21823
889.883	21956
890.006	21922
890.13	21972
890.254	21869
890.377	21895
890.501	21679
890.624	21690
890.748	21663
890.871	21538
890.995	21462
891.118	21492
891.241	21447
891.364	21428
891.488	21625
891.611	21462
891.734	21466
891.857	21481
891.98	21435
892.103	21492
892.226	21496
892.349	21382
892.471	21252
892.594	21405
892.717	21424
892.839	21313
892.962	21431
893.085	21412
893.207	21367
893.33	21287
893.452	21329
893.575	21359
893.697	21378
893.819	21458
893.941	21595
894.064	21435
894.186	21268
894.308	21363
894.43	21534
894.552	21443
894.674	21534
894.796	21310
894.918	21252
895.04	21165
895.161	21439
895.283	21500
895.405	21283
895.526	21386
895.648	21313
895.769	21367
895.891	21408
896.012	21523
896.134	21439
896.255	21348
896.376	21272
896.498	21367
896.619	21363
896.74	21336
896.861	21306
896.982	21583
897.103	21800
897.224	21603
897.345	21477
897.466	21507
897.587	21599
897.708	21557
897.828	21511
897.949	21492
898.07	21298
898.19	21370
898.311	21580
898.431	21496
898.552	21504
898.672	21618
898.792	21644
898.913	21428
899.033	21477
899.153	21405
899.273	21287
899.393	21222
899.513	21389
899.633	21336
899.753	21336
899.873	21131
899.993	21332
900.113	21173
900.232	21173
900.352	21138
900.472	21146
900.591	21032
900.711	21074
900.83	21005
900.95	21135
901.069	21062
901.189	20975
901.308	20689
901.427	20518
901.546	20495
901.665	20598
901.784	20667
901.904	20598
902.023	20343
902.141	20218
902.26	20153
902.379	20347
902.498	20115
902.617	20062
902.735	20107
902.854	20012
902.973	20043
903.091	19772
903.21	19719
903.328	19712
903.446	19635
903.565	19480
903.683	19483
903.801	19449
903.919	19525
904.038	19422
904.156	19312
904.274	19358
904.392	19320
904.51	19270
904.627	19308
904.745	19343
904.863	19293
904.981	19160
905.098	19004
905.216	18962
905.334	19015
905.451	18935
905.569	18981
905.686	18871
905.803	18897
905.921	18776
906.038	18833
906.155	18707
906.272	18726
906.389	18688
906.506	18448
906.623	18429
906.74	18517
906.857	18285
906.974	18338
907.091	18528
907.208	18616
907.324	18502
907.441	18418
907.557	18258
907.674	18285
907.79	18152
907.907	18110
908.023	18239
908.139	18220
908.256	18171
908.372	18091
908.488	18045
908.604	18007
908.72	17855
908.836	17969
908.952	17836
909.068	17916
909.184	17961
909.3	17908
909.415	17988
909.531	17779
909.647	17646
909.762	17756
909.878	17619
909.993	17649
910.108	17543
910.224	17528
910.339	17566
910.454	17463
910.57	17322
910.685	17383
910.8	17501
910.915	17596
911.03	17421
911.145	17216
911.259	17296
911.374	17159
911.489	17094
911.604	17048
911.718	16934
911.833	16984
911.947	16854
912.062	16873
912.176	16839
912.291	16915
912.405	16824
912.519	17197
912.633	17033
912.748	16839
912.862	16976
912.976	16809
913.09	16611
913.204	16683
913.318	16744
913.431	16885
913.545	16713
913.659	16858
913.772	16691
913.886	16565
914	16459
914.113	16569
914.226	16717
914.34	16527
914.453	16390
914.566	16546
914.68	16382
914.793	16409
914.906	16204
915.019	16059
915.132	15998
915.245	16112
915.358	16093
915.47	16063
915.583	16097
915.696	16131
915.809	16158
915.921	16173
916.034	16013
916.146	15922
916.259	15922
916.371	16059
916.483	16048
916.595	15857
916.708	15934
916.82	15854
916.932	15869
917.044	15789
917.156	15857
917.268	15675
917.38	15747
917.491	15736
917.603	15705
917.715	15800
917.826	15785
917.938	15603
918.049	15477
918.161	15652
918.272	15778
918.384	15774
918.495	15663
918.606	15564
918.717	15397
918.828	15389
918.939	15424
919.05	15386
919.161	15401
919.272	15203
919.383	15237
919.494	15401
919.604	15557
919.715	15469
919.826	15344
919.936	15294
920.047	15386
920.157	15348
920.267	15584
920.378	15283
920.488	15359
920.598	15584
920.708	15644
920.818	15515
920.928	15473
921.038	15717
921.148	15599
921.258	15291
921.368	15245
921.477	15146
921.587	15089
921.697	14975
921.806	15077
921.916	14952
922.025	14788
922.134	14708
922.244	14693
922.353	14796
922.462	14590
922.571	14587
922.68	14381
922.789	14442
922.898	14320
923.007	14351
923.116	14450
923.224	14374
923.333	14332
923.442	14343
923.55	14206
923.659	14176
923.767	14343
923.876	14126
923.984	14252
924.092	14111
924.201	14119
924.309	14157
924.417	13963
924.525	14001
924.633	14020
924.741	14876
924.849	13791
924.956	13852
925.064	13818
925.172	13670
925.279	13746
925.387	13712
925.494	13776
925.602	13841
925.709	13849
925.816	13666
925.924	13685
926.031	13833
926.138	13704
926.245	13753
926.352	13571
926.459	13761
926.566	13708
926.673	13681
926.779	13559
926.886	13411
926.993	13259
927.099	13354
927.206	13152
927.312	13293
927.419	13274
927.525	13209
927.631	13297
927.737	13095
927.843	13137
927.95	12958
928.056	13202
928.162	13012
928.267	13110
928.373	13746
928.479	13126
928.585	12977
928.69	13057
928.796	13122
928.901	12928
929.007	12776
929.112	13004
929.218	12932
929.323	12791
929.428	12745
929.533	12795
929.638	12753
929.743	12783
929.848	12772
929.953	12700
930.058	12570
930.163	12369
930.267	12429
930.372	12589
930.477	12395
930.581	12684
930.685	12410
930.79	12403
930.894	12410
930.998	12232
931.103	12388
931.207	12049
931.311	11961
931.415	11954
931.519	11707
931.623	11604
