Data from test_V78500241_2359.txt Node
Date: Fri Mar 25 15:58:08 CST 2022
User: usil
Spectrometer: V785-0024
Trigger mode: 0
Integration Time (sec): 4.000000E-1
Scans to average: 1
Nonlinearity correction enabled: false
Boxcar width: 0
Storing dark spectrum: false
XAxis mode: Wavelengths
Number of Pixels in Spectrum: 1024
>>>>>Begin Spectral Data<<<<<
801.071	29109
801.214	28980
801.356	28869
801.499	28801
801.641	28615
801.783	28839
801.926	28649
802.068	28607
802.211	28653
802.353	28626
802.496	28432
802.638	28257
802.78	28398
802.923	28261
803.065	28318
803.208	28295
803.35	28356
803.492	28306
803.635	28497
803.777	28462
803.919	28748
804.061	28972
804.204	28717
804.346	28538
804.488	28470
804.63	28500
804.773	28588
804.915	28679
805.057	28797
805.199	28615
805.341	28755
805.483	28748
805.626	28706
805.768	28717
805.91	28713
806.052	28816
806.194	28713
806.336	28930
806.478	28843
806.62	28672
806.762	29003
806.904	29136
807.046	29288
807.188	29212
807.33	29375
807.472	29353
807.614	29170
807.756	29151
807.898	29064
808.04	29102
808.182	29037
808.324	29204
808.465	29098
808.607	29242
808.749	29486
808.891	29634
809.033	29665
809.174	29444
809.316	29512
809.458	29657
809.6	29486
809.741	29516
809.883	29600
810.025	29668
810.166	29874
810.308	29790
810.45	29726
810.591	29722
810.733	29493
810.875	29459
811.016	29474
811.158	29395
811.299	29551
811.441	29718
811.582	29703
811.724	29471
811.865	29516
812.007	29619
812.148	29512
812.29	29535
812.431	29813
812.573	29790
812.714	30007
812.855	29832
812.997	30125
813.138	30224
813.279	30171
813.421	29969
813.562	29927
813.703	29870
813.845	29687
813.986	29668
814.127	29277
814.268	29250
814.41	29193
814.551	29113
814.692	29288
814.833	29083
814.974	29147
815.115	29334
815.256	29162
815.397	28961
815.539	29079
815.68	28972
815.821	29044
815.962	29044
816.103	29105
816.244	28927
816.385	28740
816.526	28778
816.666	28660
816.807	28523
816.948	28691
817.089	28615
817.23	28459
817.371	28489
817.512	28561
817.653	28504
817.793	28538
817.934	28611
818.075	28538
818.216	28557
818.356	28466
818.497	28284
818.638	28398
818.778	28265
818.919	28325
819.06	28382
819.2	28417
819.341	28489
819.481	28546
819.622	28729
819.762	28885
819.903	28858
820.043	28782
820.184	28634
820.324	28744
820.465	28790
820.605	28744
820.746	28668
820.886	28637
821.026	28653
821.167	28656
821.307	28725
821.447	28561
821.588	28428
821.728	28261
821.868	28177
822.008	28124
822.149	28036
822.289	27968
822.429	27857
822.569	27854
822.709	27778
822.849	27675
822.99	27538
823.13	27511
823.27	27511
823.41	27447
823.55	27230
823.69	27431
823.83	27321
823.97	27321
824.11	27142
824.25	27024
824.389	27230
824.529	27169
824.669	27161
824.809	27321
824.949	27351
825.089	27237
825.228	27230
825.368	27100
825.508	26963
825.648	27157
825.787	27142
825.927	27157
826.067	27165
826.206	27150
826.346	27089
826.485	27062
826.625	27081
826.765	27188
826.904	27157
827.044	26853
827.183	26883
827.323	26849
827.462	26948
827.601	26845
827.741	26804
827.88	26834
828.02	26769
828.159	26678
828.298	26937
828.437	26887
828.577	26701
828.716	26864
828.855	26735
828.994	26438
829.134	26530
829.273	26476
829.412	26374
829.551	26347
829.69	26511
829.829	26552
829.968	26495
830.107	26609
830.246	26434
830.385	26499
830.524	26370
830.663	26278
830.802	26046
830.941	26050
831.08	26130
831.219	26168
831.357	26096
831.496	26275
831.635	26069
831.774	26027
831.913	25997
832.051	25970
832.19	25898
832.329	25959
832.467	25693
832.606	25742
832.744	25795
832.883	25803
833.022	25723
833.16	25734
833.299	25723
833.437	25655
833.576	25742
833.714	25845
833.852	25841
833.991	25913
834.129	25826
834.267	25966
834.406	25830
834.544	25799
834.682	25909
834.821	25761
834.959	25791
835.097	25575
835.235	25898
835.373	25799
835.511	25761
835.65	25571
835.788	25685
835.926	25499
836.064	25419
836.202	25460
836.34	25510
836.478	25750
836.615	25533
836.753	25616
836.891	25658
837.029	25712
837.167	25441
837.305	25441
837.443	25403
837.58	25365
837.718	25449
837.856	25377
837.993	25335
838.131	25339
838.269	25400
838.406	25320
838.544	25225
838.681	25183
838.819	24970
838.956	24856
839.094	24901
839.231	24890
839.369	25156
839.506	25240
839.643	25320
839.781	24894
839.918	24962
840.055	24992
840.193	24909
840.33	24840
840.467	24776
840.604	24817
840.742	25008
840.879	24772
841.016	24559
841.153	24726
841.29	24867
841.427	24791
841.564	24783
841.701	24840
841.838	24673
841.975	24585
842.112	24658
842.249	24646
842.385	24456
842.522	24734
842.659	24707
842.796	24582
842.933	24570
843.069	24627
843.206	24426
843.343	24460
843.479	24532
843.616	24597
843.752	24315
843.889	24327
844.025	24574
844.162	24350
844.298	24475
844.435	24220
844.571	24346
844.708	24452
844.844	24536
844.98	24486
845.117	24403
845.253	24270
845.389	24133
845.525	24171
845.661	24311
845.798	24087
845.934	24190
846.07	24064
846.206	24098
846.342	24296
846.478	24038
846.614	23843
846.75	23699
846.886	23710
847.022	23813
847.158	23714
847.294	23817
847.429	23882
847.565	23802
847.701	23874
847.837	23463
847.972	23531
848.108	23638
848.244	23627
848.379	23395
848.515	23337
848.65	23284
848.786	23395
848.921	23277
849.057	23448
849.192	23425
849.328	23414
849.463	23376
849.598	23372
849.734	23273
849.869	23178
850.004	23121
850.14	23242
850.275	23086
850.41	23200
850.545	22972
850.68	22980
850.815	23284
850.95	23124
851.085	23383
851.22	23239
851.355	23200
851.49	23102
851.625	23094
851.76	23003
851.895	23052
852.03	23102
852.165	23254
852.299	23090
852.434	23223
852.569	23223
852.703	23124
852.838	23220
852.973	23269
853.107	23174
853.242	23052
853.376	22953
853.511	22915
853.645	22942
853.78	23044
853.914	22938
854.048	22957
854.183	22908
854.317	22900
854.451	23170
854.585	22995
854.72	22946
854.854	23079
854.988	22782
855.122	23006
855.256	22763
855.39	22908
855.524	23006
855.658	22869
855.792	22972
855.926	22987
856.06	23022
856.194	22999
856.327	22980
856.461	22919
856.595	22919
856.729	22904
856.862	23003
856.996	22987
857.13	23056
857.263	23086
857.397	23090
857.53	22908
857.664	22965
857.797	22911
857.931	23132
858.064	23048
858.197	23136
858.331	22991
858.464	22801
858.597	22858
858.731	23029
858.864	22911
858.997	22896
859.13	22949
859.263	22915
859.396	23075
859.529	22736
859.662	22839
859.795	22961
859.928	22995
860.061	23086
860.194	23109
860.327	22987
860.46	23098
860.592	22984
860.725	23132
860.858	22930
860.99	22923
861.123	22877
861.256	22839
861.388	23060
861.521	23596
861.653	22828
861.786	22767
861.918	22759
862.05	22824
862.183	22889
862.315	22968
862.447	22923
862.58	22805
862.712	22561
862.844	22557
862.976	22816
863.108	22805
863.24	23094
863.372	22645
863.504	22561
863.636	22687
863.768	22725
863.9	22675
864.032	22447
864.164	22637
864.296	22691
864.428	22698
864.559	22790
864.691	22694
864.823	22546
864.954	22622
865.086	22672
865.217	22497
865.349	22455
865.48	22500
865.612	22523
865.743	22596
865.875	22535
866.006	22386
866.137	22546
866.269	22500
866.4	22611
866.531	22535
866.662	22322
866.793	22432
866.924	22538
867.055	22474
867.186	22390
867.317	22447
867.448	22348
867.579	22421
867.71	22333
867.841	22417
867.972	22409
868.103	22360
868.233	22421
868.364	22447
868.495	22451
868.625	22645
868.756	22717
868.886	22550
869.017	22660
869.147	22805
869.278	22877
869.408	22778
869.539	22637
869.669	22908
869.799	22725
869.929	22630
870.06	22778
870.19	23075
870.32	22873
870.45	23052
870.58	22942
870.71	23193
870.84	23075
870.97	23102
871.1	22908
871.23	23292
871.36	23292
871.489	23197
871.619	23242
871.749	23185
871.879	23303
872.008	23387
872.138	23212
872.267	23353
872.397	23102
872.526	23098
872.656	23071
872.785	23052
872.915	23200
873.044	23250
873.173	23337
873.303	23250
873.432	23459
873.561	23341
873.69	23181
873.819	23151
873.948	23490
874.077	23307
874.206	23353
874.335	23235
874.464	23471
874.593	23528
874.722	23467
874.851	23547
874.979	23463
875.108	23543
875.237	23440
875.365	23482
875.494	23455
875.623	23543
875.751	23463
875.88	23429
876.008	23665
876.136	23745
876.265	23828
876.393	23961
876.521	23965
876.65	23927
876.778	23809
876.906	23756
877.034	23687
877.162	23745
877.29	23790
877.418	23790
877.546	23897
877.674	23840
877.802	23851
877.93	23859
878.058	23790
878.185	23729
878.313	23707
878.441	23779
878.568	23661
878.696	23786
878.824	23748
878.951	23878
879.079	24026
879.206	24182
879.333	23920
879.461	23882
879.588	23950
879.715	23973
879.842	24110
879.97	23954
880.097	23512
880.224	23699
880.351	23756
880.478	23531
880.605	23592
880.732	23691
880.859	23901
880.986	23687
881.112	23665
881.239	23608
881.366	23368
881.493	23197
881.619	23235
881.746	23296
881.872	23208
881.999	23216
882.125	23044
882.252	23223
882.378	23223
882.505	23223
882.631	23109
882.757	23022
882.883	22957
883.01	22896
883.136	22847
883.262	22656
883.388	22759
883.514	22816
883.64	22987
883.766	22839
883.892	22611
884.018	22603
884.143	22755
884.269	22839
884.395	22554
884.52	22440
884.646	22542
884.772	22360
884.897	22398
885.023	22523
885.148	22615
885.274	22565
885.399	22584
885.524	22390
885.65	22500
885.775	22569
885.9	22405
886.025	22641
886.15	22535
886.275	22481
886.4	22287
886.525	22360
886.65	22379
886.775	22466
886.9	22546
887.025	22729
887.149	22375
887.274	22333
887.399	22276
887.523	22082
887.648	22238
887.773	22070
887.897	22432
888.021	22238
888.146	22280
888.27	22207
888.395	22337
888.519	22234
888.643	22185
888.767	22280
888.891	22143
889.015	22101
889.139	22131
889.263	22078
889.387	22169
889.511	22196
889.635	22162
889.759	22032
889.883	22010
890.006	21998
890.13	22040
890.254	21915
890.377	21960
890.501	21785
890.624	21686
890.748	21781
890.871	21648
890.995	21625
891.118	21599
891.241	21526
891.364	21523
891.488	21679
891.611	21542
891.734	21545
891.857	21660
891.98	21599
892.103	21603
892.226	21534
892.349	21583
892.471	21336
892.594	21545
892.717	21542
892.839	21355
892.962	21408
893.085	21580
893.207	21420
893.33	21389
893.452	21397
893.575	21572
893.697	21439
893.819	21595
893.941	21797
894.064	21572
894.186	21393
894.308	21374
894.43	21443
894.552	21572
894.674	21492
894.796	21473
894.918	21454
895.04	21370
895.161	21530
895.283	21515
895.405	21355
895.526	21496
895.648	21492
895.769	21401
895.891	21412
896.012	21458
896.134	21405
896.255	21443
896.376	21370
896.498	21488
896.619	21420
896.74	21424
896.861	21473
896.982	21831
897.103	21972
897.224	21747
897.345	21644
897.466	21500
897.587	21652
897.708	21831
897.828	21652
897.949	21526
898.07	21477
898.19	21526
898.311	21656
898.431	21530
898.552	21583
898.672	21675
898.792	21682
898.913	21637
899.033	21549
899.153	21428
899.273	21363
899.393	21310
899.513	21378
899.633	21340
899.753	21416
899.873	21283
899.993	21340
900.113	21283
900.232	21412
900.352	21195
900.472	21146
900.591	21058
900.711	21154
900.83	20979
900.95	21192
901.069	21207
901.189	21093
901.308	20781
901.427	20830
901.546	20754
901.665	20720
901.784	20663
901.904	20549
902.023	20374
902.141	20282
902.26	20347
902.379	20202
902.498	20210
902.617	20115
902.735	20210
902.854	20100
902.973	20183
903.091	19822
903.21	19849
903.328	19822
903.446	19769
903.565	19681
903.683	19689
903.801	19483
903.919	19597
904.038	19559
904.156	19419
904.274	19506
904.392	19396
904.51	19396
904.627	19308
904.745	19316
904.863	19324
904.981	19190
905.098	19046
905.216	18989
905.334	19091
905.451	19145
905.569	18909
905.686	19072
905.803	19057
905.921	18894
906.038	18867
906.155	18890
906.272	18764
906.389	18700
906.506	18654
906.623	18585
906.74	18551
906.857	18410
906.974	18506
907.091	18631
907.208	18635
907.324	18563
907.441	18391
907.557	18361
907.674	18224
907.79	18228
907.907	18228
908.023	18273
908.139	18376
908.256	18308
908.372	18228
908.488	18091
908.604	18095
908.72	17958
908.836	18076
908.952	17977
909.068	18011
909.184	18057
909.3	17931
909.415	18022
909.531	17961
909.647	17756
909.762	17676
909.878	17600
909.993	17684
910.108	17596
910.224	17653
910.339	17672
910.454	17505
910.57	17486
910.685	17349
910.8	17699
910.915	17589
911.03	17493
911.145	17299
911.259	17174
911.374	17231
911.489	17170
911.604	17185
911.718	17010
911.833	17045
911.947	16919
912.062	16896
912.176	17052
912.291	17025
912.405	16934
912.519	17208
912.633	17280
912.748	16995
912.862	16927
912.976	16850
913.09	16774
913.204	16763
913.318	16767
913.431	16896
913.545	16805
913.659	16831
913.772	16801
913.886	16550
914	16573
914.113	16645
914.226	16713
914.34	16596
914.453	16405
914.566	16519
914.68	16500
914.793	16379
914.906	16242
915.019	16181
915.132	16139
915.245	16131
915.358	16074
915.47	16147
915.583	16226
915.696	16112
915.809	16181
915.921	16177
916.034	16055
916.146	16055
916.259	15945
916.371	16139
916.483	16025
916.595	15953
916.708	15960
916.82	15953
916.932	15804
917.044	15968
917.156	15846
917.268	15656
917.38	15873
917.491	15724
917.603	15713
917.715	15778
917.826	15812
917.938	15648
918.049	15553
918.161	15652
918.272	15800
918.384	15789
918.495	15720
918.606	15595
918.717	15462
918.828	15454
918.939	15526
919.05	15408
919.161	15370
919.272	15283
919.383	15260
919.494	15477
919.604	15694
919.715	15526
919.826	15412
919.936	15485
920.047	15595
920.157	15420
920.267	15599
920.378	15416
920.488	15332
920.598	15587
920.708	15736
920.818	15625
920.928	15610
921.038	15622
921.148	15667
921.258	15424
921.368	15374
921.477	15245
921.587	15146
921.697	14948
921.806	15123
921.916	14956
922.025	14785
922.134	14708
922.244	14727
922.353	14807
922.462	14712
922.571	14537
922.68	14537
922.789	14423
922.898	14286
923.007	14347
923.116	14495
923.224	14408
923.333	14381
923.442	14298
923.55	14168
923.659	14305
923.767	14278
923.876	14225
923.984	14282
924.092	14142
924.201	14123
924.309	14138
924.417	14153
924.525	14027
924.633	14103
924.741	15028
924.849	13818
924.956	13871
925.064	13894
925.172	13727
925.279	13727
925.387	13883
925.494	13852
925.602	13944
925.709	13944
925.816	13677
925.924	13757
926.031	13765
926.138	13662
926.245	13780
926.352	13556
926.459	13685
926.566	13830
926.673	13674
926.779	13525
926.886	13525
926.993	13419
927.099	13289
927.206	13228
927.312	13358
927.419	13358
927.525	13297
927.631	13282
927.737	13251
927.843	13046
927.95	13126
928.056	13183
928.162	13114
928.267	13194
928.373	13803
928.479	13129
928.585	12939
928.69	13046
928.796	13057
928.901	13057
929.007	12875
929.112	12970
929.218	13012
929.323	12837
929.428	12863
929.533	12852
929.638	12753
929.743	12795
929.848	12798
929.953	12791
930.058	12745
930.163	12566
930.267	12525
930.372	12604
930.477	12494
930.581	12715
930.685	12574
930.79	12376
930.894	12433
930.998	12285
931.103	12521
931.207	12114
931.311	12057
931.415	11996
931.519	11688
931.623	11764
