Data from test_V78500241_1957.txt Node
Date: Fri Mar 25 15:55:21 CST 2022
User: usil
Spectrometer: V785-0024
Trigger mode: 0
Integration Time (sec): 4.000000E-1
Scans to average: 1
Nonlinearity correction enabled: false
Boxcar width: 0
Storing dark spectrum: false
XAxis mode: Wavelengths
Number of Pixels in Spectrum: 1024
>>>>>Begin Spectral Data<<<<<
801.071	28653
801.214	28645
801.356	28375
801.499	28367
801.641	28238
801.783	28242
801.926	28249
802.068	28105
802.211	28173
802.353	28181
802.496	27972
802.638	27778
802.78	27903
802.923	27869
803.065	27884
803.208	27869
803.35	27998
803.492	28093
803.635	27987
803.777	27987
803.919	28154
804.061	28481
804.204	28181
804.346	28101
804.488	28086
804.63	28082
804.773	27987
804.915	28086
805.057	28200
805.199	28169
805.341	28234
805.483	28440
805.626	28265
805.768	28246
805.91	28295
806.052	28196
806.194	28223
806.336	28470
806.478	28306
806.62	28177
806.762	28394
806.904	28607
807.046	28953
807.188	28675
807.33	28729
807.472	28790
807.614	28744
807.756	28554
807.898	28626
808.04	28630
808.182	28360
808.324	28599
808.465	28698
808.607	28801
808.749	28911
808.891	28911
809.033	29090
809.174	29079
809.316	28923
809.458	28923
809.6	28953
809.741	29105
809.883	28972
810.025	29197
810.166	29303
810.308	29292
810.45	29174
810.591	29242
810.733	28942
810.875	28869
811.016	28850
811.158	28942
811.299	29060
811.441	29181
811.582	29155
811.724	28927
811.865	28961
812.007	28877
812.148	29044
812.29	29079
812.431	29094
812.573	29258
812.714	29398
812.855	29482
812.997	29539
813.138	29589
813.279	29684
813.421	29543
813.562	29501
813.703	29433
813.845	29174
813.986	28999
814.127	28790
814.268	28626
814.41	28759
814.551	28649
814.692	28702
814.833	28599
814.974	28523
815.115	28630
815.256	28569
815.397	28470
815.539	28401
815.68	28577
815.821	28497
815.962	28500
816.103	28405
816.244	28470
816.385	28192
816.526	28341
816.666	28105
816.807	28078
816.948	27949
817.089	28067
817.23	27983
817.371	27926
817.512	27918
817.653	28040
817.793	27895
817.934	27873
818.075	27953
818.216	27960
818.356	27941
818.497	27876
818.638	27629
818.778	27629
818.919	27660
819.06	27808
819.2	27846
819.341	28002
819.481	28002
819.622	28067
819.762	28470
819.903	28204
820.043	28067
820.184	27983
820.324	27998
820.465	28101
820.605	28078
820.746	28147
820.886	28036
821.026	28082
821.167	28074
821.307	28112
821.447	28070
821.588	27895
821.728	27759
821.868	27701
822.008	27348
822.149	27443
822.289	27462
822.429	27184
822.569	27089
822.709	27123
822.849	26845
822.99	26952
823.13	26967
823.27	26929
823.41	26678
823.55	26590
823.69	26804
823.83	26838
823.97	26804
824.11	26617
824.25	26579
824.389	26613
824.529	26579
824.669	26655
824.809	26594
824.949	26678
825.089	26693
825.228	26762
825.368	26469
825.508	26412
825.648	26400
825.787	26484
825.927	26556
826.067	26408
826.206	26473
826.346	26514
826.485	26393
826.625	26453
826.765	26640
826.904	26499
827.044	26221
827.183	26142
827.323	26244
827.462	26271
827.601	26229
827.741	26256
827.88	26145
828.02	26039
828.159	26191
828.298	26142
828.437	26153
828.577	26153
828.716	26381
828.855	26081
828.994	25788
829.134	25784
829.273	25989
829.412	25955
829.551	25784
829.69	25776
829.829	25909
829.968	26031
830.107	25906
830.246	25849
830.385	25761
830.524	25693
830.663	25689
830.802	25483
830.941	25533
831.08	25540
831.219	25540
831.357	25540
831.496	25685
831.635	25559
831.774	25369
831.913	25479
832.051	25183
832.19	25232
832.329	25278
832.467	25110
832.606	25107
832.744	25069
832.883	25141
833.022	25141
833.16	25175
833.299	25209
833.437	25198
833.576	25240
833.714	25217
833.852	25316
833.991	25308
834.129	25396
834.267	25369
834.406	25160
834.544	25259
834.682	25327
834.821	25069
834.959	25312
835.097	25118
835.235	25308
835.373	25194
835.511	25240
835.65	25038
835.788	25023
835.926	25099
836.064	24992
836.202	24962
836.34	25076
836.478	25152
836.615	24901
836.753	25095
836.891	25103
837.029	24985
837.167	24951
837.305	24989
837.443	24821
837.58	24852
837.718	24958
837.856	24886
837.993	24817
838.131	24810
838.269	24734
838.406	24810
838.544	24665
838.681	24418
838.819	24502
838.956	24361
839.094	24384
839.231	24330
839.369	24582
839.506	24730
839.643	24574
839.781	24391
839.918	24232
840.055	24342
840.193	24346
840.33	24277
840.467	24213
840.604	24266
840.742	24365
840.879	24106
841.016	24178
841.153	24026
841.29	24235
841.427	24209
841.564	24178
841.701	24182
841.838	24239
841.975	24087
842.112	24064
842.249	24167
842.385	23958
842.522	24068
842.659	24038
842.796	24057
842.933	23863
843.069	23904
843.206	23965
843.343	24114
843.479	23916
843.616	24182
843.752	23653
843.889	23779
844.025	23889
844.162	23786
844.298	23855
844.435	23767
844.571	23649
844.708	23767
844.844	23874
844.98	23821
845.117	23783
845.253	23737
845.389	23661
845.525	23615
845.661	23543
845.798	23471
845.934	23490
846.07	23360
846.206	23524
846.342	23516
846.478	23436
846.614	23284
846.75	23235
846.886	23189
847.022	23417
847.158	23212
847.294	23212
847.429	23311
847.565	23395
847.701	23334
847.837	22999
847.972	22812
848.108	23102
848.244	23037
848.379	22752
848.515	22664
848.65	22790
848.786	22828
848.921	22755
849.057	22949
849.192	22946
849.328	22675
849.463	22797
849.598	22797
849.734	22687
849.869	22713
850.004	22557
850.14	22634
850.275	22516
850.41	22451
850.545	22516
850.68	22455
850.815	22535
850.95	22546
851.085	22752
851.22	22599
851.355	22626
851.49	22516
851.625	22535
851.76	22561
851.895	22459
852.03	22527
852.165	22542
852.299	22603
852.434	22550
852.569	22656
852.703	22504
852.838	22599
852.973	22763
853.107	22637
853.242	22516
853.376	22424
853.511	22295
853.645	22314
853.78	22546
853.914	22424
854.048	22436
854.183	22360
854.317	22428
854.451	22421
854.585	22481
854.72	22325
854.854	22481
854.988	22367
855.122	22348
855.256	22234
855.39	22333
855.524	22428
855.658	22485
855.792	22344
855.926	22523
856.06	22436
856.194	22405
856.327	22436
856.461	22436
856.595	22360
856.729	22398
856.862	22371
856.996	22375
857.13	22557
857.263	22485
857.397	22303
857.53	22379
857.664	22344
857.797	22390
857.931	22531
858.064	22333
858.197	22512
858.331	22303
858.464	22299
858.597	22276
858.731	22352
858.864	22367
858.997	22371
859.13	22409
859.263	22322
859.396	22538
859.529	22363
859.662	22272
859.795	22303
859.928	22299
860.061	22611
860.194	22538
860.327	22428
860.46	22341
860.592	22451
860.725	22455
860.858	22489
860.99	22371
861.123	22238
861.256	22284
861.388	22276
861.521	23197
861.653	22109
861.786	22135
861.918	22356
862.05	22215
862.183	22337
862.315	22325
862.447	22455
862.58	22325
862.712	22105
862.844	22051
862.976	22185
863.108	22169
863.24	22500
863.372	22101
863.504	22051
863.636	22044
863.768	22032
863.9	21937
864.032	22051
864.164	21987
864.296	22162
864.428	22177
864.559	22166
864.691	22074
864.823	22112
864.954	22059
865.086	22063
865.217	21983
865.349	21922
865.48	21926
865.612	21941
865.743	22067
865.875	21903
866.006	21941
866.137	21937
866.269	21880
866.4	21854
866.531	21838
866.662	21865
866.793	21823
866.924	21915
867.055	21827
867.186	21907
867.317	21884
867.448	21842
867.579	21846
867.71	21739
867.841	21743
867.972	21831
868.103	22029
868.233	21857
868.364	21884
868.495	21838
868.625	22078
868.756	22234
868.886	22029
869.017	22154
869.147	22166
869.278	22238
869.408	22169
869.539	22086
869.669	22242
869.799	22154
869.929	22249
870.06	22215
870.19	22443
870.32	22497
870.45	22493
870.58	22519
870.71	22721
870.84	22538
870.97	22459
871.1	22630
871.23	22599
871.36	22641
871.489	22538
871.619	22584
871.749	22660
871.879	22717
872.008	22915
872.138	22717
872.267	22774
872.397	22641
872.526	22474
872.656	22390
872.785	22542
872.915	22919
873.044	22782
873.173	22820
873.303	22797
873.432	22748
873.561	22866
873.69	22683
873.819	22736
873.948	22843
874.077	22721
874.206	22634
874.335	22691
874.464	22782
874.593	22877
874.722	22942
874.851	22961
874.979	22927
875.108	22820
875.237	22793
875.365	22850
875.494	22850
875.623	23041
875.751	22923
875.88	23052
876.008	23083
876.136	22984
876.265	23296
876.393	23425
876.521	23433
876.65	23379
876.778	23280
876.906	23265
877.034	23368
877.162	23360
877.29	23204
877.418	23330
877.546	23322
877.674	23322
877.802	23307
877.93	23372
878.058	23200
878.185	23147
878.313	23296
878.441	23250
878.568	23246
878.696	23193
878.824	23299
878.951	23345
879.079	23516
879.206	23509
879.333	23368
879.461	23189
879.588	23258
879.715	23364
879.842	23471
879.97	23406
880.097	23121
880.224	23151
880.351	23197
880.478	23174
880.605	23075
880.732	23056
880.859	23307
880.986	23155
881.112	23109
881.239	23067
881.366	23033
881.493	22740
881.619	22687
881.746	22755
881.872	22622
881.999	22702
882.125	22672
882.252	22797
882.378	22706
882.505	22778
882.631	22550
882.757	22466
882.883	22375
883.01	22470
883.136	22249
883.262	22272
883.388	22097
883.514	22261
883.64	22318
883.766	22318
883.892	22192
884.018	22097
884.143	22344
884.269	22493
884.395	22093
884.52	21930
884.646	22002
884.772	21907
884.897	21823
885.023	22040
885.148	22070
885.274	22120
885.399	22055
885.524	22036
885.65	22048
885.775	21949
885.9	21991
886.025	21956
886.15	22082
886.275	21964
886.4	21899
886.525	22040
886.65	21911
886.775	21953
886.9	22044
887.025	22211
887.149	21934
887.274	21808
887.399	21709
887.523	21675
887.648	21759
887.773	21663
887.897	21747
888.021	21755
888.146	21755
888.27	21819
888.395	21846
888.519	21869
888.643	21762
888.767	21800
888.891	21648
889.015	21507
889.139	21568
889.263	21466
889.387	21648
889.511	21618
889.635	21618
889.759	21534
889.883	21515
890.006	21500
890.13	21648
890.254	21530
890.377	21428
890.501	21272
890.624	21150
890.748	21351
890.871	21207
890.995	21150
891.118	21089
891.241	21199
891.364	21173
891.488	21127
891.611	20990
891.734	21001
891.857	21131
891.98	21127
892.103	21165
892.226	21077
892.349	20971
892.471	20864
892.594	21013
892.717	21055
892.839	20861
892.962	20990
893.085	21024
893.207	21005
893.33	20826
893.452	20743
893.575	21017
893.697	20918
893.819	21237
893.941	21214
894.064	21142
894.186	20918
894.308	20891
894.43	21009
894.552	21146
894.674	20952
894.796	20975
894.918	21028
895.04	20868
895.161	21020
895.283	21051
895.405	20891
895.526	21017
895.648	20941
895.769	21058
895.891	20941
896.012	21036
896.134	21043
896.255	21009
896.376	20906
896.498	21036
896.619	20948
896.74	20982
896.861	21074
896.982	21306
897.103	21473
897.224	21294
897.345	21089
897.466	21138
897.587	21138
897.708	21233
897.828	21096
897.949	21119
898.07	21112
898.19	21066
898.311	21245
898.431	21100
898.552	21062
898.672	21294
898.792	21252
898.913	21074
899.033	21081
899.153	21043
899.273	20796
899.393	20765
899.513	20952
899.633	20895
899.753	20929
899.873	20804
899.993	20925
900.113	20765
900.232	20830
900.352	20880
900.472	20739
900.591	20640
900.711	20701
900.83	20670
900.95	20746
901.069	20773
901.189	20579
901.308	20294
901.427	20267
901.546	20138
901.665	20271
901.784	20419
901.904	20035
902.023	20050
902.141	19723
902.26	19799
902.379	19780
902.498	19803
902.617	19605
902.735	19826
902.854	19708
902.973	19647
903.091	19400
903.21	19365
903.328	19430
903.446	19327
903.565	19137
903.683	19263
903.801	19080
903.919	19164
904.038	19209
904.156	19050
904.274	19110
904.392	19000
904.51	18954
904.627	18920
904.745	18970
904.863	19038
904.981	18768
905.098	18563
905.216	18490
905.334	18646
905.451	18715
905.569	18696
905.686	18623
905.803	18623
905.921	18467
906.038	18418
906.155	18486
906.272	18323
906.389	18323
906.506	18140
906.623	18167
906.74	18232
906.857	18007
906.974	17988
907.091	18197
907.208	18247
907.324	18209
907.441	18011
907.557	17908
907.674	17859
907.79	17695
907.907	17821
908.023	17878
908.139	17813
908.256	17752
908.372	17733
908.488	17741
908.604	17585
908.72	17634
908.836	17634
908.952	17486
909.068	17630
909.184	17600
909.3	17573
909.415	17581
909.531	17634
909.647	17216
909.762	17181
909.878	17208
909.993	17269
910.108	17147
910.224	17254
910.339	17098
910.454	16999
910.57	17220
910.685	17037
910.8	17330
910.915	17220
911.03	17090
911.145	16946
911.259	16900
911.374	16767
911.489	16755
911.604	16698
911.718	16542
911.833	16603
911.947	16451
912.062	16538
912.176	16683
912.291	16527
912.405	16554
912.519	16835
912.633	16816
912.748	16599
912.862	16550
912.976	16417
913.09	16223
913.204	16299
913.318	16405
913.431	16432
913.545	16481
913.659	16432
913.772	16314
913.886	16154
914	16101
914.113	16230
914.226	16352
914.34	16238
914.453	16051
914.566	16150
914.68	16021
914.793	15972
914.906	15892
915.019	15663
915.132	15694
915.245	15759
915.358	15785
915.47	15747
915.583	15762
915.696	15785
915.809	15888
915.921	15930
916.034	15789
916.146	15705
916.259	15644
916.371	15705
916.483	15797
916.595	15606
916.708	15572
916.82	15656
916.932	15568
917.044	15450
917.156	15485
917.268	15492
917.38	15526
917.491	15367
917.603	15382
917.715	15500
917.826	15519
917.938	15332
918.049	15279
918.161	15408
918.272	15439
918.384	15454
918.495	15275
918.606	15218
918.717	15142
918.828	15154
918.939	15173
919.05	15108
919.161	15142
919.272	14853
919.383	15020
919.494	15135
919.604	15294
919.715	15112
919.826	14975
919.936	15005
920.047	15150
920.157	15104
920.267	15256
920.378	15123
920.488	15036
920.598	15389
920.708	15359
920.818	15169
920.928	15173
921.038	15382
921.148	15283
921.258	15062
921.368	14963
921.477	14781
921.587	14739
921.697	14708
921.806	14800
921.916	14720
922.025	14522
922.134	14575
922.244	14332
922.353	14537
922.462	14362
922.571	14267
922.68	14187
922.789	14054
922.898	14161
923.007	14008
923.116	14100
923.224	14046
923.333	14069
923.442	13940
923.55	13917
923.659	13955
923.767	13947
923.876	13902
923.984	13932
924.092	13795
924.201	13830
924.309	13746
924.417	13772
924.525	13738
924.633	13852
924.741	14598
924.849	13559
924.956	13700
925.064	13472
925.172	13384
925.279	13453
925.387	13552
925.494	13426
925.602	13655
925.709	13487
925.816	13373
925.924	13480
926.031	13464
926.138	13419
926.245	13453
926.352	13324
926.459	13460
926.566	13449
926.673	13324
926.779	13213
926.886	13297
926.993	13050
927.099	12973
927.206	13050
927.312	13095
927.419	13069
927.525	13091
927.631	13008
927.737	12901
927.843	12871
927.95	12806
928.056	12757
928.162	12783
928.267	12844
928.373	13464
928.479	12916
928.585	12711
928.69	12696
928.796	12753
928.901	12688
929.007	12498
929.112	12681
929.218	12513
929.323	12578
929.428	12612
929.533	12681
929.638	12433
929.743	12517
929.848	12467
929.953	12559
930.058	12410
930.163	12243
930.267	12243
930.372	12243
930.477	12117
930.581	12353
930.685	12190
930.79	12087
930.894	12129
930.998	12057
931.103	12201
931.207	11893
931.311	11745
931.415	11699
931.519	11493
931.623	11417
