Data from test_V78500241_3714.txt Node
Date: Fri Mar 25 16:07:31 CST 2022
User: usil
Spectrometer: V785-0024
Trigger mode: 0
Integration Time (sec): 4.000000E-1
Scans to average: 1
Nonlinearity correction enabled: false
Boxcar width: 0
Storing dark spectrum: false
XAxis mode: Wavelengths
Number of Pixels in Spectrum: 1024
>>>>>Begin Spectral Data<<<<<
801.071	27968
801.214	28044
801.356	27941
801.499	27675
801.641	27530
801.783	27648
801.926	27808
802.068	27667
802.211	27557
802.353	27473
802.496	27386
802.638	27313
802.78	27329
802.923	27283
803.065	27340
803.208	27192
803.35	27370
803.492	27473
803.635	27504
803.777	27435
803.919	27557
804.061	27949
804.204	27587
804.346	27458
804.488	27412
804.63	27553
804.773	27614
804.915	27618
805.057	27587
805.199	27401
805.341	27675
805.483	27538
805.626	27603
805.768	27686
805.91	27705
806.052	27686
806.194	27667
806.336	27888
806.478	27713
806.62	27698
806.762	27873
806.904	28048
807.046	28287
807.188	28048
807.33	28139
807.472	28070
807.614	28139
807.756	28261
807.898	27869
808.04	28017
808.182	27842
808.324	27968
808.465	28010
808.607	28238
808.749	28390
808.891	28371
809.033	28398
809.174	28257
809.316	28413
809.458	28333
809.6	28348
809.741	28401
809.883	28405
810.025	28637
810.166	28656
810.308	28565
810.45	28546
810.591	28531
810.733	28322
810.875	28333
811.016	28257
811.158	28219
811.299	28462
811.441	28394
811.582	28489
811.724	28577
811.865	28223
812.007	28455
812.148	28417
812.29	28265
812.431	28489
812.573	28767
812.714	28744
812.855	28736
812.997	28972
813.138	29037
813.279	28991
813.421	28862
813.562	28740
813.703	28786
813.845	28702
813.986	28337
814.127	28048
814.268	27956
814.41	28097
814.551	28097
814.692	28139
814.833	27998
814.974	27949
815.115	28059
815.256	27926
815.397	27861
815.539	27861
815.68	27694
815.821	27850
815.962	27903
816.103	27789
816.244	27648
816.385	27679
816.526	27622
816.666	27412
816.807	27184
816.948	27355
817.089	27454
817.23	27431
817.371	27416
817.512	27112
817.653	27405
817.793	27389
817.934	27431
818.075	27363
818.216	27283
818.356	27313
818.497	27222
818.638	27024
818.778	27146
818.919	27252
819.06	27165
819.2	27180
819.341	27226
819.481	27291
819.622	27523
819.762	27709
819.903	27629
820.043	27618
820.184	27469
820.324	27568
820.465	27542
820.605	27450
820.746	27583
820.886	27454
821.026	27424
821.167	27344
821.307	27549
821.447	27416
821.588	27264
821.728	27096
821.868	26933
822.008	26807
822.149	26857
822.289	26819
822.429	26522
822.569	26396
822.709	26560
822.849	26347
822.99	26366
823.13	26301
823.27	26412
823.41	26206
823.55	25959
823.69	26168
823.83	26031
823.97	26107
824.11	25890
824.25	25879
824.389	25997
824.529	26024
824.669	25982
824.809	26069
824.949	26062
825.089	25921
825.228	25871
825.368	25700
825.508	25894
825.648	25864
825.787	25906
825.927	25833
826.067	25772
826.206	25791
826.346	25890
826.485	25940
826.625	25940
826.765	25925
826.904	25856
827.044	25639
827.183	25670
827.323	25578
827.462	25533
827.601	25624
827.741	25613
827.88	25544
828.02	25426
828.159	25369
828.298	25643
828.437	25635
828.577	25518
828.716	25681
828.855	25384
828.994	25232
829.134	25206
829.273	25343
829.412	25282
829.551	25072
829.69	25160
829.829	25285
829.968	25384
830.107	25251
830.246	25259
830.385	25012
830.524	25133
830.663	25107
830.802	24989
830.941	24897
831.08	24738
831.219	24806
831.357	24905
831.496	25198
831.635	24814
831.774	24882
831.913	24795
832.051	24730
832.19	24563
832.329	24700
832.467	24498
832.606	24445
832.744	24437
832.883	24620
833.022	24426
833.16	24544
833.299	24532
833.437	24601
833.576	24555
833.714	24483
833.852	24677
833.991	24741
834.129	24665
834.267	24623
834.406	24734
834.544	24681
834.682	24547
834.821	24650
834.959	24837
835.097	24479
835.235	24608
835.373	24585
835.511	24517
835.65	24505
835.788	24479
835.926	24353
836.064	24235
836.202	24205
836.34	24273
836.478	24483
836.615	24399
836.753	24388
836.891	24452
837.029	24410
837.167	24490
837.305	24285
837.443	24315
837.58	24289
837.718	24262
837.856	24323
837.993	24197
838.131	24273
838.269	24194
838.406	24083
838.544	23999
838.681	23950
838.819	23901
838.956	23756
839.094	23680
839.231	23824
839.369	23980
839.506	24045
839.643	23878
839.781	23874
839.918	23676
840.055	23649
840.193	23592
840.33	23714
840.467	23630
840.604	23783
840.742	23988
840.879	23429
841.016	23535
841.153	23471
841.29	23745
841.427	23691
841.564	23512
841.701	23684
841.838	23490
841.975	23524
842.112	23562
842.249	23452
842.385	23497
842.522	23676
842.659	23497
842.796	23376
842.933	23376
843.069	23277
843.206	23330
843.343	23433
843.479	23334
843.616	23326
843.752	23239
843.889	23307
844.025	23273
844.162	23067
844.298	23277
844.435	23094
844.571	23102
844.708	23235
844.844	23395
844.98	23258
845.117	23315
845.253	23132
845.389	23037
845.525	23052
845.661	22976
845.798	23094
845.934	22896
846.07	22885
846.206	23025
846.342	23029
846.478	23006
846.614	22713
846.75	22592
846.886	22634
847.022	22573
847.158	22603
847.294	22691
847.429	22767
847.565	22546
847.701	22786
847.837	22341
847.972	22390
848.108	22402
848.244	22337
848.379	22272
848.515	22169
848.65	22234
848.786	22223
848.921	22219
849.057	22268
849.192	22215
849.328	22207
849.463	22158
849.598	22162
849.734	22048
849.869	22040
850.004	21972
850.14	22059
850.275	22154
850.41	21899
850.545	21949
850.68	22032
850.815	21968
850.95	21911
851.085	22162
851.22	22010
851.355	22010
851.49	22010
851.625	21838
851.76	21880
851.895	21975
852.03	21960
852.165	21888
852.299	22131
852.434	22112
852.569	22147
852.703	21926
852.838	22036
852.973	22021
853.107	22128
853.242	21854
853.376	21907
853.511	21789
853.645	21785
853.78	21857
853.914	21800
854.048	21736
854.183	21793
854.317	21713
854.451	22036
854.585	21884
854.72	21770
854.854	21994
854.988	21686
855.122	21724
855.256	21637
855.39	21717
855.524	21861
855.658	21831
855.792	21854
855.926	21835
856.06	21823
856.194	21880
856.327	21610
856.461	21728
856.595	21827
856.729	21861
856.862	21903
856.996	21846
857.13	21903
857.263	21907
857.397	21922
857.53	21770
857.664	21781
857.797	21945
857.931	21983
858.064	21846
858.197	21945
858.331	21785
858.464	21732
858.597	21720
858.731	21751
858.864	21781
858.997	21846
859.13	21865
859.263	21857
859.396	21892
859.529	21789
859.662	21789
859.795	21644
859.928	21876
860.061	21979
860.194	21975
860.327	21876
860.46	21835
860.592	21983
860.725	22093
860.858	21953
860.99	21793
861.123	21618
861.256	21846
861.388	21831
861.521	22440
861.653	21618
861.786	21675
861.918	21622
862.05	21682
862.183	21690
862.315	21720
862.447	21743
862.58	21743
862.712	21599
862.844	21485
862.976	21606
863.108	21576
863.24	22048
863.372	21515
863.504	21416
863.636	21454
863.768	21614
863.9	21545
864.032	21420
864.164	21500
864.296	21599
864.428	21709
864.559	21587
864.691	21603
864.823	21523
864.954	21625
865.086	21469
865.217	21389
865.349	21260
865.48	21306
865.612	21450
865.743	21492
865.875	21458
866.006	21469
866.137	21469
866.269	21378
866.4	21450
866.531	21302
866.662	21256
866.793	21336
866.924	21359
867.055	21481
867.186	21401
867.317	21260
867.448	21321
867.579	21435
867.71	21268
867.841	21355
867.972	21348
868.103	21294
868.233	21344
868.364	21325
868.495	21481
868.625	21545
868.756	21747
868.886	21587
869.017	21694
869.147	21846
869.278	21736
869.408	21671
869.539	21580
869.669	21580
869.799	21473
869.929	21663
870.06	21713
870.19	21751
870.32	21823
870.45	21949
870.58	21861
870.71	22124
870.84	22044
870.97	21972
871.1	21953
871.23	22188
871.36	22173
871.489	22105
871.619	22063
871.749	22238
871.879	22150
872.008	22299
872.138	22105
872.267	22112
872.397	22002
872.526	22051
872.656	22067
872.785	21991
872.915	22230
873.044	22234
873.173	22139
873.303	22211
873.432	22284
873.561	22348
873.69	22249
873.819	22303
873.948	22322
874.077	22272
874.206	22177
874.335	22265
874.464	22280
874.593	22413
874.722	22375
874.851	22474
874.979	22478
875.108	22405
875.237	22325
875.365	22325
875.494	22497
875.623	22459
875.751	22455
875.88	22516
876.008	22481
876.136	22630
876.265	22828
876.393	22957
876.521	22885
876.65	22991
876.778	22900
876.906	22778
877.034	22668
877.162	22839
877.29	22854
877.418	22790
877.546	22828
877.674	22698
877.802	22752
877.93	22645
878.058	22668
878.185	22622
878.313	22736
878.441	22759
878.568	22557
878.696	22839
878.824	22820
878.951	22733
879.079	22904
879.206	23048
879.333	22881
879.461	22812
879.588	22919
879.715	22900
879.842	23098
879.97	22835
880.097	22668
880.224	22626
880.351	22519
880.478	22672
880.605	22622
880.732	22618
880.859	22938
880.986	22561
881.112	22645
881.239	22554
881.366	22402
881.493	22295
881.619	22314
881.746	22166
881.872	22249
881.999	22082
882.125	22207
882.252	22181
882.378	22116
882.505	22261
882.631	21975
882.757	21835
882.883	21979
883.01	21838
883.136	21804
883.262	21603
883.388	21644
883.514	21827
883.64	21854
883.766	21762
883.892	21549
884.018	21671
884.143	21823
884.269	21888
884.395	21462
884.52	21492
884.646	21519
884.772	21287
884.897	21329
885.023	21473
885.148	21663
885.274	21564
885.399	21545
885.524	21439
885.65	21504
885.775	21591
885.9	21431
886.025	21698
886.15	21477
886.275	21488
886.4	21428
886.525	21458
886.65	21382
886.775	21458
886.9	21496
887.025	21557
887.149	21458
887.274	21176
887.399	21355
887.523	21176
887.648	21211
887.773	21184
887.897	21386
888.021	21241
888.146	21222
888.27	21195
888.395	21420
888.519	21317
888.643	21272
888.767	21317
888.891	21275
889.015	21043
889.139	21112
889.263	20941
889.387	21222
889.511	21283
889.635	21131
889.759	20952
889.883	21024
890.006	20941
890.13	21077
890.254	21116
890.377	20891
890.501	20823
890.624	20781
890.748	20826
890.871	20678
890.995	20579
891.118	20484
891.241	20678
891.364	20632
891.488	20663
891.611	20686
891.734	20571
891.857	20583
891.98	20678
892.103	20659
892.226	20663
892.349	20541
892.471	20339
892.594	20587
892.717	20552
892.839	20571
892.962	20533
893.085	20609
893.207	20492
893.33	20415
893.452	20469
893.575	20571
893.697	20480
893.819	20750
893.941	20735
894.064	20651
894.186	20377
894.308	20594
894.43	20579
894.552	20609
894.674	20530
894.796	20347
894.918	20446
895.04	20446
895.161	20571
895.283	20511
895.405	20476
895.526	20556
895.648	20518
895.769	20560
895.891	20590
896.012	20545
896.134	20590
896.255	20469
896.376	20469
896.498	20381
896.619	20465
896.74	20545
896.861	20545
896.982	20883
897.103	20990
897.224	20705
897.345	20777
897.466	20606
897.587	20735
897.708	20845
897.828	20773
897.949	20659
898.07	20518
898.19	20663
898.311	20636
898.431	20556
898.552	20625
898.672	20807
898.792	20739
898.913	20720
899.033	20541
899.153	20541
899.273	20454
899.393	20556
899.513	20317
899.633	20374
899.753	20465
899.873	20377
899.993	20579
900.113	20473
900.232	20522
900.352	20400
900.472	20271
900.591	20157
900.711	20259
900.83	20229
900.95	20282
901.069	20355
901.189	20081
901.308	19879
901.427	19769
901.546	19822
901.665	19826
901.784	19818
901.904	19723
902.023	19616
902.141	19400
902.26	19247
902.379	19358
902.498	19297
902.617	19369
902.735	19441
902.854	19232
902.973	19209
903.091	19080
903.21	19084
903.328	19038
903.446	18928
903.565	18783
903.683	18817
903.801	18582
903.919	18852
904.038	18802
904.156	18490
904.274	18635
904.392	18418
904.51	18620
904.627	18559
904.745	18688
904.863	18536
904.981	18330
905.098	18334
905.216	18338
905.334	18361
905.451	18319
905.569	18270
905.686	18285
905.803	18262
905.921	17878
906.038	18174
906.155	18057
906.272	17901
906.389	17980
906.506	17710
906.623	17851
906.74	17630
906.857	17661
906.974	17722
907.091	17828
907.208	17851
907.324	17828
907.441	17756
907.557	17448
907.674	17372
907.79	17452
907.907	17364
908.023	17535
908.139	17410
908.256	17322
908.372	17288
908.488	17288
908.604	17197
908.72	17151
908.836	17239
908.952	17178
909.068	17170
909.184	17284
909.3	17216
909.415	17121
909.531	17079
909.647	16930
909.762	16949
909.878	16942
909.993	16881
910.108	16949
910.224	16854
910.339	16820
910.454	16721
910.57	16675
910.685	16546
910.8	16892
910.915	16816
911.03	16694
911.145	16512
911.259	16367
911.374	16478
911.489	16398
911.604	16337
911.718	16131
911.833	16166
911.947	16120
912.062	15979
912.176	16238
912.291	16284
912.405	16192
912.519	16363
912.633	16367
912.748	16139
912.862	16166
912.976	16006
913.09	16036
913.204	15998
913.318	15979
913.431	16071
913.545	16242
913.659	16082
913.772	16051
913.886	15690
914	15880
914.113	15915
914.226	15941
914.34	15899
914.453	15762
914.566	15865
914.68	15705
914.793	15648
914.906	15549
915.019	15485
915.132	15374
915.245	15397
915.358	15488
915.47	15443
915.583	15408
915.696	15386
915.809	15507
915.921	15500
916.034	15405
916.146	15367
916.259	15336
916.371	15382
916.483	15386
916.595	15332
916.708	15302
916.82	15317
916.932	15291
917.044	15222
917.156	15123
917.268	15036
917.38	15176
917.491	15135
917.603	15138
917.715	15131
917.826	15169
917.938	15028
918.049	15039
918.161	15047
918.272	15176
918.384	15161
918.495	14990
918.606	14864
918.717	14807
918.828	14834
918.939	14864
919.05	14727
919.161	14826
919.272	14598
919.383	14777
919.494	14895
919.604	15108
919.715	14769
919.826	14720
919.936	14823
920.047	14994
920.157	14804
920.267	15005
920.378	14880
920.488	14750
920.598	15013
920.708	15077
920.818	14914
920.928	14857
921.038	15188
921.148	15028
921.258	14777
921.368	14727
921.477	14503
921.587	14457
921.697	14393
921.806	14560
921.916	14248
922.025	14221
922.134	14161
922.244	14084
922.353	14138
922.462	14043
922.571	14020
922.68	13864
922.789	13795
922.898	13784
923.007	13746
923.116	13788
923.224	13845
923.333	13807
923.442	13712
923.55	13674
923.659	13757
923.767	13723
923.876	13594
923.984	13681
924.092	13594
924.201	13613
924.309	13578
924.417	13514
924.525	13441
924.633	13487
924.741	14248
924.849	13312
924.956	13480
925.064	13308
925.172	13225
925.279	13255
925.387	13247
925.494	13244
925.602	13365
925.709	13324
925.816	13080
925.924	13190
926.031	13240
926.138	13221
926.245	13244
926.352	13084
926.459	13251
926.566	13221
926.673	13129
926.779	12993
926.886	12981
926.993	12768
927.099	12776
927.206	12779
927.312	12684
927.419	12787
927.525	12760
927.631	12734
927.737	12719
927.843	12627
927.95	12578
928.056	12627
928.162	12559
928.267	12696
928.373	13194
928.479	12703
928.585	12410
928.69	12555
928.796	12528
928.901	12433
929.007	12277
929.112	12426
929.218	12422
929.323	12372
929.428	12251
929.533	12426
929.638	12270
929.743	12277
929.848	12277
929.953	12235
930.058	12213
930.163	11935
930.267	12030
930.372	12117
930.477	12011
930.581	12091
930.685	12019
930.79	11863
930.894	11916
930.998	11802
931.103	11923
931.207	11672
931.311	11570
931.415	11467
931.519	11277
931.623	11220
