Data from test_V78500241_41.txt Node
Date: Fri Mar 25 15:42:05 CST 2022
User: usil
Spectrometer: V785-0024
Trigger mode: 0
Integration Time (sec): 4.000000E-1
Scans to average: 1
Nonlinearity correction enabled: false
Boxcar width: 0
Storing dark spectrum: false
XAxis mode: Wavelengths
Number of Pixels in Spectrum: 1024
>>>>>Begin Spectral Data<<<<<
801.071	28561
801.214	28462
801.356	28147
801.499	28291
801.641	28093
801.783	28070
801.926	28147
802.068	28074
802.211	28051
802.353	27846
802.496	27816
802.638	27781
802.78	27580
802.923	27583
803.065	27606
803.208	27755
803.35	27614
803.492	27743
803.635	27865
803.777	27751
803.919	27785
804.061	28086
804.204	27876
804.346	27682
804.488	27504
804.63	27496
804.773	27599
804.915	27675
805.057	27743
805.199	27667
805.341	27774
805.483	27816
805.626	27831
805.768	27614
805.91	27698
806.052	27698
806.194	27724
806.336	27880
806.478	27694
806.62	27701
806.762	27888
806.904	28093
807.046	28135
807.188	28166
807.33	28143
807.472	28173
807.614	28059
807.756	28070
807.898	27812
808.04	27968
808.182	27964
808.324	27975
808.465	27911
808.607	28173
808.749	28257
808.891	28409
809.033	28375
809.174	28284
809.316	28325
809.458	28226
809.6	28211
809.741	28443
809.883	28363
810.025	28382
810.166	28478
810.308	28443
810.45	28382
810.591	28436
810.733	28238
810.875	28211
811.016	28112
811.158	28032
811.299	28291
811.441	28341
811.582	28344
811.724	28249
811.865	28242
812.007	28173
812.148	28124
812.29	28173
812.431	28436
812.573	28588
812.714	28535
812.855	28512
812.997	28748
813.138	28972
813.279	28744
813.421	28641
813.562	28596
813.703	28432
813.845	28276
813.986	27991
814.127	27823
814.268	27679
814.41	27876
814.551	27728
814.692	27774
814.833	27618
814.974	27591
815.115	27781
815.256	27606
815.397	27557
815.539	27561
815.68	27393
815.821	27329
815.962	27393
816.103	27348
816.244	27169
816.385	27108
816.526	27085
816.666	27062
816.807	26872
816.948	26948
817.089	26868
817.23	27001
817.371	26880
817.512	26815
817.653	26773
817.793	26701
817.934	26693
818.075	26819
818.216	26765
818.356	26625
818.497	26689
818.638	26442
818.778	26476
818.919	26381
819.06	26469
819.2	26594
819.341	26758
819.481	26758
819.622	26724
819.762	26960
819.903	26998
820.043	26830
820.184	26819
820.324	26625
820.465	26876
820.605	26773
820.746	26629
820.886	26686
821.026	26636
821.167	26724
821.307	26739
821.447	26655
821.588	26507
821.728	26358
821.868	26199
822.008	26050
822.149	26054
822.289	26100
822.429	25849
822.569	25894
822.709	25738
822.849	25472
822.99	25556
823.13	25464
823.27	25460
823.41	25464
823.55	25148
823.69	25293
823.83	25293
823.97	25129
824.11	24985
824.25	25133
824.389	25129
824.529	25194
824.669	25103
824.809	25278
824.949	25137
825.089	25053
825.228	25225
825.368	24886
825.508	24951
825.648	24779
825.787	24913
825.927	24863
826.067	24977
826.206	24852
826.346	24821
826.485	24951
826.625	24878
826.765	25008
826.904	24806
827.044	24627
827.183	24635
827.323	24517
827.462	24509
827.601	24540
827.741	24494
827.88	24479
828.02	24536
828.159	24437
828.298	24555
828.437	24422
828.577	24509
828.716	24635
828.855	24494
828.994	24262
829.134	24296
829.273	24232
829.412	24243
829.551	24140
829.69	24057
829.829	24254
829.968	24209
830.107	24296
830.246	24152
830.385	23912
830.524	24129
830.663	23927
830.802	23916
830.941	23786
831.08	23745
831.219	23745
831.357	23786
831.496	23992
831.635	23710
831.774	23646
831.913	23577
832.051	23649
832.19	23459
832.329	23402
832.467	23452
832.606	23235
832.744	23280
832.883	23318
833.022	23436
833.16	23318
833.299	23315
833.437	23277
833.576	23216
833.714	23364
833.852	23425
833.991	23429
834.129	23387
834.267	23330
834.406	23356
834.544	23364
834.682	23395
834.821	23261
834.959	23573
835.097	23159
835.235	23429
835.373	23220
835.511	23364
835.65	23197
835.788	23109
835.926	22995
836.064	22961
836.202	23029
836.34	23109
836.478	23261
836.615	23109
836.753	23170
836.891	23185
837.029	23189
837.167	23220
837.305	23006
837.443	22927
837.58	22915
837.718	23033
837.856	23037
837.993	22786
838.131	22968
838.269	22797
838.406	22866
838.544	22740
838.681	22577
838.819	22653
838.956	22382
839.094	22447
839.231	22489
839.369	22535
839.506	22778
839.643	22569
839.781	22394
839.918	22322
840.055	22440
840.193	22265
840.33	22303
840.467	22348
840.604	22367
840.742	22451
840.879	22230
841.016	22291
841.153	22158
841.29	22306
841.427	22303
841.564	22261
841.701	22310
841.838	22219
841.975	22177
842.112	22017
842.249	22013
842.385	21994
842.522	22192
842.659	22074
842.796	21953
842.933	21949
843.069	21876
843.206	21892
843.343	22013
843.479	21953
843.616	21968
843.752	21816
843.889	21686
844.025	21762
844.162	21751
844.298	21785
844.435	21732
844.571	21679
844.708	21724
844.844	21743
844.98	21861
845.117	21766
845.253	21675
845.389	21553
845.525	21534
845.661	21625
845.798	21275
845.934	21450
846.07	21374
846.206	21424
846.342	21420
846.478	21397
846.614	21199
846.75	21001
846.886	21176
847.022	21294
847.158	21146
847.294	21081
847.429	21081
847.565	21131
847.701	21329
847.837	20944
847.972	20906
848.108	21077
848.244	20918
848.379	20701
848.515	20731
848.65	20689
848.786	20644
848.921	20724
849.057	20887
849.192	20807
849.328	20686
849.463	20727
849.598	20705
849.734	20644
849.869	20575
850.004	20347
850.14	20454
850.275	20446
850.41	20347
850.545	20404
850.68	20396
850.815	20427
850.95	20389
851.085	20545
851.22	20400
851.355	20332
851.49	20309
851.625	20408
851.76	20313
851.895	20362
852.03	20244
852.165	20366
852.299	20415
852.434	20537
852.569	20457
852.703	20328
852.838	20431
852.973	20602
853.107	20511
853.242	20305
853.376	20328
853.511	20161
853.645	20237
853.78	20324
853.914	20206
854.048	20248
854.183	20218
854.317	20138
854.451	20473
854.585	20271
854.72	20183
854.854	20294
854.988	20153
855.122	20183
855.256	20130
855.39	20248
855.524	20275
855.658	20161
855.792	20126
855.926	20142
856.06	20244
856.194	20336
856.327	20130
856.461	20122
856.595	20092
856.729	20100
856.862	20393
856.996	20119
857.13	20301
857.263	20313
857.397	20294
857.53	20081
857.664	20157
857.797	20309
857.931	20313
858.064	20214
858.197	20263
858.331	20191
858.464	20088
858.597	20134
858.731	20111
858.864	20134
858.997	20103
859.13	20164
859.263	20317
859.396	20187
859.529	20164
859.662	20100
859.795	20077
859.928	20153
860.061	20282
860.194	20275
860.327	20168
860.46	20237
860.592	20202
860.725	20157
860.858	20218
860.99	20161
861.123	19955
861.256	20115
861.388	20092
861.521	20693
861.653	20001
861.786	19925
861.918	20001
862.05	19894
862.183	20115
862.315	20100
862.447	20176
862.58	20092
862.712	19875
862.844	19852
862.976	19963
863.108	19955
863.24	20210
863.372	19788
863.504	19772
863.636	19776
863.768	19917
863.9	19788
864.032	19780
864.164	19906
864.296	19772
864.428	19860
864.559	19837
864.691	19860
864.823	19898
864.954	19753
865.086	19887
865.217	19700
865.349	19693
865.48	19609
865.612	19833
865.743	19860
865.875	19849
866.006	19658
866.137	19647
866.269	19814
866.4	19753
866.531	19643
866.662	19556
866.793	19647
866.924	19681
867.055	19742
867.186	19632
867.317	19502
867.448	19594
867.579	19556
867.71	19540
867.841	19548
867.972	19670
868.103	19647
868.233	19597
868.364	19734
868.495	19826
868.625	19902
868.756	19925
868.886	19917
869.017	19757
869.147	20062
869.278	19970
869.408	19898
869.539	19887
869.669	19875
869.799	19871
869.929	20012
870.06	20008
870.19	20180
870.32	20130
870.45	20263
870.58	20248
870.71	20282
870.84	20423
870.97	20191
871.1	20199
871.23	20465
871.36	20537
871.489	20385
871.619	20339
871.749	20404
871.879	20579
872.008	20583
872.138	20606
872.267	20434
872.397	20374
872.526	20263
872.656	20324
872.785	20286
872.915	20514
873.044	20632
873.173	20484
873.303	20549
873.432	20568
873.561	20636
873.69	20469
873.819	20419
873.948	20522
874.077	20454
874.206	20415
874.335	20488
874.464	20613
874.593	20792
874.722	20682
874.851	20781
874.979	20849
875.108	20883
875.237	20731
875.365	20693
875.494	20777
875.623	20845
875.751	20739
875.88	20823
876.008	21017
876.136	21104
876.265	21039
876.393	21298
876.521	21310
876.65	21355
876.778	21283
876.906	21119
877.034	21203
877.162	21150
877.29	20982
877.418	21051
877.546	21123
877.674	21108
877.802	21135
877.93	21104
878.058	21161
878.185	21009
878.313	21146
878.441	21150
878.568	20967
878.696	21024
878.824	21055
878.951	21150
879.079	21268
879.206	21530
879.333	21336
879.461	21222
879.588	21249
879.715	21313
879.842	21408
879.97	21195
880.097	20960
880.224	20899
880.351	20857
880.478	20937
880.605	20849
880.732	20933
880.859	21184
880.986	20929
881.112	20925
881.239	20842
881.366	20655
881.493	20549
881.619	20545
881.746	20514
881.872	20590
881.999	20621
882.125	20514
882.252	20518
882.378	20495
882.505	20758
882.631	20530
882.757	20294
882.883	20317
883.01	20389
883.136	20161
883.262	20122
883.388	20271
883.514	20309
883.64	20366
883.766	20240
883.892	20005
884.018	20103
884.143	20259
884.269	20396
884.395	20187
884.52	19967
884.646	19868
884.772	19887
884.897	19913
885.023	19925
885.148	20031
885.274	20138
885.399	20024
885.524	19959
885.65	19925
885.775	19967
885.9	19909
886.025	19993
886.15	19959
886.275	19830
886.4	19814
886.525	19849
886.65	19868
886.775	19852
886.9	19925
887.025	20145
887.149	19887
887.274	19666
887.399	19742
887.523	19734
887.648	19578
887.773	19658
887.897	19795
888.021	19719
888.146	19575
888.27	19742
888.395	19826
888.519	19693
888.643	19677
888.767	19799
888.891	19677
889.015	19373
889.139	19548
889.263	19552
889.387	19582
889.511	19651
889.635	19605
889.759	19407
889.883	19441
890.006	19525
890.13	19476
890.254	19426
890.377	19415
890.501	19293
890.624	19202
890.748	19327
890.871	19145
890.995	19012
891.118	18958
891.241	19114
891.364	19099
891.488	19171
891.611	19069
891.734	19114
891.857	19202
891.98	19179
892.103	19103
892.226	19145
892.349	19004
892.471	18825
892.594	19137
892.717	19008
892.839	19027
892.962	18981
893.085	19019
893.207	19088
893.33	18890
893.452	18894
893.575	19034
893.697	18867
893.819	19141
893.941	19247
894.064	19114
894.186	19008
894.308	19000
894.43	19133
894.552	19141
894.674	19072
894.796	18966
894.918	18958
895.04	18985
895.161	19190
895.283	19126
895.405	19031
895.526	19061
895.648	18966
895.769	18985
895.891	19164
896.012	19133
896.134	19145
896.255	19221
896.376	19042
896.498	19133
896.619	19061
896.74	19080
896.861	19160
896.982	19426
897.103	19548
897.224	19251
897.345	19331
897.466	19270
897.587	19221
897.708	19419
897.828	19270
897.949	19297
898.07	19168
898.19	19247
898.311	19350
898.431	19206
898.552	19324
898.672	19270
898.792	19381
898.913	19278
899.033	19095
899.153	19012
899.273	18958
899.393	19046
899.513	19046
899.633	18973
899.753	19065
899.873	18882
899.993	19012
900.113	18947
900.232	18859
900.352	18901
900.472	18768
900.591	18692
900.711	18798
900.83	18741
900.95	19019
901.069	18939
901.189	18570
901.308	18407
901.427	18479
901.546	18334
901.665	18429
901.784	18330
901.904	18277
902.023	18209
902.141	17992
902.26	17893
902.379	17969
902.498	17950
902.617	17908
902.735	17904
902.854	17840
902.973	17710
903.091	17448
903.21	17592
903.328	17551
903.446	17444
903.565	17417
903.683	17311
903.801	17288
903.919	17421
904.038	17452
904.156	17212
904.274	17155
904.392	17189
904.51	17189
904.627	17140
904.745	17102
904.863	17200
904.981	16976
905.098	16797
905.216	16816
905.334	16752
905.451	16854
905.569	16683
905.686	16763
905.803	16790
905.921	16668
906.038	16755
906.155	16725
906.272	16466
906.389	16558
906.506	16390
906.623	16371
906.74	16234
906.857	16207
906.974	16192
907.091	16390
907.208	16470
907.324	16402
907.441	16135
907.557	16204
907.674	16086
907.79	15899
907.907	15998
908.023	16105
908.139	15987
908.256	15972
908.372	15945
908.488	15838
908.604	15797
908.72	15682
908.836	15724
908.952	15766
909.068	15736
909.184	15755
909.3	15736
909.415	15739
909.531	15713
909.647	15431
909.762	15447
909.878	15401
909.993	15477
910.108	15378
910.224	15344
910.339	15351
910.454	15272
910.57	15161
910.685	15043
910.8	15462
910.915	15382
911.03	15207
911.145	15047
911.259	15066
911.374	14994
911.489	14929
911.604	14948
911.718	14765
911.833	14792
911.947	14663
912.062	14731
912.176	14861
912.291	14971
912.405	14861
912.519	14963
912.633	14868
912.748	14796
912.862	14689
912.976	14598
913.09	14427
913.204	14454
913.318	14518
913.431	14678
913.545	14644
913.659	14575
913.772	14587
913.886	14438
914	14400
914.113	14549
914.226	14560
914.34	14499
914.453	14225
914.566	14484
914.68	14271
914.793	14286
914.906	14050
915.019	14005
915.132	13970
915.245	14069
915.358	14027
915.47	14107
915.583	14199
915.696	14157
915.809	14149
915.921	14282
916.034	13940
916.146	13951
916.259	13845
916.371	14199
916.483	14050
916.595	14020
916.708	13970
916.82	13898
916.932	13845
917.044	13898
917.156	13879
917.268	13757
917.38	13712
917.491	13715
917.603	13750
917.715	13852
917.826	13803
917.938	13784
918.049	13712
918.161	13674
918.272	13879
918.384	13887
918.495	13643
918.606	13529
918.717	13521
918.828	13537
918.939	13578
919.05	13453
919.161	13476
919.272	13255
919.383	13381
919.494	13597
919.604	13826
919.715	13510
919.826	13445
919.936	13388
920.047	13559
920.157	13483
920.267	13689
920.378	13476
920.488	13483
920.598	13651
920.708	13814
920.818	13559
920.928	13643
921.038	13784
921.148	13685
921.258	13430
921.368	13339
921.477	13156
921.587	13285
921.697	13168
921.806	13270
921.916	13034
922.025	12909
922.134	12913
922.244	12905
922.353	12947
922.462	12692
922.571	12734
922.68	12544
922.789	12536
922.898	12570
923.007	12448
923.116	12593
923.224	12563
923.333	12597
923.442	12292
923.55	12273
923.659	12414
923.767	12441
923.876	12338
923.984	12342
924.092	12254
924.201	12369
924.309	12277
924.417	12266
924.525	12243
924.633	12175
924.741	13137
924.849	12003
924.956	12224
925.064	12015
925.172	11904
925.279	11973
925.387	12030
925.494	12019
925.602	12159
925.709	11984
925.816	11870
925.924	11904
926.031	12091
926.138	11954
926.245	12019
926.352	11790
926.459	11946
926.566	12072
926.673	11817
926.779	11748
926.886	11809
926.993	11596
927.099	11551
927.206	11585
927.312	11459
927.419	11623
927.525	11585
927.631	11623
927.737	11467
927.843	11490
927.95	11398
928.056	11444
928.162	11364
928.267	11444
928.373	12136
928.479	11501
928.585	11288
928.69	11364
928.796	11421
928.901	11231
929.007	11140
929.112	11208
929.218	11296
929.323	11265
929.428	11189
929.533	11277
929.638	11147
929.743	11045
929.848	11227
929.953	11147
930.058	11033
930.163	10835
930.267	10847
930.372	11006
930.477	10774
930.581	11037
930.685	10946
930.79	10774
930.894	10744
930.998	10694
931.103	10892
931.207	10470
931.311	10459
931.415	10348
931.519	10154
931.623	10131
