Data from test_V78500241_564.txt Node
Date: Fri Mar 25 15:45:42 CST 2022
User: usil
Spectrometer: V785-0024
Trigger mode: 0
Integration Time (sec): 4.000000E-1
Scans to average: 1
Nonlinearity correction enabled: false
Boxcar width: 0
Storing dark spectrum: false
XAxis mode: Wavelengths
Number of Pixels in Spectrum: 1024
>>>>>Begin Spectral Data<<<<<
801.071	27249
801.214	27294
801.356	26929
801.499	26861
801.641	26853
801.783	26826
801.926	26705
802.068	26899
802.211	26613
802.353	26655
802.496	26511
802.638	26480
802.78	26423
802.923	26480
803.065	26237
803.208	26278
803.35	26446
803.492	26488
803.635	26476
803.777	26336
803.919	26613
804.061	26944
804.204	26590
804.346	26419
804.488	26393
804.63	26511
804.773	26324
804.915	26503
805.057	26731
805.199	26533
805.341	26590
805.483	26739
805.626	26724
805.768	26590
805.91	26689
806.052	26708
806.194	26708
806.336	26849
806.478	26815
806.62	26571
806.762	26705
806.904	26967
807.046	27188
807.188	27123
807.33	27047
807.472	27222
807.614	26952
807.756	27058
807.898	26990
808.04	26895
808.182	26834
808.324	26876
808.465	26842
808.607	27112
808.749	27260
808.891	27291
809.033	27408
809.174	27386
809.316	27283
809.458	27260
809.6	27226
809.741	27374
809.883	27382
810.025	27469
810.166	27439
810.308	27557
810.45	27462
810.591	27359
810.733	27317
810.875	27272
811.016	27207
811.158	27096
811.299	27416
811.441	27477
811.582	27359
811.724	27199
811.865	27245
812.007	27199
812.148	27241
812.29	27329
812.431	27462
812.573	27614
812.714	27618
812.855	27694
812.997	27823
813.138	28051
813.279	27968
813.421	27770
813.562	27785
813.703	27644
813.845	27504
813.986	27256
814.127	27017
814.268	26899
814.41	27039
814.551	26910
814.692	27081
814.833	26906
814.974	26899
815.115	26838
815.256	26708
815.397	26788
815.539	26891
815.68	26701
815.821	26625
815.962	26613
816.103	26773
816.244	26735
816.385	26503
816.526	26377
816.666	26339
816.807	26259
816.948	26282
817.089	26328
817.23	26210
817.371	26202
817.512	26305
817.653	26020
817.793	26138
817.934	26130
818.075	26267
818.216	26195
818.356	26081
818.497	26126
818.638	25917
818.778	25875
818.919	25799
819.06	25936
819.2	26073
819.341	26164
819.481	26138
819.622	26267
819.762	26415
819.903	26427
820.043	26286
820.184	26157
820.324	26119
820.465	26301
820.605	26313
820.746	26267
820.886	26168
821.026	26275
821.167	26157
821.307	26282
821.447	26298
821.588	26237
821.728	25959
821.868	25871
822.008	25757
822.149	25559
822.289	25731
822.429	25384
822.569	25297
822.709	25346
822.849	25190
822.99	25168
823.13	25148
823.27	25194
823.41	24916
823.55	24939
823.69	24939
823.83	24856
823.97	24928
824.11	24768
824.25	24787
824.389	24951
824.529	24939
824.669	24814
824.809	25019
824.949	24894
825.089	24875
825.228	24829
825.368	24627
825.508	24665
825.648	24616
825.787	24783
825.927	24783
826.067	24642
826.206	24730
826.346	24745
826.485	24715
826.625	24635
826.765	24787
826.904	24707
827.044	24513
827.183	24384
827.323	24319
827.462	24433
827.601	24342
827.741	24350
827.88	24407
828.02	24140
828.159	24319
828.298	24315
828.437	24361
828.577	24262
828.716	24490
828.855	24235
828.994	24098
829.134	24060
829.273	24133
829.412	23965
829.551	23977
829.69	24041
829.829	24022
829.968	24174
830.107	24144
830.246	24121
830.385	24034
830.524	23927
830.663	23901
830.802	23775
830.941	23638
831.08	23581
831.219	23832
831.357	23722
831.496	23851
831.635	23676
831.774	23630
831.913	23509
832.051	23558
832.19	23417
832.329	23547
832.467	23349
832.606	23277
832.744	23395
832.883	23425
833.022	23406
833.16	23208
833.299	23493
833.437	23433
833.576	23376
833.714	23398
833.852	23516
833.991	23398
834.129	23558
834.267	23512
834.406	23425
834.544	23509
834.682	23452
834.821	23337
834.959	23573
835.097	23391
835.235	23455
835.373	23421
835.511	23356
835.65	23117
835.788	23326
835.926	23132
836.064	23079
836.202	23010
836.34	23318
836.478	23223
836.615	23143
836.753	23242
836.891	23436
837.029	23239
837.167	23170
837.305	23010
837.443	23178
837.58	23178
837.718	23105
837.856	23090
837.993	22980
838.131	23086
838.269	22946
838.406	22927
838.544	22980
838.681	22736
838.819	22729
838.956	22535
839.094	22485
839.231	22710
839.369	22694
839.506	22904
839.643	22835
839.781	22500
839.918	22398
840.055	22634
840.193	22519
840.33	22519
840.467	22478
840.604	22546
840.742	22736
840.879	22398
841.016	22440
841.153	22413
841.29	22664
841.427	22462
841.564	22508
841.701	22478
841.838	22405
841.975	22443
842.112	22363
842.249	22329
842.385	22276
842.522	22497
842.659	22318
842.796	22303
842.933	22318
843.069	22169
843.206	22299
843.343	22246
843.479	22261
843.616	22242
843.752	21918
843.889	22109
844.025	22215
844.162	21842
844.298	22040
844.435	21998
844.571	21907
844.708	21994
844.844	22200
844.98	22162
845.117	22032
845.253	21918
845.389	21835
845.525	21869
845.661	21880
845.798	21827
845.934	21861
846.07	21732
846.206	21812
846.342	21907
846.478	21542
846.614	21656
846.75	21397
846.886	21428
847.022	21553
847.158	21481
847.294	21530
847.429	21515
847.565	21447
847.701	21797
847.837	21249
847.972	21135
848.108	21389
848.244	21329
848.379	21161
848.515	21009
848.65	21154
848.786	21024
848.921	21146
849.057	21161
849.192	21085
849.328	21043
849.463	21089
849.598	21001
849.734	20925
849.869	20899
850.004	21001
850.14	20948
850.275	20910
850.41	20697
850.545	20754
850.68	20853
850.815	20899
850.95	20830
851.085	21005
851.22	20971
851.355	20819
851.49	20777
851.625	20716
851.76	20792
851.895	20834
852.03	20800
852.165	20792
852.299	20834
852.434	20857
852.569	20826
852.703	20826
852.838	20826
852.973	20998
853.107	21028
853.242	20682
853.376	20644
853.511	20476
853.645	20625
853.78	20815
853.914	20712
854.048	20678
854.183	20613
854.317	20731
854.451	20937
854.585	20720
854.72	20644
854.854	20807
854.988	20522
855.122	20530
855.256	20545
855.39	20651
855.524	20743
855.658	20625
855.792	20663
855.926	20743
856.06	20777
856.194	20621
856.327	20640
856.461	20518
856.595	20590
856.729	20571
856.862	20613
856.996	20762
857.13	20853
857.263	20705
857.397	20754
857.53	20659
857.664	20712
857.797	20708
857.931	20746
858.064	20762
858.197	20788
858.331	20560
858.464	20731
858.597	20518
858.731	20590
858.864	20727
858.997	20552
859.13	20617
859.263	20686
859.396	20800
859.529	20659
859.662	20613
859.795	20594
859.928	20701
860.061	20788
860.194	20906
860.327	20712
860.46	20716
860.592	20682
860.725	20785
860.858	20712
860.99	20663
861.123	20522
861.256	20727
861.388	20621
861.521	21154
861.653	20465
861.786	20457
861.918	20389
862.05	20560
862.183	20617
862.315	20678
862.447	20606
862.58	20549
862.712	20339
862.844	20446
862.976	20552
863.108	20537
863.24	20746
863.372	20267
863.504	20355
863.636	20313
863.768	20355
863.9	20301
864.032	20252
864.164	20404
864.296	20396
864.428	20488
864.559	20423
864.691	20469
864.823	20400
864.954	20366
865.086	20343
865.217	20377
865.349	20164
865.48	20347
865.612	20202
865.743	20408
865.875	20419
866.006	20145
866.137	20282
866.269	20218
866.4	20153
866.531	20237
866.662	20176
866.793	20168
866.924	20157
867.055	20366
867.186	20168
867.317	20172
867.448	20069
867.579	20221
867.71	20240
867.841	20183
867.972	20122
868.103	20157
868.233	20210
868.364	20225
868.495	20347
868.625	20454
868.756	20461
868.886	20431
869.017	20499
869.147	20568
869.278	20655
869.408	20606
869.539	20404
869.669	20530
869.799	20442
869.929	20678
870.06	20617
870.19	20765
870.32	20750
870.45	20701
870.58	20944
870.71	21009
870.84	20975
870.97	20834
871.1	20864
871.23	21009
871.36	20975
871.489	20998
871.619	20982
871.749	21013
871.879	21043
872.008	21047
872.138	21001
872.267	20967
872.397	20861
872.526	20994
872.656	20963
872.785	20765
872.915	21077
873.044	21180
873.173	21005
873.303	21074
873.432	21157
873.561	21093
873.69	21074
873.819	21043
873.948	21180
874.077	21070
874.206	21020
874.335	21074
874.464	21176
874.593	21287
874.722	21222
874.851	21344
874.979	21302
875.108	21294
875.237	21317
875.365	21405
875.494	21389
875.623	21291
875.751	21226
875.88	21256
876.008	21481
876.136	21553
876.265	21633
876.393	21793
876.521	21770
876.65	21781
876.778	21884
876.906	21648
877.034	21622
877.162	21564
877.29	21648
877.418	21705
877.546	21747
877.674	21622
877.802	21694
877.93	21606
878.058	21545
878.185	21549
878.313	21641
878.441	21694
878.568	21561
878.696	21660
878.824	21747
878.951	21736
879.079	21793
879.206	21922
879.333	21781
879.461	21637
879.588	21823
879.715	21922
879.842	21918
879.97	21682
880.097	21473
880.224	21507
880.351	21538
880.478	21363
880.605	21519
880.732	21530
880.859	21720
880.986	21507
881.112	21561
881.239	21329
881.366	21192
881.493	21176
881.619	21093
881.746	21089
881.872	21146
881.999	21017
882.125	20979
882.252	21180
882.378	21135
882.505	21104
882.631	20944
882.757	20754
882.883	20823
883.01	20769
883.136	20727
883.262	20594
883.388	20686
883.514	20796
883.64	20868
883.766	20651
883.892	20518
884.018	20564
884.143	20804
884.269	20731
884.395	20450
884.52	20358
884.646	20564
884.772	20400
884.897	20294
885.023	20400
885.148	20564
885.274	20530
885.399	20583
885.524	20457
885.65	20465
885.775	20408
885.9	20343
886.025	20560
886.15	20454
886.275	20320
886.4	20286
886.525	20313
886.65	20408
886.775	20362
886.9	20503
887.025	20636
887.149	20454
887.274	20218
887.399	20206
887.523	20221
887.648	20183
887.773	20142
887.897	20313
888.021	20263
888.146	20180
888.27	20214
888.395	20305
888.519	20278
888.643	20351
888.767	20164
888.891	20035
889.015	20005
889.139	20069
889.263	19982
889.387	20084
889.511	20294
889.635	20054
889.759	19921
889.883	19989
890.006	19940
890.13	20008
890.254	19970
890.377	19887
890.501	19731
890.624	19685
890.748	19860
890.871	19635
890.995	19571
891.118	19510
891.241	19586
891.364	19616
891.488	19757
891.611	19548
891.734	19567
891.857	19655
891.98	19605
892.103	19605
892.226	19575
892.349	19544
892.471	19365
892.594	19533
892.717	19480
892.839	19438
892.962	19632
893.085	19590
893.207	19464
893.33	19491
893.452	19476
893.575	19506
893.697	19457
893.819	19666
893.941	19651
894.064	19712
894.186	19487
894.308	19468
894.43	19483
894.552	19670
894.674	19658
894.796	19460
894.918	19510
895.04	19514
895.161	19438
895.283	19480
895.405	19400
895.526	19491
895.648	19525
895.769	19502
895.891	19495
896.012	19605
896.134	19624
896.255	19616
896.376	19571
896.498	19495
896.619	19491
896.74	19613
896.861	19651
896.982	19917
897.103	19917
897.224	19852
897.345	19845
897.466	19693
897.587	19742
897.708	19875
897.828	19822
897.949	19830
898.07	19468
898.19	19784
898.311	19784
898.431	19868
898.552	19776
898.672	19708
898.792	19803
898.913	19879
899.033	19632
899.153	19605
899.273	19521
899.393	19597
899.513	19544
899.633	19540
899.753	19525
899.873	19468
899.993	19567
900.113	19499
900.232	19548
900.352	19502
900.472	19438
900.591	19270
900.711	19365
900.83	19293
900.95	19369
901.069	19438
901.189	19194
901.308	19000
901.427	18924
901.546	18909
901.665	18916
901.784	18890
901.904	18848
902.023	18779
902.141	18551
902.26	18544
902.379	18681
902.498	18353
902.617	18384
902.735	18422
902.854	18506
902.973	18327
903.091	18182
903.21	17973
903.328	18087
903.446	17942
903.565	17954
903.683	17836
903.801	17824
903.919	17901
904.038	17866
904.156	17672
904.274	17821
904.392	17615
904.51	17653
904.627	17558
904.745	17764
904.863	17684
904.981	17497
905.098	17288
905.216	17303
905.334	17345
905.451	17337
905.569	17280
905.686	17292
905.803	17341
905.921	17071
906.038	17124
906.155	17090
906.272	17102
906.389	16919
906.506	17033
906.623	16873
906.74	16961
906.857	16793
906.974	16911
907.091	16900
907.208	16949
907.324	16972
907.441	16858
907.557	16615
907.674	16656
907.79	16611
907.907	16466
908.023	16561
908.139	16592
908.256	16588
908.372	16485
908.488	16569
908.604	16398
908.72	16284
908.836	16386
908.952	16268
909.068	16352
909.184	16481
909.3	16242
909.415	16329
909.531	16223
909.647	16082
909.762	16071
909.878	15926
909.993	16044
910.108	15987
910.224	16021
910.339	15895
910.454	15865
910.57	15789
910.685	15793
910.8	16002
910.915	15979
911.03	15953
911.145	15698
911.259	15652
911.374	15603
911.489	15507
911.604	15496
911.718	15321
911.833	15450
911.947	15351
912.062	15275
912.176	15367
912.291	15401
912.405	15359
912.519	15557
912.633	15584
912.748	15367
912.862	15298
912.976	15241
913.09	15093
913.204	15077
913.318	15287
913.431	15325
913.545	15218
913.659	15363
913.772	15116
913.886	15009
914	14960
914.113	15119
914.226	15161
914.34	15119
914.453	14868
914.566	15047
914.68	14891
914.793	14899
914.906	14716
915.019	14568
915.132	14617
915.245	14629
915.358	14636
915.47	14564
915.583	14693
915.696	14693
915.809	14716
915.921	14773
916.034	14590
916.146	14530
916.259	14541
916.371	14617
916.483	14621
916.595	14450
916.708	14473
916.82	14450
916.932	14503
917.044	14438
917.156	14385
917.268	14301
917.38	14431
917.491	14317
917.603	14393
917.715	14336
917.826	14400
917.938	14233
918.049	14153
918.161	14278
918.272	14374
918.384	14347
918.495	14298
918.606	14062
918.717	14092
918.828	13997
918.939	14111
919.05	14001
919.161	14065
919.272	13887
919.383	13928
919.494	14191
919.604	14275
919.715	14119
919.826	13982
919.936	14027
920.047	14123
920.157	14077
920.267	14290
920.378	14008
920.488	14111
920.598	14180
920.708	14370
920.818	14199
920.928	14214
921.038	14366
921.148	14267
921.258	13970
921.368	13913
921.477	13871
921.587	13731
921.697	13753
921.806	13814
921.916	13734
922.025	13582
922.134	13510
922.244	13464
922.353	13571
922.462	13266
922.571	13308
922.68	13209
922.789	13152
922.898	13160
923.007	13099
923.116	13149
923.224	13065
923.333	13110
923.442	12966
923.55	12856
923.659	12996
923.767	12970
923.876	12817
923.984	12981
924.092	12776
924.201	12882
924.309	12913
924.417	12897
924.525	12814
924.633	12753
924.741	13715
924.849	12574
924.956	12635
925.064	12631
925.172	12410
925.279	12509
925.387	12509
925.494	12528
925.602	12665
925.709	12604
925.816	12369
925.924	12502
926.031	12616
926.138	12407
926.245	12521
926.352	12414
926.459	12570
926.566	12540
926.673	12460
926.779	12323
926.886	12353
926.993	12171
927.099	12026
927.206	12102
927.312	12091
927.419	12144
927.525	12167
927.631	12072
927.737	11984
927.843	12041
927.95	11863
928.056	11977
928.162	12019
928.267	12015
928.373	12593
928.479	11969
928.585	11680
928.69	11973
928.796	11901
928.901	11798
929.007	11714
929.112	11824
929.218	11752
929.323	11745
929.428	11710
929.533	11863
929.638	11657
929.743	11684
929.848	11649
929.953	11608
930.058	11532
930.163	11387
930.267	11315
930.372	11573
930.477	11334
930.581	11547
930.685	11387
930.79	11387
930.894	11246
930.998	11261
931.103	11421
931.207	11003
931.311	11003
931.415	10873
931.519	10710
931.623	10622
