Data from test_V78500241_2312.txt Node
Date: Fri Mar 25 15:57:49 CST 2022
User: usil
Spectrometer: V785-0024
Trigger mode: 0
Integration Time (sec): 4.000000E-1
Scans to average: 1
Nonlinearity correction enabled: false
Boxcar width: 0
Storing dark spectrum: false
XAxis mode: Wavelengths
Number of Pixels in Spectrum: 1024
>>>>>Begin Spectral Data<<<<<
801.071	28759
801.214	28824
801.356	28641
801.499	28424
801.641	28413
801.783	28596
801.926	28291
802.068	28565
802.211	28421
802.353	28333
802.496	28204
802.638	28223
802.78	28044
802.923	28082
803.065	28124
803.208	27975
803.35	28154
803.492	28341
803.635	28390
803.777	28116
803.919	28329
804.061	28577
804.204	28531
804.346	28272
804.488	28287
804.63	28382
804.773	28367
804.915	28424
805.057	28512
805.199	28390
805.341	28440
805.483	28596
805.626	28596
805.768	28291
805.91	28626
806.052	28611
806.194	28508
806.336	28710
806.478	28421
806.62	28500
806.762	28736
806.904	28843
807.046	29079
807.188	29006
807.33	28873
807.472	29014
807.614	29014
807.756	28927
807.898	28816
808.04	28850
808.182	28679
808.324	28850
808.465	28892
808.607	29052
808.749	29181
808.891	29265
809.033	29326
809.174	29265
809.316	29200
809.458	29273
809.6	29090
809.741	29292
809.883	29417
810.025	29490
810.166	29577
810.308	29535
810.45	29452
810.591	29395
810.733	29398
810.875	29231
811.016	29227
811.158	29200
811.299	29330
811.441	29421
811.582	29375
811.724	29341
811.865	29284
812.007	29147
812.148	29151
812.29	29284
812.431	29372
812.573	29638
812.714	29703
812.855	29726
812.997	29916
813.138	29973
813.279	29931
813.421	29718
813.562	29642
813.703	29570
813.845	29436
813.986	29052
814.127	29006
814.268	28919
814.41	28892
814.551	28850
814.692	28968
814.833	28797
814.974	28896
815.115	28946
815.256	28740
815.397	28862
815.539	28740
815.68	28809
815.821	28599
815.962	28752
816.103	28793
816.244	28713
816.385	28554
816.526	28466
816.666	28287
816.807	28268
816.948	28280
817.089	28303
817.23	28166
817.371	28055
817.512	28310
817.653	28158
817.793	28200
817.934	28314
818.075	28287
818.216	28154
818.356	28204
818.497	28150
818.638	28002
818.778	27945
818.919	27972
819.06	28086
819.2	28185
819.341	28204
819.481	28333
819.622	28519
819.762	28694
819.903	28504
820.043	28637
820.184	28386
820.324	28440
820.465	28481
820.605	28268
820.746	28360
820.886	28306
821.026	28474
821.167	28299
821.307	28413
821.447	28204
821.588	28295
821.728	28055
821.868	27903
822.008	27835
822.149	27778
822.289	27622
822.429	27545
822.569	27340
822.709	27260
822.849	27367
822.99	27321
823.13	27298
823.27	27195
823.41	27093
823.55	27135
823.69	27055
823.83	27089
823.97	26937
824.11	26838
824.25	26918
824.389	26853
824.529	26914
824.669	26868
824.809	26998
824.949	26944
825.089	26902
825.228	26963
825.368	26693
825.508	26762
825.648	26811
825.787	26845
825.927	26743
826.067	26648
826.206	26796
826.346	26811
826.485	26651
826.625	26830
826.765	26811
826.904	26861
827.044	26568
827.183	26587
827.323	26503
827.462	26442
827.601	26484
827.741	26453
827.88	26609
828.02	26385
828.159	26431
828.298	26606
828.437	26606
828.577	26408
828.716	26697
828.855	26480
828.994	26210
829.134	26168
829.273	26195
829.412	26092
829.551	26161
829.69	26176
829.829	26271
829.968	26313
830.107	26225
830.246	26256
830.385	26221
830.524	26256
830.663	26020
830.802	25841
830.941	25803
831.08	25685
831.219	25871
831.357	25871
831.496	26039
831.635	25860
831.774	25628
831.913	25559
832.051	25651
832.19	25601
832.329	25422
832.467	25464
832.606	25537
832.744	25441
832.883	25449
833.022	25320
833.16	25537
833.299	25403
833.437	25479
833.576	25514
833.714	25571
833.852	25647
833.991	25457
834.129	25632
834.267	25609
834.406	25472
834.544	25575
834.682	25563
834.821	25479
834.959	25594
835.097	25438
835.235	25540
835.373	25525
835.511	25388
835.65	25491
835.788	25460
835.926	25213
836.064	25148
836.202	25202
836.34	25411
836.478	25426
836.615	25293
836.753	25251
836.891	25373
837.029	25327
837.167	25259
837.305	25301
837.443	25278
837.58	25202
837.718	25270
837.856	25148
837.993	24962
838.131	25069
838.269	25053
838.406	25000
838.544	24966
838.681	24726
838.819	24871
838.956	24612
839.094	24623
839.231	24585
839.369	24928
839.506	25099
839.643	24833
839.781	24597
839.918	24566
840.055	24589
840.193	24654
840.33	24479
840.467	24601
840.604	24738
840.742	24787
840.879	24369
841.016	24388
841.153	24582
841.29	24654
841.427	24566
841.564	24517
841.701	24604
841.838	24505
841.975	24445
842.112	24525
842.249	24369
842.385	24350
842.522	24369
842.659	24376
842.796	24174
842.933	24346
843.069	24239
843.206	24251
843.343	24289
843.479	24254
843.616	24365
843.752	24152
843.889	24057
844.025	24087
844.162	24136
844.298	24110
844.435	24102
844.571	23950
844.708	23950
844.844	24376
844.98	24277
845.117	24155
845.253	23977
845.389	23927
845.525	23958
845.661	23954
845.798	23828
845.934	23859
846.07	23722
846.206	23851
846.342	23912
846.478	23733
846.614	23512
846.75	23417
846.886	23501
847.022	23577
847.158	23490
847.294	23577
847.429	23509
847.565	23433
847.701	23722
847.837	23292
847.972	23174
848.108	23307
848.244	23288
848.379	23185
848.515	22984
848.65	23052
848.786	23064
848.921	23041
849.057	23155
849.192	23143
849.328	23128
849.463	23231
849.598	23098
849.734	22938
849.869	23018
850.004	22812
850.14	22930
850.275	22923
850.41	22824
850.545	22793
850.68	22797
850.815	23075
850.95	22930
851.085	23132
851.22	22927
851.355	22949
851.49	22892
851.625	22968
851.76	22843
851.895	22805
852.03	22843
852.165	22885
852.299	23067
852.434	23056
852.569	22930
852.703	22892
852.838	22953
852.973	23121
853.107	22961
853.242	22866
853.376	22778
853.511	22622
853.645	22736
853.78	22748
853.914	22698
854.048	22672
854.183	22778
854.317	22740
854.451	22850
854.585	22710
854.72	22664
854.854	22885
854.988	22729
855.122	22664
855.256	22653
855.39	22679
855.524	22687
855.658	22831
855.792	22733
855.926	22656
856.06	22889
856.194	22653
856.327	22740
856.461	22577
856.595	22683
856.729	22672
856.862	22733
856.996	22733
857.13	22854
857.263	22911
857.397	22763
857.53	22694
857.664	22752
857.797	22740
857.931	22858
858.064	22683
858.197	22774
858.331	22809
858.464	22626
858.597	22516
858.731	22729
858.864	22660
858.997	22725
859.13	22668
859.263	22748
859.396	22767
859.529	22729
859.662	22672
859.795	22596
859.928	22839
860.061	22812
860.194	22854
860.327	22809
860.46	22656
860.592	22862
860.725	22927
860.858	22873
860.99	22706
861.123	22615
861.256	22622
861.388	22683
861.521	23337
861.653	22569
861.786	22485
861.918	22561
862.05	22649
862.183	22710
862.315	22687
862.447	22740
862.58	22565
862.712	22363
862.844	22451
862.976	22440
863.108	22546
863.24	22934
863.372	22424
863.504	22405
863.636	22310
863.768	22459
863.9	22367
864.032	22333
864.164	22371
864.296	22413
864.428	22470
864.559	22489
864.691	22459
864.823	22386
864.954	22398
865.086	22436
865.217	22276
865.349	22181
865.48	22246
865.612	22375
865.743	22440
865.875	22299
866.006	22169
866.137	22291
866.269	22276
866.4	22333
866.531	22105
866.662	22200
866.793	22230
866.924	22322
867.055	22242
867.186	22226
867.317	22116
867.448	22158
867.579	22131
867.71	22116
867.841	22166
867.972	22257
868.103	22109
868.233	22207
868.364	22150
868.495	22257
868.625	22470
868.756	22557
868.886	22341
869.017	22394
869.147	22580
869.278	22649
869.408	22455
869.539	22417
869.669	22462
869.799	22599
869.929	22596
870.06	22592
870.19	22748
870.32	22801
870.45	22733
870.58	22824
870.71	22904
870.84	22885
870.97	22873
871.1	22854
871.23	22987
871.36	22999
871.489	22877
871.619	23056
871.749	22927
871.879	23124
872.008	23067
872.138	23067
872.267	23113
872.397	22854
872.526	22930
872.656	22828
872.785	22965
872.915	23006
873.044	23067
873.173	23037
873.303	23147
873.432	23132
873.561	23109
873.69	23090
873.819	23010
873.948	23261
874.077	23075
874.206	23090
874.335	23159
874.464	23143
874.593	23242
874.722	23261
874.851	23261
874.979	23337
875.108	23311
875.237	23193
875.365	23235
875.494	23254
875.623	23330
875.751	23315
875.88	23349
876.008	23337
876.136	23551
876.265	23676
876.393	23817
876.521	23707
876.65	23901
876.778	23634
876.906	23600
877.034	23535
877.162	23638
877.29	23547
877.418	23600
877.546	23691
877.674	23627
877.802	23471
877.93	23547
878.058	23493
878.185	23421
878.313	23551
878.441	23452
878.568	23421
878.696	23391
878.824	23570
878.951	23646
879.079	23737
879.206	23802
879.333	23798
879.461	23638
879.588	23756
879.715	23760
879.842	23885
879.97	23707
880.097	23398
880.224	23315
880.351	23318
880.478	23455
880.605	23478
880.732	23429
880.859	23691
880.986	23364
881.112	23528
881.239	23193
881.366	23216
881.493	23052
881.619	23006
881.746	22972
881.872	23060
881.999	22915
882.125	22980
882.252	22991
882.378	23037
882.505	23086
882.631	22774
882.757	22660
882.883	22736
883.01	22774
883.136	22664
883.262	22615
883.388	22455
883.514	22687
883.64	22622
883.766	22580
883.892	22386
884.018	22603
884.143	22603
884.269	22622
884.395	22470
884.52	22329
884.646	22272
884.772	22265
884.897	22211
885.023	22379
885.148	22379
885.274	22367
885.399	22390
885.524	22242
885.65	22356
885.775	22352
885.9	22230
886.025	22516
886.15	22386
886.275	22249
886.4	22173
886.525	22173
886.65	22246
886.775	22048
886.9	22451
887.025	22485
887.149	22272
887.274	22055
887.399	22006
887.523	22013
887.648	22002
887.773	21994
887.897	21994
888.021	22131
888.146	21953
888.27	22109
888.395	22055
888.519	22150
888.643	21972
888.767	22135
888.891	21956
889.015	21846
889.139	21915
889.263	21842
889.387	21861
889.511	22044
889.635	21869
889.759	21800
889.883	21797
890.006	21808
890.13	21827
890.254	21800
890.377	21736
890.501	21652
890.624	21705
890.748	21694
890.871	21523
890.995	21340
891.118	21252
891.241	21363
891.364	21359
891.488	21454
891.611	21397
891.734	21405
891.857	21428
891.98	21351
892.103	21431
892.226	21294
892.349	21386
892.471	21161
892.594	21298
892.717	21382
892.839	21165
892.962	21207
893.085	21325
893.207	21241
893.33	21131
893.452	21275
893.575	21252
893.697	21256
893.819	21374
893.941	21416
894.064	21348
894.186	21127
894.308	21291
894.43	21287
894.552	21378
894.674	21370
894.796	21203
894.918	21222
895.04	21218
895.161	21310
895.283	21298
895.405	21188
895.526	21157
895.648	21249
895.769	21291
895.891	21275
896.012	21329
896.134	21268
896.255	21268
896.376	21150
896.498	21199
896.619	21260
896.74	21237
896.861	21275
896.982	21481
897.103	21755
897.224	21443
897.345	21317
897.466	21393
897.587	21401
897.708	21618
897.828	21542
897.949	21317
898.07	21237
898.19	21344
898.311	21568
898.431	21336
898.552	21504
898.672	21405
898.792	21549
898.913	21450
899.033	21458
899.153	21359
899.273	21081
899.393	21222
899.513	21142
899.633	21249
899.753	21131
899.873	21104
899.993	21169
900.113	21074
900.232	21138
900.352	20994
900.472	21074
900.591	20804
900.711	20925
900.83	20807
900.95	21024
901.069	21070
901.189	20777
901.308	20549
901.427	20495
901.546	20473
901.665	20541
901.784	20457
901.904	20400
902.023	20309
902.141	20100
902.26	20020
902.379	20119
902.498	19917
902.617	20016
902.735	20012
902.854	19902
902.973	19913
903.091	19628
903.21	19647
903.328	19708
903.446	19529
903.565	19533
903.683	19559
903.801	19354
903.919	19483
904.038	19293
904.156	19217
904.274	19244
904.392	19255
904.51	19187
904.627	19164
904.745	19164
904.863	19293
904.981	18993
905.098	18856
905.216	18844
905.334	18897
905.451	18989
905.569	18833
905.686	18810
905.803	18913
905.921	18639
906.038	18703
906.155	18612
906.272	18498
906.389	18582
906.506	18410
906.623	18399
906.74	18422
906.857	18239
906.974	18281
907.091	18536
907.208	18517
907.324	18483
907.441	18334
907.557	18197
907.674	18053
907.79	18038
907.907	18083
908.023	18068
908.139	18003
908.256	18064
908.372	17889
908.488	17942
908.604	17870
908.72	17767
908.836	17771
908.952	17786
909.068	17710
909.184	17771
909.3	17802
909.415	17882
909.531	17764
909.647	17558
909.762	17471
909.878	17554
909.993	17417
910.108	17455
910.224	17474
910.339	17448
910.454	17345
910.57	17376
910.685	17273
910.8	17505
910.915	17486
911.03	17303
911.145	17162
911.259	17048
911.374	17132
911.489	17094
911.604	16873
911.718	16900
911.833	16862
911.947	16763
912.062	16672
912.176	16892
912.291	16858
912.405	16862
912.519	17124
912.633	16957
912.748	16839
912.862	16812
912.976	16649
913.09	16523
913.204	16546
913.318	16675
913.431	16755
913.545	16664
913.659	16649
913.772	16527
913.886	16588
914	16371
914.113	16508
914.226	16542
914.34	16382
914.453	16253
914.566	16417
914.68	16337
914.793	16200
914.906	16074
915.019	16010
915.132	15911
915.245	15968
915.358	15949
915.47	15953
915.583	16025
915.696	16006
915.809	16112
915.921	16074
916.034	16021
916.146	15983
916.259	15907
916.371	15945
916.483	15945
916.595	15797
916.708	15838
916.82	15823
916.932	15724
917.044	15747
917.156	15739
917.268	15641
917.38	15732
917.491	15557
917.603	15625
917.715	15751
917.826	15652
917.938	15549
918.049	15515
918.161	15629
918.272	15644
918.384	15698
918.495	15538
918.606	15462
918.717	15306
918.828	15412
918.939	15351
919.05	15245
919.161	15279
919.272	15218
919.383	15226
919.494	15382
919.604	15622
919.715	15405
919.826	15203
919.936	15393
920.047	15340
920.157	15332
920.267	15572
920.378	15260
920.488	15348
920.598	15458
920.708	15507
920.818	15530
920.928	15466
921.038	15572
921.148	15523
921.258	15329
921.368	15188
921.477	15077
921.587	15055
921.697	14925
921.806	14921
921.916	14887
922.025	14720
922.134	14697
922.244	14552
922.353	14731
922.462	14610
922.571	14389
922.68	14366
922.789	14385
922.898	14362
923.007	14164
923.116	14381
923.224	14336
923.333	14263
923.442	14164
923.55	14229
923.659	14111
923.767	14233
923.876	14077
923.984	14168
924.092	13997
924.201	14103
924.309	14119
924.417	13989
924.525	13932
924.633	14058
924.741	14815
924.849	13761
924.956	13940
925.064	13769
925.172	13620
925.279	13693
925.387	13715
925.494	13658
925.602	13909
925.709	13753
925.816	13563
925.924	13662
926.031	13750
926.138	13521
926.245	13647
926.352	13495
926.459	13803
926.566	13666
926.673	13578
926.779	13464
926.886	13388
926.993	13278
927.099	13255
927.206	13293
927.312	13084
927.419	13228
927.525	13198
927.631	13247
927.737	13145
927.843	13179
927.95	12966
928.056	13038
928.162	13046
928.267	13069
928.373	13643
928.479	13084
928.585	12878
928.69	13008
928.796	12970
928.901	12867
929.007	12768
929.112	12825
929.218	12852
929.323	12787
929.428	12703
929.533	12909
929.638	12669
929.743	12669
929.848	12730
929.953	12593
930.058	12635
930.163	12399
930.267	12441
930.372	12521
930.477	12285
930.581	12578
930.685	12517
930.79	12243
930.894	12330
930.998	12216
931.103	12399
931.207	12095
931.311	11908
931.415	11794
931.519	11710
931.623	11615
