Data from test_V78500241_3498.txt Node
Date: Fri Mar 25 16:06:02 CST 2022
User: usil
Spectrometer: V785-0024
Trigger mode: 0
Integration Time (sec): 4.000000E-1
Scans to average: 1
Nonlinearity correction enabled: false
Boxcar width: 0
Storing dark spectrum: false
XAxis mode: Wavelengths
Number of Pixels in Spectrum: 1024
>>>>>Begin Spectral Data<<<<<
801.071	29018
801.214	28896
801.356	28679
801.499	28542
801.641	28424
801.783	28542
801.926	28459
802.068	28455
802.211	28478
802.353	28246
802.496	28253
802.638	28253
802.78	28234
802.923	28063
803.065	28139
803.208	28105
803.35	28200
803.492	28268
803.635	28421
803.777	28204
803.919	28504
804.061	28740
804.204	28512
804.346	28504
804.488	28363
804.63	28531
804.773	28432
804.915	28417
805.057	28603
805.199	28500
805.341	28641
805.483	28672
805.626	28577
805.768	28649
805.91	28717
806.052	28641
806.194	28862
806.336	28752
806.478	28694
806.62	28687
806.762	28866
806.904	28946
807.046	29178
807.188	28911
807.33	29056
807.472	29246
807.614	29060
807.756	29178
807.898	28949
808.04	28892
808.182	28869
808.324	28923
808.465	29079
808.607	29147
808.749	29349
808.891	29387
809.033	29524
809.174	29490
809.316	29193
809.458	29345
809.6	29292
809.741	29414
809.883	29535
810.025	29802
810.166	29779
810.308	29649
810.45	29592
810.591	29516
810.733	29383
810.875	29322
811.016	29307
811.158	29254
811.299	29288
811.441	29535
811.582	29608
811.724	29364
811.865	29402
812.007	29261
812.148	29414
812.29	29433
812.431	29573
812.573	29874
812.714	29779
812.855	29878
812.997	29954
813.138	30117
813.279	30018
813.421	29954
813.562	29866
813.703	29630
813.845	29577
813.986	29250
814.127	29200
814.268	29124
814.41	29159
814.551	29003
814.692	29189
814.833	29033
814.974	28923
815.115	29151
815.256	29033
815.397	28965
815.539	28923
815.68	28946
815.821	28888
815.962	28957
816.103	28930
816.244	28793
816.385	28542
816.526	28698
816.666	28592
816.807	28485
816.948	28489
817.089	28580
817.23	28535
817.371	28310
817.512	28440
817.653	28314
817.793	28325
817.934	28424
818.075	28565
818.216	28466
818.356	28238
818.497	28303
818.638	28265
818.778	28204
818.919	28166
819.06	28382
819.2	28314
819.341	28436
819.481	28432
819.622	28527
819.762	28748
819.903	28694
820.043	28618
820.184	28489
820.324	28535
820.465	28603
820.605	28645
820.746	28577
820.886	28413
821.026	28580
821.167	28428
821.307	28535
821.447	28462
821.588	28386
821.728	28147
821.868	28021
822.008	27880
822.149	27937
822.289	27880
822.429	27591
822.569	27648
822.709	27644
822.849	27370
822.99	27454
823.13	27416
823.27	27348
823.41	27195
823.55	27100
823.69	27154
823.83	27184
823.97	27237
824.11	27077
824.25	26979
824.389	27047
824.529	27020
824.669	27047
824.809	27203
824.949	27077
825.089	27161
825.228	26960
825.368	26887
825.508	27028
825.648	26899
825.787	27001
825.927	27058
826.067	26975
826.206	26986
826.346	26967
826.485	26971
826.625	26921
826.765	27173
826.904	26918
827.044	26758
827.183	26686
827.323	26648
827.462	26537
827.601	26651
827.741	26629
827.88	26724
828.02	26499
828.159	26674
828.298	26796
828.437	26807
828.577	26640
828.716	26868
828.855	26568
828.994	26408
829.134	26415
829.273	26503
829.412	26320
829.551	26263
829.69	26385
829.829	26377
829.968	26511
830.107	26499
830.246	26320
830.385	26282
830.524	26233
830.663	26267
830.802	26069
830.941	25944
831.08	25913
831.219	26008
831.357	26039
831.496	26202
831.635	26039
831.774	25894
831.913	25845
832.051	25849
832.19	25772
832.329	25769
832.467	25666
832.606	25449
832.744	25601
832.883	25514
833.022	25537
833.16	25639
833.299	25635
833.437	25689
833.576	25613
833.714	25639
833.852	25700
833.991	25662
834.129	25822
834.267	25643
834.406	25715
834.544	25685
834.682	25769
834.821	25700
834.959	25788
835.097	25655
835.235	25712
835.373	25647
835.511	25525
835.65	25635
835.788	25464
835.926	25422
836.064	25225
836.202	25362
836.34	25525
836.478	25556
836.615	25518
836.753	25635
836.891	25514
837.029	25578
837.167	25453
837.305	25316
837.443	25377
837.58	25354
837.718	25388
837.856	25320
837.993	25270
838.131	25403
838.269	25255
838.406	25274
838.544	25053
838.681	25099
838.819	25084
838.956	24730
839.094	24878
839.231	24825
839.369	24924
839.506	25129
839.643	24890
839.781	24787
839.918	24696
840.055	24776
840.193	24776
840.33	24745
840.467	24787
840.604	24650
840.742	25034
840.879	24559
841.016	24627
841.153	24486
841.29	24802
841.427	24692
841.564	24726
841.701	24700
841.838	24589
841.975	24616
842.112	24650
842.249	24593
842.385	24498
842.522	24852
842.659	24604
842.796	24437
842.933	24391
843.069	24410
843.206	24342
843.343	24517
843.479	24471
843.616	24380
843.752	24201
843.889	24338
844.025	24232
844.162	24228
844.298	24319
844.435	24342
844.571	24285
844.708	24201
844.844	24330
844.98	24251
845.117	24315
845.253	24148
845.389	24167
845.525	24083
845.661	24216
845.798	24087
845.934	23958
846.07	23832
846.206	23999
846.342	24129
846.478	23980
846.614	23790
846.75	23737
846.886	23608
847.022	23687
847.158	23767
847.294	23809
847.429	23699
847.565	23676
847.701	23980
847.837	23307
847.972	23303
848.108	23433
848.244	23493
848.379	23284
848.515	23235
848.65	23159
848.786	23353
848.921	23231
849.057	23311
849.192	23334
849.328	23360
849.463	23178
849.598	23170
849.734	23132
849.869	23044
850.004	22968
850.14	23018
850.275	23056
850.41	22968
850.545	22919
850.68	23029
850.815	22976
850.95	23086
851.085	23166
851.22	23185
851.355	23098
851.49	23060
851.625	22927
851.76	23022
851.895	22995
852.03	22824
852.165	22968
852.299	23048
852.434	23121
852.569	23227
852.703	23033
852.838	23147
852.973	23098
853.107	23090
853.242	22942
853.376	22919
853.511	22805
853.645	22774
853.78	23029
853.914	22790
854.048	22908
854.183	22942
854.317	22911
854.451	23105
854.585	22820
854.72	22828
854.854	22957
854.988	22736
855.122	22847
855.256	22763
855.39	22839
855.524	22854
855.658	22824
855.792	22843
855.926	22892
856.06	22877
856.194	23006
856.327	22892
856.461	22721
856.595	22733
856.729	22892
856.862	22957
856.996	22984
857.13	23025
857.263	22957
857.397	22934
857.53	22858
857.664	22881
857.797	22942
857.931	22938
858.064	22850
858.197	22850
858.331	22866
858.464	22908
858.597	22767
858.731	22873
858.864	22850
858.997	22809
859.13	22862
859.263	22896
859.396	22862
859.529	22915
859.662	22938
859.795	22790
859.928	22831
860.061	23010
860.194	23079
860.327	22942
860.46	22908
860.592	22972
860.725	23018
860.858	23067
860.99	22858
861.123	22847
861.256	22774
861.388	22809
861.521	23444
861.653	22733
861.786	22733
861.918	22733
862.05	22717
862.183	22748
862.315	22771
862.447	22774
862.58	22717
862.712	22634
862.844	22561
862.976	22588
863.108	22698
863.24	22904
863.372	22306
863.504	22550
863.636	22672
863.768	22596
863.9	22596
864.032	22493
864.164	22478
864.296	22565
864.428	22561
864.559	22611
864.691	22641
864.823	22592
864.954	22489
865.086	22565
865.217	22493
865.349	22375
865.48	22459
865.612	22531
865.743	22672
865.875	22459
866.006	22432
866.137	22405
866.269	22432
866.4	22394
866.531	22352
866.662	22295
866.793	22360
866.924	22261
867.055	22405
867.186	22386
867.317	22337
867.448	22295
867.579	22325
867.71	22337
867.841	22177
867.972	22344
868.103	22337
868.233	22440
868.364	22322
868.495	22489
868.625	22554
868.756	22782
868.886	22565
869.017	22592
869.147	22588
869.278	22736
869.408	22656
869.539	22626
869.669	22767
869.799	22679
869.929	22771
870.06	22782
870.19	22854
870.32	22843
870.45	22892
870.58	23086
870.71	23098
870.84	23048
870.97	23060
871.1	22980
871.23	23239
871.36	23151
871.489	23132
871.619	23109
871.749	23235
871.879	23273
872.008	23376
872.138	23079
872.267	23140
872.397	23128
872.526	23071
872.656	22984
872.785	22984
872.915	23299
873.044	23284
873.173	23170
873.303	23246
873.432	23296
873.561	23387
873.69	23235
873.819	23189
873.948	23296
874.077	23193
874.206	23170
874.335	23208
874.464	23330
874.593	23459
874.722	23315
874.851	23436
874.979	23376
875.108	23562
875.237	23258
875.365	23315
875.494	23356
875.623	23600
875.751	23505
875.88	23440
876.008	23474
876.136	23642
876.265	23882
876.393	23946
876.521	23851
876.65	23927
876.778	23851
876.906	23771
877.034	23733
877.162	23870
877.29	23779
877.418	23745
877.546	23733
877.674	23745
877.802	23821
877.93	23897
878.058	23695
878.185	23646
878.313	23638
878.441	23783
878.568	23589
878.696	23608
878.824	23889
878.951	23882
879.079	23923
879.206	24140
879.333	23920
879.461	23745
879.588	23889
879.715	24041
879.842	24022
879.97	23802
880.097	23653
880.224	23672
880.351	23589
880.478	23554
880.605	23570
880.732	23531
880.859	23786
880.986	23684
881.112	23687
881.239	23322
881.366	23288
881.493	23235
881.619	23170
881.746	23212
881.872	23079
881.999	23117
882.125	22999
882.252	23143
882.378	23064
882.505	23185
882.631	22915
882.757	22786
882.883	22946
883.01	22839
883.136	22809
883.262	22675
883.388	22691
883.514	22664
883.64	22740
883.766	22691
883.892	22512
884.018	22569
884.143	22759
884.269	22873
884.395	22481
884.52	22322
884.646	22424
884.772	22417
884.897	22261
885.023	22485
885.148	22508
885.274	22546
885.399	22443
885.524	22459
885.65	22421
885.775	22466
885.9	22428
886.025	22584
886.15	22542
886.275	22329
886.4	22337
886.525	22447
886.65	22299
886.775	22356
886.9	22523
887.025	22611
887.149	22360
887.274	22265
887.399	22265
887.523	22238
887.648	22173
887.773	22135
887.897	22090
888.021	22124
888.146	22044
888.27	22329
888.395	22253
888.519	22173
888.643	22329
888.767	22257
888.891	22067
889.015	22044
889.139	21899
889.263	21979
889.387	22158
889.511	22196
889.635	22082
889.759	21972
889.883	21956
890.006	21994
890.13	22040
890.254	22040
890.377	21926
890.501	21713
890.624	21682
890.748	21842
890.871	21625
890.995	21424
891.118	21382
891.241	21724
891.364	21481
891.488	21743
891.611	21488
891.734	21466
891.857	21641
891.98	21622
892.103	21504
892.226	21583
892.349	21439
892.471	21332
892.594	21329
892.717	21496
892.839	21397
892.962	21363
893.085	21549
893.207	21454
893.33	21355
893.452	21332
893.575	21435
893.697	21412
893.819	21515
893.941	21564
894.064	21492
894.186	21374
894.308	21344
894.43	21538
894.552	21458
894.674	21473
894.796	21283
894.918	21443
895.04	21405
895.161	21481
895.283	21359
895.405	21298
895.526	21317
895.648	21458
895.769	21363
895.891	21397
896.012	21492
896.134	21313
896.255	21435
896.376	21367
896.498	21336
896.619	21367
896.74	21416
896.861	21450
896.982	21648
897.103	21846
897.224	21458
897.345	21679
897.466	21599
897.587	21504
897.708	21622
897.828	21606
897.949	21507
898.07	21485
898.19	21424
898.311	21690
898.431	21526
898.552	21568
898.672	21504
898.792	21641
898.913	21599
899.033	21519
899.153	21363
899.273	21279
899.393	21386
899.513	21332
899.633	21310
899.753	21397
899.873	21214
899.993	21405
900.113	21199
900.232	21226
900.352	21119
900.472	21104
900.591	20998
900.711	21195
900.83	20998
900.95	21230
901.069	21142
901.189	20948
901.308	20743
901.427	20606
901.546	20640
901.665	20530
901.784	20724
901.904	20537
902.023	20370
902.141	20358
902.26	20157
902.379	20214
902.498	20210
902.617	20016
902.735	20077
902.854	19974
902.973	20016
903.091	19818
903.21	19811
903.328	19674
903.446	19689
903.565	19620
903.683	19635
903.801	19514
903.919	19514
904.038	19514
904.156	19415
904.274	19510
904.392	19350
904.51	19308
904.627	19168
904.745	19407
904.863	19350
904.981	19179
905.098	18947
905.216	19027
905.334	19034
905.451	19103
905.569	18977
905.686	19122
905.803	18977
905.921	18859
906.038	18886
906.155	18867
906.272	18658
906.389	18631
906.506	18669
906.623	18547
906.74	18486
906.857	18418
906.974	18467
907.091	18692
907.208	18661
907.324	18658
907.441	18460
907.557	18296
907.674	18289
907.79	18201
907.907	18266
908.023	18296
908.139	18228
908.256	18140
908.372	18140
908.488	18091
908.604	18079
908.72	17954
908.836	18007
908.952	17950
909.068	17988
909.184	18125
909.3	17920
909.415	18045
909.531	17878
909.647	17771
909.762	17634
909.878	17554
909.993	17745
910.108	17585
910.224	17581
910.339	17691
910.454	17482
910.57	17463
910.685	17330
910.8	17687
910.915	17627
911.03	17467
911.145	17277
911.259	17277
911.374	17269
911.489	17242
911.604	17079
911.718	16923
911.833	16987
911.947	16885
912.062	16847
912.176	16972
912.291	16934
912.405	16976
912.519	17185
912.633	17052
912.748	16991
912.862	17064
912.976	16736
913.09	16675
913.204	16744
913.318	16847
913.431	16881
913.545	16843
913.659	16900
913.772	16752
913.886	16580
914	16573
914.113	16615
914.226	16782
914.34	16649
914.453	16455
914.566	16599
914.68	16512
914.793	16424
914.906	16200
915.019	16204
915.132	16093
915.245	16093
915.358	16116
915.47	16192
915.583	16200
915.696	16265
915.809	16219
915.921	16333
916.034	16082
916.146	16086
916.259	15975
916.371	16029
916.483	16078
916.595	15968
916.708	15960
916.82	15926
916.932	15930
917.044	15861
917.156	15800
917.268	15808
917.38	15720
917.491	15789
917.603	15785
917.715	15785
917.826	15850
917.938	15709
918.049	15603
918.161	15717
918.272	15854
918.384	15717
918.495	15667
918.606	15500
918.717	15488
918.828	15519
918.939	15542
919.05	15321
919.161	15462
919.272	15329
919.383	15340
919.494	15458
919.604	15614
919.715	15496
919.826	15294
919.936	15332
920.047	15500
920.157	15485
920.267	15648
920.378	15587
920.488	15405
920.598	15557
920.708	15785
920.818	15576
920.928	15496
921.038	15625
921.148	15633
921.258	15477
921.368	15218
921.477	15123
921.587	15138
921.697	15020
921.806	15112
921.916	14979
922.025	14792
922.134	14838
922.244	14796
922.353	14864
922.462	14720
922.571	14556
922.68	14381
922.789	14381
922.898	14427
923.007	14240
923.116	14450
923.224	14404
923.333	14259
923.442	14183
923.55	14191
923.659	14256
923.767	14298
923.876	14221
923.984	14282
924.092	14073
924.201	14210
924.309	14180
924.417	14130
924.525	14046
924.633	14111
924.741	15001
924.849	13871
924.956	13928
925.064	13788
925.172	13795
925.279	13845
925.387	13845
925.494	13761
925.602	13830
925.709	13837
925.816	13685
925.924	13731
926.031	13784
926.138	13742
926.245	13772
926.352	13681
926.459	13799
926.566	13780
926.673	13655
926.779	13556
926.886	13575
926.993	13358
927.099	13320
927.206	13247
927.312	13228
927.419	13259
927.525	13293
927.631	13350
927.737	13175
927.843	13110
927.95	13152
928.056	13118
928.162	13145
928.267	13046
928.373	13715
928.479	13107
928.585	13000
928.69	13095
928.796	13152
928.901	12970
929.007	12867
929.112	12954
929.218	12920
929.323	12795
929.428	12783
929.533	12932
929.638	12791
929.743	12795
929.848	12878
929.953	12802
930.058	12642
930.163	12540
930.267	12490
930.372	12620
930.477	12372
930.581	12650
930.685	12608
930.79	12414
930.894	12433
930.998	12346
931.103	12517
931.207	12121
931.311	12030
931.415	11874
931.519	11710
931.623	11649
