Data from test_V78500241_3222.txt Node
Date: Fri Mar 25 16:04:07 CST 2022
User: usil
Spectrometer: V785-0024
Trigger mode: 0
Integration Time (sec): 4.000000E-1
Scans to average: 1
Nonlinearity correction enabled: false
Boxcar width: 0
Storing dark spectrum: false
XAxis mode: Wavelengths
Number of Pixels in Spectrum: 1024
>>>>>Begin Spectral Data<<<<<
801.071	28915
801.214	28721
801.356	28432
801.499	28337
801.641	28318
801.783	28401
801.926	28375
802.068	28428
802.211	28215
802.353	28303
802.496	28109
802.638	28116
802.78	27968
802.923	28029
803.065	27975
803.208	27911
803.35	28029
803.492	28059
803.635	28177
803.777	28196
803.919	28226
804.061	28557
804.204	28238
804.346	28185
804.488	28116
804.63	28287
804.773	28185
804.915	28280
805.057	28303
805.199	28124
805.341	28253
805.483	28443
805.626	28325
805.768	28360
805.91	28284
806.052	28291
806.194	28306
806.336	28561
806.478	28356
806.62	28455
806.762	28672
806.904	28740
807.046	28919
807.188	28900
807.33	28896
807.472	28976
807.614	28736
807.756	28809
807.898	28687
808.04	28641
808.182	28538
808.324	28622
808.465	28725
808.607	28854
808.749	29052
808.891	29170
809.033	29379
809.174	29162
809.316	29010
809.458	29227
809.6	29056
809.741	29204
809.883	29231
810.025	29296
810.166	29372
810.308	29398
810.45	29455
810.591	29303
810.733	29189
810.875	29018
811.016	29128
811.158	29094
811.299	29189
811.441	29200
811.582	29170
811.724	29121
811.865	29010
812.007	29132
812.148	29113
812.29	29193
812.431	29303
812.573	29345
812.714	29547
812.855	29661
812.997	29535
813.138	29866
813.279	29817
813.421	29676
813.562	29604
813.703	29543
813.845	29383
813.986	29128
814.127	28771
814.268	28877
814.41	28908
814.551	28744
814.692	28930
814.833	28797
814.974	28812
815.115	28896
815.256	28740
815.397	28828
815.539	28729
815.68	28664
815.821	28573
815.962	28630
816.103	28596
816.244	28459
816.385	28310
816.526	28421
816.666	28124
816.807	27991
816.948	28002
817.089	28207
817.23	28147
817.371	28204
817.512	28055
817.653	28116
817.793	28082
817.934	28173
818.075	28063
818.216	28086
818.356	28188
818.497	28063
818.638	27960
818.778	27949
818.919	27930
819.06	28010
819.2	28040
819.341	28261
819.481	28055
819.622	28371
819.762	28660
819.903	28428
820.043	28398
820.184	28215
820.324	28382
820.465	28405
820.605	28417
820.746	28348
820.886	28166
821.026	28249
821.167	28280
821.307	28318
821.447	28093
821.588	27922
821.728	27987
821.868	27705
822.008	27618
822.149	27648
822.289	27667
822.429	27378
822.569	27420
822.709	27397
822.849	27142
822.99	27138
823.13	27184
823.27	27036
823.41	27047
823.55	26842
823.69	26948
823.83	26902
823.97	26819
824.11	26705
824.25	26815
824.389	26731
824.529	26819
824.669	26823
824.809	26834
824.949	26960
825.089	26834
825.228	26876
825.368	26708
825.508	26651
825.648	26724
825.787	26739
825.927	26636
826.067	26636
826.206	26583
826.346	26670
826.485	26689
826.625	26606
826.765	26705
826.904	26640
827.044	26469
827.183	26423
827.323	26408
827.462	26389
827.601	26473
827.741	26400
827.88	26537
828.02	26164
828.159	26404
828.298	26305
828.437	26575
828.577	26240
828.716	26583
828.855	26317
828.994	26180
829.134	26035
829.273	26111
829.412	26100
829.551	26062
829.69	26218
829.829	26081
829.968	26050
830.107	26206
830.246	26084
830.385	26001
830.524	26119
830.663	25788
830.802	25708
830.941	25746
831.08	25670
831.219	25746
831.357	25780
831.496	25864
831.635	25727
831.774	25514
831.913	25514
832.051	25506
832.19	25369
832.329	25502
832.467	25441
832.606	25225
832.744	25297
832.883	25369
833.022	25240
833.16	25270
833.299	25392
833.437	25293
833.576	25563
833.714	25472
833.852	25365
833.991	25445
834.129	25559
834.267	25396
834.406	25377
834.544	25457
834.682	25362
834.821	25388
834.959	25597
835.097	25312
835.235	25468
835.373	25396
835.511	25289
835.65	25331
835.788	25217
835.926	25168
836.064	25061
836.202	25076
836.34	25171
836.478	25445
836.615	25194
836.753	25312
836.891	25335
837.029	25202
837.167	25141
837.305	25221
837.443	24992
837.58	25118
837.718	25137
837.856	25152
837.993	25031
838.131	25057
838.269	24973
838.406	25046
838.544	24905
838.681	24703
838.819	24669
838.956	24502
839.094	24673
839.231	24570
839.369	24901
839.506	24951
839.643	24665
839.781	24563
839.918	24555
840.055	24650
840.193	24517
840.33	24445
840.467	24399
840.604	24486
840.742	24544
840.879	24346
841.016	24334
841.153	24270
841.29	24559
841.427	24426
841.564	24403
841.701	24448
841.838	24365
841.975	24357
842.112	24330
842.249	24243
842.385	24194
842.522	24426
842.659	24167
842.796	24178
842.933	24171
843.069	24155
843.206	24258
843.343	24235
843.479	24144
843.616	24220
843.752	24015
843.889	24003
844.025	24057
844.162	23889
844.298	24125
844.435	23878
844.571	23878
844.708	24018
844.844	24254
844.98	24155
845.117	23969
845.253	23920
845.389	23859
845.525	23908
845.661	23824
845.798	23733
845.934	23634
846.07	23707
846.206	23729
846.342	23809
846.478	23676
846.614	23486
846.75	23395
846.886	23433
847.022	23577
847.158	23455
847.294	23448
847.429	23577
847.565	23425
847.701	23589
847.837	23174
847.972	23056
848.108	23212
848.244	23166
848.379	22892
848.515	23083
848.65	23033
848.786	22965
848.921	22961
849.057	23105
849.192	23109
849.328	23113
849.463	22953
849.598	23037
849.734	22809
849.869	22752
850.004	22892
850.14	22805
850.275	22702
850.41	22656
850.545	22645
850.68	22812
850.815	22611
850.95	22740
851.085	22930
851.22	22835
851.355	22854
851.49	22748
851.625	22713
851.76	22584
851.895	22774
852.03	22786
852.165	22637
852.299	22717
852.434	22908
852.569	22881
852.703	22801
852.838	22866
852.973	22892
853.107	22873
853.242	22702
853.376	22672
853.511	22577
853.645	22634
853.78	22782
853.914	22538
854.048	22508
854.183	22554
854.317	22744
854.451	22889
854.585	22698
854.72	22588
854.854	22656
854.988	22447
855.122	22649
855.256	22519
855.39	22561
855.524	22611
855.658	22721
855.792	22584
855.926	22645
856.06	22618
856.194	22672
856.327	22573
856.461	22474
856.595	22538
856.729	22550
856.862	22797
856.996	22531
857.13	22626
857.263	22603
857.397	22736
857.53	22618
857.664	22660
857.797	22599
857.931	22668
858.064	22626
858.197	22778
858.331	22622
858.464	22462
858.597	22417
858.731	22478
858.864	22561
858.997	22535
859.13	22580
859.263	22561
859.396	22797
859.529	22554
859.662	22478
859.795	22451
859.928	22523
860.061	22759
860.194	22812
860.327	22630
860.46	22531
860.592	22691
860.725	22740
860.858	22679
860.99	22596
861.123	22626
861.256	22531
861.388	22603
861.521	23326
861.653	22360
861.786	22272
861.918	22348
862.05	22394
862.183	22538
862.315	22500
862.447	22611
862.58	22485
862.712	22318
862.844	22185
862.976	22329
863.108	22421
863.24	22660
863.372	22253
863.504	22348
863.636	22382
863.768	22181
863.9	22299
864.032	22131
864.164	22291
864.296	22303
864.428	22485
864.559	22341
864.691	22413
864.823	22310
864.954	22287
865.086	22287
865.217	22226
865.349	22166
865.48	22238
865.612	22169
865.743	22246
865.875	22093
866.006	22173
866.137	22128
866.269	22139
866.4	22128
866.531	22025
866.662	22078
866.793	22067
866.924	22188
867.055	21994
867.186	22162
867.317	22032
867.448	21991
867.579	22029
867.71	21987
867.841	22051
867.972	22048
868.103	22055
868.233	22166
868.364	22192
868.495	22253
868.625	22333
868.756	22356
868.886	22249
869.017	22398
869.147	22500
869.278	22481
869.408	22466
869.539	22432
869.669	22402
869.799	22398
869.929	22360
870.06	22348
870.19	22618
870.32	22459
870.45	22679
870.58	22755
870.71	22839
870.84	22824
870.97	22694
871.1	22793
871.23	22812
871.36	22995
871.489	22812
871.619	22877
871.749	22919
871.879	23025
872.008	23006
872.138	22961
872.267	22923
872.397	22850
872.526	22869
872.656	22854
872.785	22816
872.915	23136
873.044	22961
873.173	22885
873.303	23079
873.432	23060
873.561	23121
873.69	23006
873.819	22923
873.948	23197
874.077	22839
874.206	22869
874.335	22915
874.464	23094
874.593	23159
874.722	23204
874.851	23223
874.979	23151
875.108	23315
875.237	23029
875.365	22991
875.494	23159
875.623	23288
875.751	23220
875.88	23216
876.008	23280
876.136	23261
876.265	23585
876.393	23714
876.521	23543
876.65	23615
876.778	23547
876.906	23383
877.034	23570
877.162	23478
877.29	23528
877.418	23551
877.546	23581
877.674	23562
877.802	23547
877.93	23554
878.058	23440
878.185	23364
878.313	23410
878.441	23547
878.568	23326
878.696	23547
878.824	23638
878.951	23638
879.079	23802
879.206	23737
879.333	23630
879.461	23570
879.588	23615
879.715	23668
879.842	23847
879.97	23623
880.097	23372
880.224	23334
880.351	23387
880.478	23341
880.605	23311
880.732	23292
880.859	23630
880.986	23269
881.112	23334
881.239	23166
881.366	22984
881.493	23124
881.619	22930
881.746	23060
881.872	22885
881.999	22915
882.125	22873
882.252	22873
882.378	22896
882.505	23044
882.631	22717
882.757	22645
882.883	22554
883.01	22497
883.136	22478
883.262	22451
883.388	22466
883.514	22645
883.64	22561
883.766	22470
883.892	22390
884.018	22299
884.143	22527
884.269	22504
884.395	22207
884.52	22207
884.646	22371
884.772	22185
884.897	22181
885.023	22310
885.148	22295
885.274	22314
885.399	22356
885.524	22333
885.65	22204
885.775	22280
885.9	22131
886.025	22360
886.15	22291
886.275	22261
886.4	22128
886.525	22211
886.65	22162
886.775	22074
886.9	22253
887.025	22306
887.149	22211
887.274	22051
887.399	21895
887.523	22032
887.648	21937
887.773	21953
887.897	21960
888.021	21983
888.146	21804
888.27	22139
888.395	22120
888.519	21915
888.643	21964
888.767	21846
888.891	21831
889.015	21717
889.139	21899
889.263	21766
889.387	21781
889.511	21835
889.635	21926
889.759	21751
889.883	21690
890.006	21770
890.13	21873
890.254	21625
890.377	21701
890.501	21439
890.624	21428
890.748	21557
890.871	21443
890.995	21363
891.118	21272
891.241	21287
891.364	21283
891.488	21469
891.611	21374
891.734	21302
891.857	21241
891.98	21389
892.103	21241
892.226	21329
892.349	21252
892.471	21070
892.594	21184
892.717	21245
892.839	21116
892.962	21199
893.085	21218
893.207	21218
893.33	21039
893.452	21161
893.575	21260
893.697	21077
893.819	21310
893.941	21424
894.064	21340
894.186	21157
894.308	21138
894.43	21203
894.552	21329
894.674	21298
894.796	20994
894.918	21169
895.04	21195
895.161	21161
895.283	21332
895.405	21108
895.526	21199
895.648	21047
895.769	21241
895.891	21207
896.012	21230
896.134	21218
896.255	21161
896.376	21093
896.498	21199
896.619	21157
896.74	21138
896.861	21165
896.982	21370
897.103	21576
897.224	21447
897.345	21382
897.466	21279
897.587	21287
897.708	21439
897.828	21447
897.949	21374
898.07	21081
898.19	21188
898.311	21428
898.431	21435
898.552	21252
898.672	21477
898.792	21534
898.913	21252
899.033	21291
899.153	21173
899.273	21100
899.393	21070
899.513	21112
899.633	21169
899.753	21154
899.873	21104
899.993	21089
900.113	21096
900.232	21123
900.352	20948
900.472	20952
900.591	20876
900.711	20956
900.83	20811
900.95	21001
901.069	21047
901.189	20845
901.308	20560
901.427	20332
901.546	20412
901.665	20419
901.784	20412
901.904	20355
902.023	20271
902.141	19944
902.26	19841
902.379	20031
902.498	19993
902.617	19898
902.735	20005
902.854	19925
902.973	19902
903.091	19586
903.21	19441
903.328	19495
903.446	19521
903.565	19308
903.683	19346
903.801	19304
903.919	19324
904.038	19354
904.156	19160
904.274	19202
904.392	19171
904.51	19141
904.627	19152
904.745	19228
904.863	19198
904.981	18981
905.098	18749
905.216	18871
905.334	18890
905.451	18810
905.569	18684
905.686	18768
905.803	18738
905.921	18616
906.038	18757
906.155	18677
906.272	18570
906.389	18570
906.506	18353
906.623	18319
906.74	18292
906.857	18254
906.974	18220
907.091	18380
907.208	18582
907.324	18346
907.441	18247
907.557	18136
907.674	18019
907.79	17885
907.907	18007
908.023	18068
908.139	17988
908.256	17977
908.372	17920
908.488	17813
908.604	17813
908.72	17767
908.836	17665
908.952	17707
909.068	17790
909.184	17821
909.3	17821
909.415	17813
909.531	17737
909.647	17490
909.762	17421
909.878	17482
909.993	17501
910.108	17410
910.224	17372
910.339	17429
910.454	17318
910.57	17277
910.685	17166
910.8	17452
910.915	17334
911.03	17113
911.145	17064
911.259	17006
911.374	17045
911.489	17022
911.604	16877
911.718	16664
911.833	16717
911.947	16729
912.062	16645
912.176	16717
912.291	16778
912.405	16790
912.519	16987
912.633	16927
912.748	16790
912.862	16660
912.976	16573
913.09	16417
913.204	16550
913.318	16615
913.431	16733
913.545	16607
913.659	16630
913.772	16500
913.886	16360
914	16318
914.113	16489
914.226	16546
914.34	16421
914.453	16272
914.566	16379
914.68	16143
914.793	16284
914.906	15983
915.019	15911
915.132	15880
915.245	15873
915.358	15892
915.47	15956
915.583	15869
915.696	15876
915.809	16071
915.921	16051
916.034	15838
916.146	15846
916.259	15835
916.371	15949
916.483	15831
916.595	15793
916.708	15789
916.82	15709
916.932	15732
917.044	15686
917.156	15637
917.268	15671
917.38	15561
917.491	15538
917.603	15557
917.715	15686
917.826	15701
917.938	15488
918.049	15340
918.161	15515
918.272	15622
918.384	15641
918.495	15507
918.606	15420
918.717	15287
918.828	15306
918.939	15332
919.05	15161
919.161	15287
919.272	15093
919.383	15100
919.494	15367
919.604	15378
919.715	15351
919.826	15131
919.936	15245
920.047	15389
920.157	15222
920.267	15412
920.378	15332
920.488	15332
920.598	15428
920.708	15557
920.818	15306
920.928	15386
921.038	15557
921.148	15397
921.258	15336
921.368	15081
921.477	15047
921.587	14910
921.697	14857
921.806	14899
921.916	14864
922.025	14625
922.134	14511
922.244	14594
922.353	14682
922.462	14507
922.571	14366
922.68	14347
922.789	14263
922.898	14305
923.007	14134
923.116	14221
923.224	14191
923.333	14172
923.442	14096
923.55	14115
923.659	14054
923.767	14084
923.876	13936
923.984	14058
924.092	13932
924.201	13974
924.309	13860
924.417	13944
924.525	14020
924.633	13887
924.741	14712
924.849	13685
924.956	13765
925.064	13704
925.172	13605
925.279	13674
925.387	13651
925.494	13681
925.602	13715
925.709	13658
925.816	13518
925.924	13525
926.031	13655
926.138	13460
926.245	13575
926.352	13506
926.459	13525
926.566	13632
926.673	13499
926.779	13422
926.886	13339
926.993	13251
927.099	13164
927.206	13095
927.312	13065
927.419	13194
927.525	13103
927.631	13114
927.737	13069
927.843	13034
927.95	12935
928.056	12996
928.162	13008
928.267	13053
928.373	13499
928.479	13076
928.585	12772
928.69	12943
928.796	12932
928.901	12791
929.007	12681
929.112	12840
929.218	12787
929.323	12722
929.428	12703
929.533	12825
929.638	12627
929.743	12620
929.848	12662
929.953	12677
930.058	12559
930.163	12311
930.267	12399
930.372	12506
930.477	12330
930.581	12597
930.685	12330
930.79	12125
930.894	12213
930.998	12190
931.103	12376
931.207	11965
931.311	11882
931.415	11824
931.519	11589
931.623	11600
