Data from test_V78500241_1869.txt Node
Date: Fri Mar 25 15:54:44 CST 2022
User: usil
Spectrometer: V785-0024
Trigger mode: 0
Integration Time (sec): 4.000000E-1
Scans to average: 1
Nonlinearity correction enabled: false
Boxcar width: 0
Storing dark spectrum: false
XAxis mode: Wavelengths
Number of Pixels in Spectrum: 1024
>>>>>Begin Spectral Data<<<<<
801.071	28816
801.214	28713
801.356	28535
801.499	28538
801.641	28363
801.783	28401
801.926	28428
802.068	28341
802.211	28177
802.353	28242
802.496	28048
802.638	28109
802.78	27987
802.923	27899
803.065	27914
803.208	28051
803.35	28036
803.492	28173
803.635	28287
803.777	28101
803.919	28109
804.061	28592
804.204	28276
804.346	28299
804.488	28147
804.63	28192
804.773	28131
804.915	28341
805.057	28466
805.199	28207
805.341	28295
805.483	28428
805.626	28360
805.768	28268
805.91	28440
806.052	28481
806.194	28398
806.336	28436
806.478	28363
806.62	28687
806.762	28592
806.904	28752
807.046	28927
807.188	28824
807.33	28923
807.472	28953
807.614	28835
807.756	28957
807.898	28801
808.04	28634
808.182	28584
808.324	28869
808.465	28869
808.607	29018
808.749	29189
808.891	29155
809.033	29311
809.174	29117
809.316	29147
809.458	29094
809.6	29147
809.741	29242
809.883	29250
810.025	29520
810.166	29471
810.308	29471
810.45	29406
810.591	29303
810.733	29174
810.875	29170
811.016	29079
811.158	29037
811.299	29250
811.441	29223
811.582	29364
811.724	29197
811.865	29071
812.007	29181
812.148	29242
812.29	29197
812.431	29204
812.573	29501
812.714	29425
812.855	29676
812.997	29638
813.138	29889
813.279	29828
813.421	29718
813.562	29600
813.703	29395
813.845	29330
813.986	29079
814.127	28862
814.268	28839
814.41	28911
814.551	28850
814.692	28934
814.833	28721
814.974	28744
815.115	28637
815.256	28725
815.397	28694
815.539	28786
815.68	28535
815.821	28379
815.962	28596
816.103	28493
816.244	28523
816.385	28523
816.526	28417
816.666	28223
816.807	28143
816.948	28086
817.089	28166
817.23	28158
817.371	28143
817.512	28032
817.653	28017
817.793	28048
817.934	28158
818.075	28139
818.216	28234
818.356	28230
818.497	27937
818.638	27937
818.778	27827
818.919	27884
819.06	28040
819.2	27953
819.341	28181
819.481	27991
819.622	28268
819.762	28497
819.903	28314
820.043	28344
820.184	28223
820.324	28249
820.465	28367
820.605	28265
820.746	28211
820.886	28128
821.026	28196
821.167	28226
821.307	28310
821.447	28238
821.588	28162
821.728	27903
821.868	27857
822.008	27603
822.149	27781
822.289	27679
822.429	27431
822.569	27351
822.709	27382
822.849	27184
822.99	27108
823.13	27230
823.27	27062
823.41	26883
823.55	26963
823.69	27100
823.83	26967
823.97	26834
824.11	26842
824.25	26830
824.389	26823
824.529	26906
824.669	26899
824.809	26990
824.949	26777
825.089	26868
825.228	26834
825.368	26674
825.508	26674
825.648	26758
825.787	26796
825.927	26739
826.067	26602
826.206	26636
826.346	26712
826.485	26705
826.625	26537
826.765	26781
826.904	26670
827.044	26545
827.183	26453
827.323	26294
827.462	26374
827.601	26324
827.741	26305
827.88	26473
828.02	26317
828.159	26351
828.298	26278
828.437	26377
828.577	26328
828.716	26370
828.855	26278
828.994	26073
829.134	26134
829.273	26024
829.412	26107
829.551	26024
829.69	26122
829.829	26122
829.968	26176
830.107	26130
830.246	26073
830.385	25925
830.524	25944
830.663	25750
830.802	25662
830.941	25723
831.08	25616
831.219	25693
831.357	25818
831.496	25947
831.635	25712
831.774	25518
831.913	25540
832.051	25392
832.19	25472
832.329	25411
832.467	25327
832.606	25297
832.744	25236
832.883	25354
833.022	25411
833.16	25403
833.299	25441
833.437	25324
833.576	25384
833.714	25407
833.852	25407
833.991	25445
834.129	25499
834.267	25339
834.406	25415
834.544	25384
834.682	25388
834.821	25377
834.959	25548
835.097	25464
835.235	25384
835.373	25441
835.511	25346
835.65	25324
835.788	25392
835.926	25202
836.064	25000
836.202	25133
836.34	25225
836.478	25228
836.615	25190
836.753	25221
836.891	25354
837.029	25251
837.167	25187
837.305	25031
837.443	25156
837.58	25129
837.718	25145
837.856	25110
837.993	25080
838.131	25069
838.269	24943
838.406	24882
838.544	24814
838.681	24650
838.819	24502
838.956	24513
839.094	24544
839.231	24570
839.369	24696
839.506	24894
839.643	24844
839.781	24563
839.918	24441
840.055	24433
840.193	24540
840.33	24441
840.467	24437
840.604	24597
840.742	24722
840.879	24213
841.016	24380
841.153	24258
841.29	24437
841.427	24403
841.564	24429
841.701	24353
841.838	24422
841.975	24289
842.112	24357
842.249	24369
842.385	24133
842.522	24365
842.659	24190
842.796	24174
842.933	24209
843.069	24129
843.206	24136
843.343	24178
843.479	24155
843.616	24140
843.752	23996
843.889	23950
844.025	24091
844.162	23942
844.298	23973
844.435	23920
844.571	24003
844.708	23954
844.844	24171
844.98	24030
845.117	24041
845.253	23908
845.389	23885
845.525	23969
845.661	23764
845.798	23684
845.934	23741
846.07	23600
846.206	23642
846.342	23821
846.478	23570
846.614	23410
846.75	23315
846.886	23391
847.022	23493
847.158	23406
847.294	23379
847.429	23318
847.565	23444
847.701	23531
847.837	23284
847.972	23048
848.108	23265
848.244	23334
848.379	23052
848.515	23029
848.65	23090
848.786	22923
848.921	23060
849.057	22919
849.192	22968
849.328	23041
849.463	22946
849.598	22930
849.734	22892
849.869	22961
850.004	22824
850.14	22835
850.275	22797
850.41	22740
850.545	22748
850.68	22702
850.815	22809
850.95	22748
851.085	22889
851.22	22752
851.355	22850
851.49	22713
851.625	22767
851.76	22698
851.895	22763
852.03	22725
852.165	22797
852.299	22919
852.434	22854
852.569	22691
852.703	22809
852.838	22831
852.973	22873
853.107	22854
853.242	22626
853.376	22664
853.511	22523
853.645	22607
853.78	22698
853.914	22554
854.048	22497
854.183	22474
854.317	22626
854.451	22839
854.585	22641
854.72	22637
854.854	22607
854.988	22542
855.122	22447
855.256	22352
855.39	22508
855.524	22641
855.658	22626
855.792	22459
855.926	22622
856.06	22535
856.194	22569
856.327	22538
856.461	22466
856.595	22481
856.729	22615
856.862	22691
856.996	22557
857.13	22664
857.263	22656
857.397	22641
857.53	22596
857.664	22630
857.797	22626
857.931	22634
858.064	22561
858.197	22725
858.331	22615
858.464	22550
858.597	22516
858.731	22557
858.864	22432
858.997	22588
859.13	22523
859.263	22577
859.396	22733
859.529	22561
859.662	22417
859.795	22409
859.928	22618
860.061	22759
860.194	22736
860.327	22481
860.46	22618
860.592	22710
860.725	22752
860.858	22645
860.99	22523
861.123	22531
861.256	22398
861.388	22656
861.521	23379
861.653	22466
861.786	22428
861.918	22394
862.05	22451
862.183	22466
862.315	22485
862.447	22649
862.58	22367
862.712	22242
862.844	22135
862.976	22436
863.108	22413
863.24	22866
863.372	22261
863.504	22329
863.636	22112
863.768	22413
863.9	22303
864.032	22295
864.164	22246
864.296	22169
864.428	22367
864.559	22421
864.691	22226
864.823	22322
864.954	22268
865.086	22295
865.217	22131
865.349	22090
865.48	22082
865.612	22181
865.743	22207
865.875	22097
866.006	22067
866.137	22219
866.269	22207
866.4	22154
866.531	22105
866.662	22040
866.793	22013
866.924	21899
867.055	22150
867.186	22059
867.317	21968
867.448	21991
867.579	21953
867.71	22101
867.841	22036
867.972	22120
868.103	22185
868.233	22181
868.364	22082
868.495	22200
868.625	22257
868.756	22459
868.886	22276
869.017	22150
869.147	22459
869.278	22421
869.408	22375
869.539	22344
869.669	22329
869.799	22367
869.929	22436
870.06	22424
870.19	22611
870.32	22592
870.45	22679
870.58	22729
870.71	22824
870.84	22774
870.97	22675
871.1	22763
871.23	22885
871.36	22915
871.489	22908
871.619	23022
871.749	22991
871.879	22858
872.008	23037
872.138	22824
872.267	22801
872.397	22759
872.526	22706
872.656	22577
872.785	22622
872.915	23014
873.044	23006
873.173	22991
873.303	23014
873.432	22869
873.561	23102
873.69	23037
873.819	22957
873.948	23124
874.077	22980
874.206	22862
874.335	23064
874.464	22938
874.593	23159
874.722	23193
874.851	22995
874.979	23216
875.108	23178
875.237	22961
875.365	23079
875.494	23105
875.623	23227
875.751	23159
875.88	23067
876.008	23284
876.136	23349
876.265	23551
876.393	23710
876.521	23543
876.65	23672
876.778	23596
876.906	23554
877.034	23391
877.162	23459
877.29	23448
877.418	23440
877.546	23471
877.674	23433
877.802	23448
877.93	23322
878.058	23436
878.185	23493
878.313	23383
878.441	23547
878.568	23269
878.696	23471
878.824	23463
878.951	23547
879.079	23615
879.206	23771
879.333	23729
879.461	23467
879.588	23623
879.715	23665
879.842	23665
879.97	23490
880.097	23334
880.224	23299
880.351	23303
880.478	23467
880.605	23216
880.732	23273
880.859	23566
880.986	23307
881.112	23307
881.239	23121
881.366	23056
881.493	23029
881.619	22877
881.746	22915
881.872	22816
881.999	22816
882.125	22713
882.252	22862
882.378	22889
882.505	22957
882.631	22698
882.757	22653
882.883	22653
883.01	22455
883.136	22512
883.262	22497
883.388	22421
883.514	22527
883.64	22637
883.766	22478
883.892	22207
884.018	22402
884.143	22466
884.269	22417
884.395	22192
884.52	22139
884.646	22192
884.772	21949
884.897	22002
885.023	22070
885.148	22219
885.274	22257
885.399	22223
885.524	22128
885.65	22211
885.775	22173
885.9	22120
886.025	22238
886.15	22181
886.275	22055
886.4	22090
886.525	22196
886.65	22082
886.775	22036
886.9	22284
887.025	22394
887.149	22139
887.274	22010
887.399	21949
887.523	21869
887.648	21892
887.773	22055
887.897	22051
888.021	21895
888.146	21793
888.27	22074
888.395	21937
888.519	21979
888.643	21937
888.767	22059
888.891	21774
889.015	21705
889.139	21812
889.263	21793
889.387	21770
889.511	21854
889.635	21698
889.759	21743
889.883	21656
890.006	21625
890.13	21762
890.254	21622
890.377	21568
890.501	21549
890.624	21447
890.748	21473
890.871	21344
890.995	21283
891.118	21180
891.241	21180
891.364	21241
891.488	21351
891.611	21287
891.734	21237
891.857	21252
891.98	21268
892.103	21302
892.226	21188
892.349	21207
892.471	21001
892.594	21154
892.717	21199
892.839	21135
892.962	21264
893.085	21260
893.207	21157
893.33	21024
893.452	21199
893.575	21173
893.697	21096
893.819	21222
893.941	21294
894.064	21317
894.186	21017
894.308	21005
894.43	21207
894.552	21264
894.674	21169
894.796	21077
894.918	21104
895.04	21123
895.161	21173
895.283	21051
895.405	20937
895.526	21195
895.648	21108
895.769	21310
895.891	21100
896.012	21214
896.134	21131
896.255	21055
896.376	21070
896.498	21112
896.619	21108
896.74	21116
896.861	21302
896.982	21485
897.103	21633
897.224	21378
897.345	21321
897.466	21237
897.587	21287
897.708	21447
897.828	21389
897.949	21302
898.07	21218
898.19	21378
898.311	21450
898.431	21203
898.552	21275
898.672	21279
898.792	21477
898.913	21374
899.033	21275
899.153	21104
899.273	20990
899.393	21070
899.513	21119
899.633	21173
899.753	20994
899.873	21005
899.993	21131
900.113	20910
900.232	21051
900.352	20933
900.472	20941
900.591	20746
900.711	20861
900.83	20724
900.95	20952
901.069	20914
901.189	20678
901.308	20442
901.427	20408
901.546	20488
901.665	20366
901.784	20336
901.904	20199
902.023	20145
902.141	20111
902.26	19955
902.379	20008
902.498	19890
902.617	19845
902.735	20065
902.854	19811
902.973	19761
903.091	19571
903.21	19658
903.328	19537
903.446	19430
903.565	19472
903.683	19324
903.801	19240
903.919	19297
904.038	19278
904.156	19183
904.274	19148
904.392	19027
904.51	19061
904.627	18970
904.745	19274
904.863	19213
904.981	18958
905.098	18795
905.216	18817
905.334	18810
905.451	18852
905.569	18768
905.686	18673
905.803	18646
905.921	18536
906.038	18612
906.155	18483
906.272	18395
906.389	18456
906.506	18266
906.623	18277
906.74	18224
906.857	18224
906.974	18216
907.091	18369
907.208	18418
907.324	18350
907.441	18251
907.557	18034
907.674	18022
907.79	17889
907.907	17999
908.023	18022
908.139	18026
908.256	17901
908.372	17866
908.488	17809
908.604	17745
908.72	17676
908.836	17726
908.952	17668
909.068	17836
909.184	17813
909.3	17722
909.415	17718
909.531	17634
909.647	17398
909.762	17455
909.878	17387
909.993	17341
910.108	17410
910.224	17349
910.339	17315
910.454	17273
910.57	17258
910.685	17170
910.8	17429
910.915	17478
911.03	17227
911.145	16957
911.259	17086
911.374	16965
911.489	16778
911.604	16816
911.718	16790
911.833	16736
911.947	16558
912.062	16596
912.176	16733
912.291	16702
912.405	16744
912.519	16892
912.633	16869
912.748	16790
912.862	16691
912.976	16535
913.09	16462
913.204	16554
913.318	16531
913.431	16611
913.545	16672
913.659	16580
913.772	16478
913.886	16322
914	16344
914.113	16363
914.226	16402
914.34	16390
914.453	16185
914.566	16337
914.68	16249
914.793	16185
914.906	15945
915.019	15835
915.132	15850
915.245	15865
915.358	15857
915.47	15888
915.583	15804
915.696	15972
915.809	15975
915.921	15991
916.034	15895
916.146	15804
916.259	15903
916.371	15888
916.483	15846
916.595	15762
916.708	15800
916.82	15622
916.932	15705
917.044	15663
917.156	15591
917.268	15511
917.38	15519
917.491	15507
917.603	15523
917.715	15629
917.826	15580
917.938	15412
918.049	15450
918.161	15488
918.272	15637
918.384	15549
918.495	15435
918.606	15336
918.717	15241
918.828	15378
918.939	15256
919.05	15180
919.161	15275
919.272	14918
919.383	15039
919.494	15260
919.604	15450
919.715	15207
919.826	15165
919.936	15203
920.047	15252
920.157	15302
920.267	15431
920.378	15226
920.488	15268
920.598	15355
920.708	15431
920.818	15279
920.928	15199
921.038	15496
921.148	15458
921.258	15176
921.368	15047
921.477	14994
921.587	14948
921.697	14804
921.806	14986
921.916	14754
922.025	14648
922.134	14670
922.244	14522
922.353	14545
922.462	14492
922.571	14389
922.68	14218
922.789	14149
922.898	14214
923.007	14183
923.116	14191
923.224	14221
923.333	14187
923.442	14142
923.55	14027
923.659	14035
923.767	14077
923.876	13879
923.984	14130
924.092	13833
924.201	13928
924.309	14016
924.417	13871
924.525	13887
924.633	13837
924.741	14678
924.849	13696
924.956	13833
925.064	13594
925.172	13590
925.279	13632
925.387	13590
925.494	13624
925.602	13677
925.709	13719
925.816	13441
925.924	13559
926.031	13666
926.138	13552
926.245	13620
926.352	13400
926.459	13472
926.566	13556
926.673	13434
926.779	13308
926.886	13422
926.993	13149
927.099	13122
927.206	13084
927.312	13069
927.419	13194
927.525	13156
927.631	13179
927.737	13072
927.843	12947
927.95	12878
928.056	12909
928.162	12924
928.267	13034
928.373	13616
928.479	13038
928.585	12757
928.69	12878
928.796	12977
928.901	12886
929.007	12684
929.112	12795
929.218	12783
929.323	12696
929.428	12650
929.533	12719
929.638	12563
929.743	12593
929.848	12684
929.953	12612
930.058	12467
930.163	12319
930.267	12403
930.372	12479
930.477	12277
930.581	12525
930.685	12277
930.79	12136
930.894	12182
930.998	12194
931.103	12254
931.207	11942
931.311	11897
931.415	11752
931.519	11566
931.623	11414
