Data from test_V78500241_2341.txt Node
Date: Fri Mar 25 15:58:01 CST 2022
User: usil
Spectrometer: V785-0024
Trigger mode: 0
Integration Time (sec): 4.000000E-1
Scans to average: 1
Nonlinearity correction enabled: false
Boxcar width: 0
Storing dark spectrum: false
XAxis mode: Wavelengths
Number of Pixels in Spectrum: 1024
>>>>>Begin Spectral Data<<<<<
801.071	28527
801.214	28535
801.356	28443
801.499	28272
801.641	28158
801.783	28207
801.926	28291
802.068	28268
802.211	28192
802.353	28124
802.496	28017
802.638	27838
802.78	28002
802.923	27755
803.065	27812
803.208	27728
803.35	27953
803.492	28067
803.635	28287
803.777	27994
803.919	28166
804.061	28318
804.204	28135
804.346	28055
804.488	27945
804.63	28169
804.773	28021
804.915	28242
805.057	28329
805.199	28112
805.341	28253
805.483	28295
805.626	28150
805.768	28238
805.91	28257
806.052	28219
806.194	28398
806.336	28615
806.478	28352
806.62	28386
806.762	28459
806.904	28634
807.046	28733
807.188	28656
807.33	28523
807.472	28797
807.614	28603
807.756	28831
807.898	28557
808.04	28417
808.182	28432
808.324	28672
808.465	28599
808.607	28778
808.749	28965
808.891	29014
809.033	29128
809.174	28915
809.316	28888
809.458	28968
809.6	28816
809.741	28995
809.883	29174
810.025	29242
810.166	29212
810.308	29170
810.45	29204
810.591	29124
810.733	29014
810.875	28816
811.016	28850
811.158	28942
811.299	29014
811.441	29025
811.582	29162
811.724	28968
811.865	28953
812.007	28965
812.148	29109
812.29	29037
812.431	29109
812.573	29334
812.714	29269
812.855	29383
812.997	29638
813.138	29783
813.279	29501
813.421	29478
813.562	29375
813.703	29242
813.845	29128
813.986	28980
814.127	28744
814.268	28656
814.41	28824
814.551	28664
814.692	28854
814.833	28504
814.974	28679
815.115	28733
815.256	28508
815.397	28523
815.539	28481
815.68	28519
815.821	28398
815.962	28519
816.103	28565
816.244	28440
816.385	28272
816.526	28390
816.666	28070
816.807	27968
816.948	28093
817.089	28112
817.23	28078
817.371	27994
817.512	27918
817.653	27949
817.793	27888
817.934	28017
818.075	27903
818.216	28002
818.356	27991
818.497	27865
818.638	27766
818.778	27732
818.919	27648
819.06	27709
819.2	27762
819.341	28002
819.481	27983
819.622	28017
819.762	28242
819.903	28234
820.043	28139
820.184	28086
820.324	27975
820.465	28169
820.605	28116
820.746	28143
820.886	27918
821.026	28177
821.167	28074
821.307	28143
821.447	28063
821.588	27873
821.728	27789
821.868	27587
822.008	27564
822.149	27382
822.289	27462
822.429	27138
822.569	27218
822.709	27165
822.849	26868
822.99	27024
823.13	26990
823.27	26952
823.41	26792
823.55	26598
823.69	26807
823.83	26883
823.97	26735
824.11	26640
824.25	26636
824.389	26594
824.529	26682
824.669	26602
824.809	26724
824.949	26667
825.089	26712
825.228	26552
825.368	26495
825.508	26495
825.648	26617
825.787	26503
825.927	26648
826.067	26533
826.206	26450
826.346	26427
826.485	26518
826.625	26465
826.765	26705
826.904	26495
827.044	26336
827.183	26244
827.323	26195
827.462	26225
827.601	26218
827.741	26107
827.88	26218
828.02	26012
828.159	26183
828.298	26229
828.437	26282
828.577	26191
828.716	26263
828.855	26172
828.994	25852
829.134	26043
829.273	25936
829.412	25769
829.551	25814
829.69	25845
829.829	25856
829.968	25955
830.107	25936
830.246	25868
830.385	25830
830.524	25715
830.663	25757
830.802	25723
830.941	25544
831.08	25479
831.219	25575
831.357	25563
831.496	25651
831.635	25586
831.774	25422
831.913	25384
832.051	25278
832.19	25251
832.329	25259
832.467	25183
832.606	25141
832.744	25122
832.883	25232
833.022	25259
833.16	25122
833.299	25232
833.437	25202
833.576	25324
833.714	25259
833.852	25335
833.991	25213
834.129	25324
834.267	25426
834.406	25221
834.544	25339
834.682	25301
834.821	25316
834.959	25282
835.097	25259
835.235	25289
835.373	25198
835.511	25202
835.65	25095
835.788	25148
835.926	24715
836.064	24954
836.202	24840
836.34	24985
836.478	25168
836.615	25053
836.753	25027
836.891	25107
837.029	25137
837.167	24935
837.305	24947
837.443	25061
837.58	24882
837.718	24981
837.856	24966
837.993	24772
838.131	24859
838.269	24688
838.406	24844
838.544	24688
838.681	24479
838.819	24464
838.956	24330
839.094	24369
839.231	24380
839.369	24494
839.506	24779
839.643	24559
839.781	24350
839.918	24258
840.055	24315
840.193	24266
840.33	24171
840.467	24308
840.604	24308
840.742	24509
840.879	24148
841.016	24266
841.153	24053
841.29	24216
841.427	24117
841.564	24144
841.701	24285
841.838	24136
841.975	24133
842.112	24083
842.249	24064
842.385	23958
842.522	24163
842.659	24136
842.796	23904
842.933	24034
843.069	23931
843.206	23874
843.343	24053
843.479	24159
843.616	24034
843.752	23786
843.889	23775
844.025	23870
844.162	23847
844.298	23832
844.435	23798
844.571	23733
844.708	23870
844.844	23821
844.98	23958
845.117	23901
845.253	23748
845.389	23551
845.525	23680
845.661	23589
845.798	23520
845.934	23608
846.07	23478
846.206	23486
846.342	23592
846.478	23433
846.614	23185
846.75	23140
846.886	23113
847.022	23147
847.158	23178
847.294	23094
847.429	23311
847.565	23280
847.701	23303
847.837	22980
847.972	22930
848.108	23048
848.244	23010
848.379	22843
848.515	22793
848.65	22630
848.786	22801
848.921	22828
849.057	22866
849.192	22915
849.328	22908
849.463	22752
849.598	22797
849.734	22592
849.869	22580
850.004	22672
850.14	22660
850.275	22554
850.41	22542
850.545	22611
850.68	22493
850.815	22573
850.95	22508
851.085	22744
851.22	22710
851.355	22565
851.49	22637
851.625	22481
851.76	22504
851.895	22413
852.03	22356
852.165	22634
852.299	22634
852.434	22713
852.569	22649
852.703	22519
852.838	22653
852.973	22675
853.107	22675
853.242	22550
853.376	22405
853.511	22337
853.645	22325
853.78	22588
853.914	22367
854.048	22382
854.183	22421
854.317	22443
854.451	22561
854.585	22344
854.72	22280
854.854	22531
854.988	22375
855.122	22398
855.256	22185
855.39	22417
855.524	22466
855.658	22493
855.792	22428
855.926	22295
856.06	22474
856.194	22382
856.327	22257
856.461	22386
856.595	22363
856.729	22402
856.862	22508
856.996	22504
857.13	22542
857.263	22432
857.397	22402
857.53	22371
857.664	22455
857.797	22462
857.931	22386
858.064	22466
858.197	22516
858.331	22402
858.464	22371
858.597	22329
858.731	22360
858.864	22299
858.997	22382
859.13	22531
859.263	22375
859.396	22474
859.529	22405
859.662	22371
859.795	22379
859.928	22443
860.061	22580
860.194	22592
860.327	22367
860.46	22417
860.592	22504
860.725	22478
860.858	22432
860.99	22257
861.123	22421
861.256	22291
861.388	22417
861.521	23075
861.653	22166
861.786	22112
861.918	22158
862.05	22265
862.183	22242
862.315	22295
862.447	22462
862.58	22253
862.712	22162
862.844	22078
862.976	22120
863.108	22158
863.24	22573
863.372	22188
863.504	22032
863.636	22177
863.768	22200
863.9	22074
864.032	21979
864.164	22036
864.296	22185
864.428	22249
864.559	22181
864.691	22109
864.823	22131
864.954	22158
865.086	21975
865.217	21899
865.349	21983
865.48	21922
865.612	22051
865.743	22078
865.875	22029
866.006	21949
866.137	21972
866.269	22074
866.4	21831
866.531	21964
866.662	22032
866.793	21915
866.924	21884
867.055	21991
867.186	21888
867.317	21831
867.448	21846
867.579	21941
867.71	21918
867.841	21827
867.972	21876
868.103	21945
868.233	21831
868.364	21949
868.495	22040
868.625	22002
868.756	22169
868.886	22112
869.017	22128
869.147	22379
869.278	22314
869.408	22150
869.539	22158
869.669	22173
869.799	22143
869.929	22204
870.06	22192
870.19	22424
870.32	22516
870.45	22504
870.58	22550
870.71	22573
870.84	22683
870.97	22519
871.1	22512
871.23	22683
871.36	22713
871.489	22694
871.619	22493
871.749	22744
871.879	22778
872.008	22942
872.138	22744
872.267	22691
872.397	22645
872.526	22542
872.656	22584
872.785	22618
872.915	22713
873.044	22793
873.173	22835
873.303	22774
873.432	22847
873.561	22778
873.69	22915
873.819	22752
873.948	22889
874.077	22755
874.206	22683
874.335	22771
874.464	22869
874.593	22961
874.722	22999
874.851	23052
874.979	22953
875.108	23029
875.237	22862
875.365	22984
875.494	22854
875.623	22987
875.751	22999
875.88	22968
876.008	22980
876.136	23151
876.265	23292
876.393	23573
876.521	23455
876.65	23611
876.778	23299
876.906	23216
877.034	23330
877.162	23296
877.29	23223
877.418	23345
877.546	23364
877.674	23356
877.802	23235
877.93	23292
878.058	23235
878.185	23159
878.313	23265
878.441	23254
878.568	23105
878.696	23250
878.824	23311
878.951	23490
879.079	23585
879.206	23531
879.333	23459
879.461	23391
879.588	23421
879.715	23387
879.842	23581
879.97	23391
880.097	23128
880.224	23098
880.351	23151
880.478	23159
880.605	23064
880.732	23155
880.859	23383
880.986	23155
881.112	23185
881.239	23060
881.366	22904
881.493	22630
881.619	22759
881.746	22759
881.872	22694
881.999	22740
882.125	22577
882.252	22748
882.378	22626
882.505	22752
882.631	22569
882.757	22341
882.883	22409
883.01	22474
883.136	22325
883.262	22234
883.388	22230
883.514	22535
883.64	22428
883.766	22284
883.892	22090
884.018	22181
884.143	22348
884.269	22367
884.395	22093
884.52	21895
884.646	22101
884.772	22059
884.897	21926
885.023	21930
885.148	22040
885.274	22128
885.399	22097
885.524	22013
885.65	21953
885.775	22021
885.9	21964
886.025	22067
886.15	22093
886.275	22074
886.4	21918
886.525	21937
886.65	21827
886.775	21964
886.9	22063
887.025	22154
887.149	21922
887.274	21759
887.399	21781
887.523	21743
887.648	21705
887.773	21682
887.897	21789
888.021	21850
888.146	21797
888.27	21747
888.395	21804
888.519	21800
888.643	21690
888.767	21736
888.891	21625
889.015	21583
889.139	21652
889.263	21462
889.387	21686
889.511	21789
889.635	21663
889.759	21553
889.883	21610
890.006	21557
890.13	21637
890.254	21568
890.377	21587
890.501	21127
890.624	21287
890.748	21504
890.871	21245
890.995	21043
891.118	21020
891.241	21161
891.364	21112
891.488	21252
891.611	21070
891.734	21077
891.857	21214
891.98	21157
892.103	21119
892.226	21093
892.349	21135
892.471	20895
892.594	21047
892.717	21062
892.839	20937
892.962	20902
893.085	21032
893.207	21066
893.33	20967
893.452	21039
893.575	21100
893.697	21085
893.819	21108
893.941	21260
894.064	21028
894.186	20925
894.308	21039
894.43	21081
894.552	21116
894.674	21138
894.796	20895
894.918	20918
895.04	21032
895.161	20948
895.283	20982
895.405	20998
895.526	20941
895.648	21001
895.769	21184
895.891	21070
896.012	21119
896.134	21001
896.255	20895
896.376	20902
896.498	20937
896.619	21036
896.74	20891
896.861	20994
896.982	21336
897.103	21492
897.224	21268
897.345	21340
897.466	21150
897.587	21176
897.708	21252
897.828	21222
897.949	21112
898.07	21077
898.19	21180
898.311	21355
898.431	21104
898.552	21203
898.672	21275
898.792	21230
898.913	21199
899.033	21127
899.153	20971
899.273	20887
899.393	21001
899.513	21066
899.633	20906
899.753	20956
899.873	20948
899.993	20982
900.113	20868
900.232	20899
900.352	20952
900.472	20883
900.591	20632
900.711	20731
900.83	20678
900.95	20807
901.069	20750
901.189	20514
901.308	20374
901.427	20229
901.546	20286
901.665	20400
901.784	20305
901.904	20111
902.023	20100
902.141	19852
902.26	19795
902.379	19864
902.498	19769
902.617	19685
902.735	19670
902.854	19658
902.973	19609
903.091	19472
903.21	19426
903.328	19422
903.446	19240
903.565	19202
903.683	19213
903.801	19118
903.919	19133
904.038	19164
904.156	19137
904.274	18985
904.392	18951
904.51	18916
904.627	18996
904.745	19061
904.863	18977
904.981	18719
905.098	18684
905.216	18627
905.334	18566
905.451	18696
905.569	18650
905.686	18665
905.803	18551
905.921	18384
906.038	18517
906.155	18521
906.272	18384
906.389	18369
906.506	18083
906.623	18232
906.74	18068
906.857	17958
906.974	18057
907.091	18254
907.208	18228
907.324	18133
907.441	18095
907.557	18003
907.674	17836
907.79	17866
907.907	17821
908.023	17942
908.139	17908
908.256	17805
908.372	17745
908.488	17752
908.604	17687
908.72	17600
908.836	17585
908.952	17551
909.068	17490
909.184	17630
909.3	17520
909.415	17573
909.531	17493
909.647	17345
909.762	17368
909.878	17299
909.993	17288
910.108	17288
910.224	17303
910.339	17265
910.454	17045
910.57	17098
910.685	17098
910.8	17360
910.915	17303
911.03	17060
911.145	16831
911.259	16854
911.374	16831
911.489	16816
911.604	16767
911.718	16675
911.833	16656
911.947	16493
912.062	16489
912.176	16607
912.291	16550
912.405	16656
912.519	16774
912.633	16740
912.748	16634
912.862	16580
912.976	16478
913.09	16352
913.204	16504
913.318	16470
913.431	16443
913.545	16485
913.659	16516
913.772	16409
913.886	16204
914	16169
914.113	16337
914.226	16329
914.34	16242
914.453	16040
914.566	16204
914.68	16040
914.793	16086
914.906	15876
915.019	15724
915.132	15720
915.245	15671
915.358	15804
915.47	15812
915.583	15842
915.696	15804
915.809	15934
915.921	16021
916.034	15743
916.146	15694
916.259	15603
916.371	15770
916.483	15675
916.595	15591
916.708	15610
916.82	15625
916.932	15637
917.044	15644
917.156	15496
917.268	15450
917.38	15473
917.491	15386
917.603	15458
917.715	15431
917.826	15519
917.938	15370
918.049	15211
918.161	15348
918.272	15473
918.384	15515
918.495	15325
918.606	15195
918.717	15138
918.828	15222
918.939	15256
919.05	15108
919.161	15093
919.272	14971
919.383	14914
919.494	15192
919.604	15348
919.715	15218
919.826	15039
919.936	15058
920.047	15222
920.157	15077
920.267	15306
920.378	15222
920.488	15077
920.598	15367
920.708	15416
920.818	15230
920.928	15249
921.038	15363
921.148	15370
921.258	15066
921.368	14899
921.477	14804
921.587	14861
921.697	14720
921.806	14804
921.916	14750
922.025	14537
922.134	14480
922.244	14362
922.353	14610
922.462	14385
922.571	14313
922.68	14161
922.789	14084
922.898	14123
923.007	14001
923.116	14081
923.224	14149
923.333	14050
923.442	13959
923.55	13936
923.659	14035
923.767	13986
923.876	13879
923.984	13944
924.092	13769
924.201	13871
924.309	13738
924.417	13883
924.525	13761
924.633	13738
924.741	14674
924.849	13483
924.956	13643
925.064	13597
925.172	13388
925.279	13480
925.387	13499
925.494	13518
925.602	13544
925.709	13601
925.816	13411
925.924	13480
926.031	13609
926.138	13453
926.245	13457
926.352	13312
926.459	13430
926.566	13506
926.673	13369
926.779	13255
926.886	13247
926.993	13107
927.099	13038
927.206	13019
927.312	12897
927.419	13091
927.525	12970
927.631	13088
927.737	12928
927.843	12954
927.95	12779
928.056	12798
928.162	12859
928.267	12871
928.373	13548
928.479	12916
928.585	12745
928.69	12829
928.796	12871
928.901	12734
929.007	12684
929.112	12700
929.218	12665
929.323	12547
929.428	12509
929.533	12802
929.638	12597
929.743	12475
929.848	12582
929.953	12551
930.058	12334
930.163	12247
930.267	12270
930.372	12407
930.477	12220
930.581	12506
930.685	12338
930.79	12152
930.894	12167
930.998	12114
931.103	12251
931.207	11954
931.311	11760
931.415	11695
931.519	11474
931.623	11543
