Data from test_V78500241_3446.txt Node
Date: Fri Mar 25 16:05:40 CST 2022
User: usil
Spectrometer: V785-0024
Trigger mode: 0
Integration Time (sec): 4.000000E-1
Scans to average: 1
Nonlinearity correction enabled: false
Boxcar width: 0
Storing dark spectrum: false
XAxis mode: Wavelengths
Number of Pixels in Spectrum: 1024
>>>>>Begin Spectral Data<<<<<
801.071	28968
801.214	28797
801.356	28691
801.499	28550
801.641	28363
801.783	28508
801.926	28580
802.068	28538
802.211	28348
802.353	28462
802.496	28261
802.638	28169
802.78	28169
802.923	28101
803.065	28048
803.208	28093
803.35	28128
803.492	28329
803.635	28382
803.777	28360
803.919	28447
804.061	28656
804.204	28428
804.346	28428
804.488	28360
804.63	28428
804.773	28451
804.915	28447
805.057	28550
805.199	28470
805.341	28546
805.483	28546
805.626	28816
805.768	28565
805.91	28615
806.052	28626
806.194	28535
806.336	28733
806.478	28668
806.62	28717
806.762	28850
806.904	28862
807.046	29006
807.188	28995
807.33	29090
807.472	29060
807.614	28927
807.756	29064
807.898	28900
808.04	28824
808.182	28854
808.324	28843
808.465	28976
808.607	29147
808.749	29292
808.891	29429
809.033	29379
809.174	29490
809.316	29277
809.458	29337
809.6	29178
809.741	29410
809.883	29402
810.025	29448
810.166	29665
810.308	29501
810.45	29512
810.591	29577
810.733	29440
810.875	29265
811.016	29372
811.158	29261
811.299	29269
811.441	29600
811.582	29493
811.724	29414
811.865	29261
812.007	29261
812.148	29368
812.29	29463
812.431	29471
812.573	29786
812.714	29821
812.855	29783
812.997	29980
813.138	30053
813.279	30038
813.421	30034
813.562	29779
813.703	29512
813.845	29547
813.986	29315
814.127	29090
814.268	29018
814.41	29162
814.551	29105
814.692	29090
814.833	28953
814.974	29014
815.115	28991
815.256	28953
815.397	28980
815.539	28987
815.68	28812
815.821	28820
815.962	28942
816.103	28850
816.244	28744
816.385	28645
816.526	28500
816.666	28409
816.807	28249
816.948	28405
817.089	28398
817.23	28318
817.371	28246
817.512	28493
817.653	28443
817.793	28337
817.934	28287
818.075	28401
818.216	28424
818.356	28166
818.497	28246
818.638	28120
818.778	28150
818.919	28306
819.06	28120
819.2	28261
819.341	28344
819.481	28325
819.622	28523
819.762	28702
819.903	28611
820.043	28546
820.184	28436
820.324	28451
820.465	28428
820.605	28462
820.746	28451
820.886	28443
821.026	28306
821.167	28443
821.307	28481
821.447	28367
821.588	28253
821.728	28192
821.868	28070
822.008	27823
822.149	27831
822.289	27800
822.429	27667
822.569	27515
822.709	27504
822.849	27454
822.99	27317
823.13	27294
823.27	27226
823.41	27127
823.55	27077
823.69	27169
823.83	27043
823.97	27150
824.11	27089
824.25	26940
824.389	26952
824.529	27032
824.669	27108
824.809	27058
824.949	27013
825.089	27131
825.228	27043
825.368	26948
825.508	26853
825.648	26765
825.787	26925
825.927	26940
826.067	26845
826.206	26948
826.346	26925
826.485	26956
826.625	27036
826.765	26921
826.904	26963
827.044	26689
827.183	26754
827.323	26625
827.462	26750
827.601	26648
827.741	26549
827.88	26686
828.02	26526
828.159	26530
828.298	26659
828.437	26678
828.577	26621
828.716	26712
828.855	26621
828.994	26301
829.134	26195
829.273	26446
829.412	26290
829.551	26259
829.69	26328
829.829	26404
829.968	26263
830.107	26370
830.246	26324
830.385	26191
830.524	26233
830.663	26081
830.802	26016
830.941	25883
831.08	25856
831.219	26084
831.357	25974
831.496	26122
831.635	25925
831.774	25822
831.913	25849
832.051	25693
832.19	25723
832.329	25738
832.467	25670
832.606	25540
832.744	25601
832.883	25597
833.022	25529
833.16	25624
833.299	25537
833.437	25514
833.576	25643
833.714	25605
833.852	25712
833.991	25700
834.129	25666
834.267	25826
834.406	25700
834.544	25689
834.682	25559
834.821	25537
834.959	25849
835.097	25601
835.235	25708
835.373	25613
835.511	25605
835.65	25400
835.788	25487
835.926	25358
836.064	25301
836.202	25381
836.34	25346
836.478	25521
836.615	25502
836.753	25491
836.891	25457
837.029	25293
837.167	25426
837.305	25434
837.443	25255
837.58	25187
837.718	25304
837.856	25335
837.993	25335
838.131	25289
838.269	25168
838.406	25168
838.544	25027
838.681	24894
838.819	24905
838.956	24730
839.094	24787
839.231	24810
839.369	24878
839.506	25122
839.643	25069
839.781	24776
839.918	24639
840.055	24791
840.193	24757
840.33	24730
840.467	24719
840.604	24764
840.742	24954
840.879	24570
841.016	24464
841.153	24582
841.29	24658
841.427	24745
841.564	24635
841.701	24639
841.838	24528
841.975	24528
842.112	24479
842.249	24490
842.385	24311
842.522	24650
842.659	24467
842.796	24372
842.933	24509
843.069	24376
843.206	24376
843.343	24403
843.479	24422
843.616	24475
843.752	24038
843.889	24258
844.025	24422
844.162	24129
844.298	24391
844.435	24159
844.571	24232
844.708	24289
844.844	24372
844.98	24357
845.117	24178
845.253	24201
845.389	24018
845.525	24087
845.661	24083
845.798	23904
845.934	24053
846.07	23973
846.206	23958
846.342	24072
846.478	23946
846.614	23691
846.75	23585
846.886	23695
847.022	23714
847.158	23695
847.294	23646
847.429	23630
847.565	23695
847.701	23950
847.837	23372
847.972	23318
848.108	23474
848.244	23414
848.379	23280
848.515	23208
848.65	23189
848.786	23220
848.921	23204
849.057	23246
849.192	23334
849.328	23254
849.463	23181
849.598	23250
849.734	23193
849.869	23094
850.004	22938
850.14	23067
850.275	22976
850.41	22869
850.545	22843
850.68	22999
850.815	22991
850.95	22923
851.085	23162
851.22	23079
851.355	23067
851.49	22984
851.625	22957
851.76	22896
851.895	22797
852.03	22946
852.165	23018
852.299	23181
852.434	23083
852.569	23098
852.703	22980
852.838	22873
852.973	23090
853.107	23193
853.242	22881
853.376	22805
853.511	22694
853.645	22820
853.78	22809
853.914	22786
854.048	22744
854.183	22725
854.317	22881
854.451	23018
854.585	22831
854.72	22736
854.854	22919
854.988	22839
855.122	22691
855.256	22653
855.39	22862
855.524	22885
855.658	22793
855.792	22892
855.926	22759
856.06	22812
856.194	22900
856.327	22740
856.461	22793
856.595	22752
856.729	22713
856.862	22980
856.996	22858
857.13	22835
857.263	22900
857.397	22854
857.53	22828
857.664	22801
857.797	22694
857.931	22915
858.064	22850
858.197	22816
858.331	22698
858.464	22694
858.597	22618
858.731	22805
858.864	22679
858.997	22675
859.13	22923
859.263	22843
859.396	22957
859.529	22774
859.662	22717
859.795	22683
859.928	22744
860.061	22896
860.194	23044
860.327	22885
860.46	22763
860.592	22782
860.725	22839
860.858	22923
860.99	22828
861.123	22713
861.256	22649
861.388	22854
861.521	23410
861.653	22630
861.786	22596
861.918	22759
862.05	22694
862.183	22752
862.315	22733
862.447	22763
862.58	22656
862.712	22634
862.844	22428
862.976	22588
863.108	22588
863.24	22847
863.372	22341
863.504	22550
863.636	22607
863.768	22481
863.9	22474
864.032	22489
864.164	22470
864.296	22466
864.428	22599
864.559	22599
864.691	22603
864.823	22519
864.954	22443
865.086	22497
865.217	22497
865.349	22306
865.48	22405
865.612	22375
865.743	22489
865.875	22432
866.006	22337
866.137	22432
866.269	22348
866.4	22440
866.531	22371
866.662	22177
866.793	22284
866.924	22398
867.055	22253
867.186	22287
867.317	22242
867.448	22253
867.579	22268
867.71	22268
867.841	22173
867.972	22310
868.103	22272
868.233	22215
868.364	22181
868.495	22348
868.625	22485
868.756	22607
868.886	22523
869.017	22523
869.147	22641
869.278	22660
869.408	22634
869.539	22535
869.669	22679
869.799	22489
869.929	22626
870.06	22706
870.19	22797
870.32	22820
870.45	22881
870.58	22694
870.71	22961
870.84	22930
870.97	22923
871.1	22904
871.23	23140
871.36	23162
871.489	22953
871.619	23071
871.749	23121
871.879	23060
872.008	23216
872.138	23322
872.267	23140
872.397	23075
872.526	23033
872.656	23044
872.785	22953
872.915	23140
873.044	23345
873.173	23143
873.303	23330
873.432	23170
873.561	23353
873.69	23212
873.819	23132
873.948	23178
874.077	23189
874.206	23159
874.335	23140
874.464	23303
874.593	23398
874.722	23368
874.851	23360
874.979	23436
875.108	23360
875.237	23315
875.365	23318
875.494	23303
875.623	23478
875.751	23284
875.88	23455
876.008	23467
876.136	23543
876.265	23863
876.393	23836
876.521	23847
876.65	23794
876.778	23714
876.906	23691
877.034	23779
877.162	23863
877.29	23710
877.418	23726
877.546	23668
877.674	23756
877.802	23752
877.93	23649
878.058	23615
878.185	23524
878.313	23627
878.441	23600
878.568	23474
878.696	23661
878.824	23570
878.951	23805
879.079	23779
879.206	23870
879.333	23916
879.461	23703
879.588	23847
879.715	23767
879.842	23912
879.97	23828
880.097	23665
880.224	23714
880.351	23600
880.478	23516
880.605	23474
880.732	23425
880.859	23714
880.986	23589
881.112	23501
881.239	23452
881.366	23303
881.493	23102
881.619	23083
881.746	23102
881.872	23037
881.999	23075
882.125	22953
882.252	23208
882.378	23223
882.505	23220
882.631	22900
882.757	22812
882.883	22809
883.01	22809
883.136	22767
883.262	22630
883.388	22573
883.514	22683
883.64	22706
883.766	22672
883.892	22481
884.018	22569
884.143	22790
884.269	22744
884.395	22481
884.52	22322
884.646	22432
884.772	22287
884.897	22272
885.023	22257
885.148	22443
885.274	22713
885.399	22542
885.524	22424
885.65	22462
885.775	22402
885.9	22341
886.025	22478
886.15	22447
886.275	22424
886.4	22344
886.525	22310
886.65	22261
886.775	22234
886.9	22470
887.025	22596
887.149	22306
887.274	22207
887.399	22124
887.523	22139
887.648	21994
887.773	21998
887.897	22162
888.021	22162
888.146	22162
888.27	22207
888.395	22215
888.519	22097
888.643	22051
888.767	22162
888.891	22112
889.015	22013
889.139	22097
889.263	21960
889.387	22086
889.511	22166
889.635	22010
889.759	21983
889.883	21861
890.006	22017
890.13	21937
890.254	21812
890.377	21873
890.501	21694
890.624	21561
890.748	21724
890.871	21545
890.995	21443
891.118	21447
891.241	21500
891.364	21462
891.488	21538
891.611	21370
891.734	21367
891.857	21519
891.98	21424
892.103	21530
892.226	21466
892.349	21401
892.471	21173
892.594	21386
892.717	21477
892.839	21321
892.962	21389
893.085	21439
893.207	21477
893.33	21317
893.452	21214
893.575	21428
893.697	21226
893.819	21481
893.941	21538
894.064	21477
894.186	21298
894.308	21325
894.43	21416
894.552	21431
894.674	21450
894.796	21222
894.918	21317
895.04	21287
895.161	21374
895.283	21317
895.405	21127
895.526	21252
895.648	21351
895.769	21382
895.891	21344
896.012	21454
896.134	21389
896.255	21294
896.376	21184
896.498	21351
896.619	21344
896.74	21313
896.861	21389
896.982	21686
897.103	21774
897.224	21587
897.345	21572
897.466	21488
897.587	21644
897.708	21564
897.828	21553
897.949	21530
898.07	21507
898.19	21416
898.311	21572
898.431	21534
898.552	21648
898.672	21595
898.792	21549
898.913	21447
899.033	21382
899.153	21302
899.273	21245
899.393	21249
899.513	21313
899.633	21237
899.753	21195
899.873	21207
899.993	21287
900.113	21268
900.232	21142
900.352	21112
900.472	21070
900.591	21047
900.711	21055
900.83	20975
900.95	21024
901.069	21055
901.189	20902
901.308	20727
901.427	20617
901.546	20708
901.665	20613
901.784	20663
901.904	20423
902.023	20511
902.141	20153
902.26	20065
902.379	20199
902.498	20199
902.617	20046
902.735	20069
902.854	20100
902.973	19928
903.091	19712
903.21	19685
903.328	19788
903.446	19647
903.565	19495
903.683	19457
903.801	19472
903.919	19457
904.038	19411
904.156	19263
904.274	19369
904.392	19266
904.51	19304
904.627	19251
904.745	19331
904.863	19308
904.981	19137
905.098	18939
905.216	18970
905.334	19012
905.451	19015
905.569	18909
905.686	19065
905.803	18852
905.921	18707
906.038	18848
906.155	18719
906.272	18692
906.389	18654
906.506	18479
906.623	18559
906.74	18445
906.857	18304
906.974	18391
907.091	18536
907.208	18585
907.324	18422
907.441	18403
907.557	18228
907.674	18251
907.79	18197
907.907	18083
908.023	18155
908.139	18258
908.256	18178
908.372	18117
908.488	18076
908.604	17939
908.72	17878
908.836	17961
908.952	17786
909.068	17897
909.184	18045
909.3	17828
909.415	17950
909.531	17863
909.647	17592
909.762	17558
909.878	17668
909.993	17649
910.108	17493
910.224	17524
910.339	17547
910.454	17440
910.57	17395
910.685	17337
910.8	17592
910.915	17615
911.03	17406
911.145	17250
911.259	17132
911.374	17147
911.489	17025
911.604	17052
911.718	16946
911.833	16892
911.947	16812
912.062	16797
912.176	17006
912.291	16889
912.405	16976
912.519	17113
912.633	17151
912.748	16942
912.862	16877
912.976	16736
913.09	16626
913.204	16717
913.318	16748
913.431	16809
913.545	16828
913.659	16736
913.772	16641
913.886	16546
914	16417
914.113	16558
914.226	16607
914.34	16554
914.453	16421
914.566	16523
914.68	16344
914.793	16379
914.906	16211
915.019	16067
915.132	16116
915.245	16162
915.358	16105
915.47	16048
915.583	16025
915.696	16067
915.809	16169
915.921	16188
916.034	16036
916.146	15915
916.259	15968
916.371	16040
916.483	16029
916.595	15941
916.708	15968
916.82	15869
916.932	15812
917.044	15800
917.156	15808
917.268	15667
917.38	15698
917.491	15641
917.603	15656
917.715	15762
917.826	15804
917.938	15561
918.049	15530
918.161	15698
918.272	15800
918.384	15690
918.495	15587
918.606	15526
918.717	15298
918.828	15450
918.939	15275
919.05	15291
919.161	15378
919.272	15249
919.383	15279
919.494	15549
919.604	15629
919.715	15363
919.826	15294
919.936	15317
920.047	15397
920.157	15389
920.267	15549
920.378	15420
920.488	15294
920.598	15633
920.708	15610
920.818	15424
920.928	15610
921.038	15587
921.148	15637
921.258	15306
921.368	15272
921.477	15165
921.587	15161
921.697	14937
921.806	15108
921.916	15077
922.025	14830
922.134	14655
922.244	14606
922.353	14674
922.462	14575
922.571	14484
922.68	14362
922.789	14396
922.898	14396
923.007	14278
923.116	14358
923.224	14377
923.333	14317
923.442	14149
923.55	14237
923.659	14214
923.767	14290
923.876	14073
923.984	14267
924.092	14096
924.201	14043
924.309	14130
924.417	13993
924.525	14027
924.633	14077
924.741	14906
924.849	13776
924.956	13955
925.064	13917
925.172	13712
925.279	13769
925.387	13791
925.494	13662
925.602	13856
925.709	13826
925.816	13620
925.924	13677
926.031	13731
926.138	13734
926.245	13719
926.352	13529
926.459	13655
926.566	13738
926.673	13590
926.779	13544
926.886	13453
926.993	13270
927.099	13232
927.206	13274
927.312	13206
927.419	13407
927.525	13187
927.631	13270
927.737	13107
927.843	13076
927.95	12939
928.056	13080
928.162	12966
928.267	13133
928.373	13704
928.479	13114
928.585	12829
928.69	13015
928.796	13031
928.901	12981
929.007	12795
929.112	12939
929.218	12844
929.323	12768
929.428	12753
929.533	12886
929.638	12719
929.743	12711
929.848	12825
929.953	12665
930.058	12646
930.163	12448
930.267	12490
930.372	12616
930.477	12391
930.581	12604
930.685	12391
930.79	12304
930.894	12361
930.998	12209
931.103	12399
931.207	12064
931.311	12038
931.415	11874
931.519	11764
931.623	11680
