Data from test_V78500241_2429.txt Node
Date: Fri Mar 25 15:58:37 CST 2022
User: usil
Spectrometer: V785-0024
Trigger mode: 0
Integration Time (sec): 4.000000E-1
Scans to average: 1
Nonlinearity correction enabled: false
Boxcar width: 0
Storing dark spectrum: false
XAxis mode: Wavelengths
Number of Pixels in Spectrum: 1024
>>>>>Begin Spectral Data<<<<<
801.071	28713
801.214	28713
801.356	28508
801.499	28363
801.641	28421
801.783	28211
801.926	28272
802.068	28348
802.211	28337
802.353	28223
802.496	28284
802.638	27953
802.78	28059
802.923	27873
803.065	27930
803.208	27918
803.35	27991
803.492	28158
803.635	28284
803.777	28093
803.919	28280
804.061	28679
804.204	28295
804.346	28101
804.488	28112
804.63	28299
804.773	28242
804.915	28390
805.057	28363
805.199	28272
805.341	28306
805.483	28238
805.626	28390
805.768	28306
805.91	28428
806.052	28447
806.194	28238
806.336	28603
806.478	28504
806.62	28344
806.762	28489
806.904	28660
807.046	28930
807.188	28911
807.33	28854
807.472	28980
807.614	28790
807.756	28797
807.898	28733
808.04	28649
808.182	28656
808.324	28649
808.465	28927
808.607	29060
808.749	29185
808.891	29223
809.033	29132
809.174	29193
809.316	29151
809.458	29071
809.6	29143
809.741	29181
809.883	29174
810.025	29391
810.166	29284
810.308	29478
810.45	29235
810.591	29383
810.733	29048
810.875	29140
811.016	28999
811.158	29079
811.299	29075
811.441	29277
811.582	29170
811.724	29083
811.865	29193
812.007	29147
812.148	29075
812.29	29124
812.431	29341
812.573	29421
812.714	29478
812.855	29562
812.997	29680
813.138	29817
813.279	29726
813.421	29623
813.562	29573
813.703	29337
813.845	29307
813.986	29090
814.127	28881
814.268	28755
814.41	28869
814.551	28733
814.692	28786
814.833	28858
814.974	28778
815.115	28710
815.256	28668
815.397	28641
815.539	28713
815.68	28626
815.821	28577
815.962	28710
816.103	28481
816.244	28542
816.385	28432
816.526	28466
816.666	28188
816.807	28074
816.948	28131
817.089	28325
817.23	28154
817.371	28078
817.512	28249
817.653	28097
817.793	28021
817.934	28135
818.075	28082
818.216	28200
818.356	28055
818.497	27846
818.638	27709
818.778	27934
818.919	27918
819.06	27979
819.2	27960
819.341	28116
819.481	28204
819.622	28299
819.762	28485
819.903	28394
820.043	28367
820.184	28360
820.324	28314
820.465	28360
820.605	28246
820.746	28314
820.886	28230
821.026	28303
821.167	28223
821.307	28124
821.447	28120
821.588	28105
821.728	27899
821.868	27827
822.008	27679
822.149	27663
822.289	27656
822.429	27252
822.569	27306
822.709	27256
822.849	27100
822.99	27119
823.13	27154
823.27	26952
823.41	27009
823.55	26861
823.69	26921
823.83	27005
823.97	26929
824.11	26781
824.25	26678
824.389	26697
824.529	26804
824.669	26807
824.809	26861
824.949	26826
825.089	26788
825.228	26853
825.368	26663
825.508	26705
825.648	26636
825.787	26648
825.927	26777
826.067	26697
826.206	26693
826.346	26678
826.485	26845
826.625	26769
826.765	26708
826.904	26739
827.044	26594
827.183	26594
827.323	26400
827.462	26415
827.601	26362
827.741	26374
827.88	26393
828.02	26313
828.159	26476
828.298	26389
828.437	26469
828.577	26385
828.716	26492
828.855	26347
828.994	26161
829.134	26119
829.273	26126
829.412	26001
829.551	26005
829.69	26027
829.829	26005
829.968	26161
830.107	26164
830.246	26084
830.385	26111
830.524	25944
830.663	25780
830.802	25852
830.941	25696
831.08	25571
831.219	25818
831.357	25693
831.496	25845
831.635	25693
831.774	25586
831.913	25632
832.051	25544
832.19	25559
832.329	25567
832.467	25388
832.606	25327
832.744	25263
832.883	25362
833.022	25206
833.16	25346
833.299	25457
833.437	25373
833.576	25422
833.714	25369
833.852	25476
833.991	25388
834.129	25472
834.267	25464
834.406	25346
834.544	25388
834.682	25495
834.821	25384
834.959	25533
835.097	25339
835.235	25476
835.373	25297
835.511	25403
835.65	25293
835.788	25289
835.926	25206
836.064	24958
836.202	25019
836.34	25270
836.478	25343
836.615	25297
836.753	25263
836.891	25285
837.029	25289
837.167	25270
837.305	25069
837.443	24962
837.58	24886
837.718	25133
837.856	25118
837.993	24981
838.131	25114
838.269	24871
838.406	24867
838.544	24817
838.681	24661
838.819	24639
838.956	24502
839.094	24498
839.231	24593
839.369	24566
839.506	24966
839.643	24741
839.781	24532
839.918	24555
840.055	24528
840.193	24479
840.33	24365
840.467	24456
840.604	24532
840.742	24730
840.879	24350
841.016	24372
841.153	24266
841.29	24521
841.427	24448
841.564	24490
841.701	24414
841.838	24376
841.975	24353
842.112	24323
842.249	24197
842.385	24121
842.522	24361
842.659	24148
842.796	24159
842.933	24235
843.069	24277
843.206	24102
843.343	24174
843.479	24224
843.616	24125
843.752	23878
843.889	23931
844.025	23923
844.162	23961
844.298	23969
844.435	23946
844.571	23798
844.708	23863
844.844	24216
844.98	24125
845.117	23958
845.253	23965
845.389	23847
845.525	23961
845.661	23961
845.798	23684
845.934	23710
846.07	23756
846.206	23718
846.342	23775
846.478	23619
846.614	23444
846.75	23398
846.886	23383
847.022	23600
847.158	23288
847.294	23353
847.429	23455
847.565	23368
847.701	23634
847.837	23265
847.972	23208
848.108	23193
848.244	23181
848.379	23037
848.515	22953
848.65	22881
848.786	22980
848.921	23010
849.057	23071
849.192	23060
849.328	22965
849.463	23048
849.598	22976
849.734	22934
849.869	22930
850.004	22828
850.14	22858
850.275	22767
850.41	22744
850.545	22694
850.68	22786
850.815	22752
850.95	22752
851.085	22885
851.22	22759
851.355	22778
851.49	22694
851.625	22816
851.76	22710
851.895	22717
852.03	22637
852.165	22721
852.299	22930
852.434	22809
852.569	22698
852.703	22717
852.838	22930
852.973	22896
853.107	22843
853.242	22649
853.376	22565
853.511	22402
853.645	22459
853.78	22599
853.914	22584
854.048	22618
854.183	22565
854.317	22634
854.451	22805
854.585	22527
854.72	22611
854.854	22599
854.988	22599
855.122	22626
855.256	22386
855.39	22519
855.524	22664
855.658	22721
855.792	22603
855.926	22432
856.06	22725
856.194	22474
856.327	22607
856.461	22512
856.595	22622
856.729	22599
856.862	22615
856.996	22603
857.13	22618
857.263	22531
857.397	22679
857.53	22588
857.664	22611
857.797	22550
857.931	22656
858.064	22523
858.197	22603
858.331	22599
858.464	22402
858.597	22443
858.731	22481
858.864	22599
858.997	22500
859.13	22542
859.263	22447
859.396	22596
859.529	22527
859.662	22481
859.795	22569
859.928	22550
860.061	22713
860.194	22740
860.327	22443
860.46	22588
860.592	22725
860.725	22706
860.858	22687
860.99	22523
861.123	22538
861.256	22493
861.388	22542
861.521	23189
861.653	22512
861.786	22318
861.918	22386
862.05	22398
862.183	22386
862.315	22580
862.447	22478
862.58	22504
862.712	22249
862.844	22238
862.976	22405
863.108	22276
863.24	22504
863.372	22219
863.504	22219
863.636	22246
863.768	22375
863.9	22230
864.032	22246
864.164	22268
864.296	22223
864.428	22424
864.559	22299
864.691	22394
864.823	22344
864.954	22143
865.086	22177
865.217	22219
865.349	22101
865.48	22188
865.612	22188
865.743	22261
865.875	22147
866.006	22219
866.137	22109
866.269	22112
866.4	22150
866.531	22044
866.662	22082
866.793	22101
866.924	21998
867.055	22143
867.186	22101
867.317	21911
867.448	22078
867.579	22059
867.71	21998
867.841	22029
867.972	22074
868.103	22070
868.233	22048
868.364	22097
868.495	21968
868.625	22246
868.756	22333
868.886	22322
869.017	22363
869.147	22382
869.278	22523
869.408	22192
869.539	22337
869.669	22360
869.799	22291
869.929	22455
870.06	22421
870.19	22702
870.32	22618
870.45	22694
870.58	22717
870.71	22812
870.84	22862
870.97	22675
871.1	22672
871.23	22710
871.36	23033
871.489	22725
871.619	22915
871.749	22900
871.879	22858
872.008	23064
872.138	22999
872.267	22961
872.397	22687
872.526	22733
872.656	22725
872.785	22774
872.915	22889
873.044	22942
873.173	22980
873.303	23033
873.432	23083
873.561	23041
873.69	23006
873.819	22984
873.948	23006
874.077	22923
874.206	22930
874.335	22854
874.464	23041
874.593	23132
874.722	23147
874.851	23075
874.979	23246
875.108	23170
875.237	23128
875.365	23041
875.494	23083
875.623	23147
875.751	23117
875.88	23162
876.008	23254
876.136	23387
876.265	23406
876.393	23684
876.521	23630
876.65	23501
876.778	23528
876.906	23531
877.034	23463
877.162	23444
877.29	23520
877.418	23501
877.546	23455
877.674	23360
877.802	23573
877.93	23509
878.058	23463
878.185	23296
878.313	23395
878.441	23531
878.568	23197
878.696	23322
878.824	23467
878.951	23592
879.079	23634
879.206	23726
879.333	23520
879.461	23501
879.588	23573
879.715	23672
879.842	23764
879.97	23486
880.097	23273
880.224	23254
880.351	23250
880.478	23277
880.605	23261
880.732	23376
880.859	23539
880.986	23315
881.112	23273
881.239	23094
881.366	23090
881.493	22881
881.619	22835
881.746	22858
881.872	22885
881.999	22831
882.125	22793
882.252	22774
882.378	22915
882.505	22908
882.631	22641
882.757	22634
882.883	22577
883.01	22504
883.136	22428
883.262	22402
883.388	22276
883.514	22447
883.64	22607
883.766	22493
883.892	22291
884.018	22291
884.143	22436
884.269	22611
884.395	22284
884.52	22131
884.646	22238
884.772	22124
884.897	22131
885.023	22162
885.148	22226
885.274	22204
885.399	22303
885.524	22181
885.65	22211
885.775	22177
885.9	22013
886.025	22223
886.15	22284
886.275	22070
886.4	22147
886.525	22105
886.65	22078
886.775	22116
886.9	22200
887.025	22344
887.149	22036
887.274	21831
887.399	21975
887.523	21930
887.648	21956
887.773	21850
887.897	21937
888.021	21987
888.146	21869
888.27	21979
888.395	21979
888.519	21884
888.643	21918
888.767	21922
888.891	21793
889.015	21667
889.139	21739
889.263	21561
889.387	21728
889.511	21975
889.635	21789
889.759	21743
889.883	21705
890.006	21793
890.13	21800
890.254	21751
890.377	21629
890.501	21492
890.624	21370
890.748	21481
890.871	21401
890.995	21233
891.118	21142
891.241	21310
891.364	21287
891.488	21298
891.611	21287
891.734	21363
891.857	21405
891.98	21268
892.103	21348
892.226	21108
892.349	21230
892.471	21104
892.594	21214
892.717	21195
892.839	21096
892.962	21077
893.085	21203
893.207	21116
893.33	20975
893.452	21081
893.575	21135
893.697	20986
893.819	21317
893.941	21203
894.064	21306
894.186	20952
894.308	20918
894.43	21195
894.552	21275
894.674	21264
894.796	20906
894.918	21081
895.04	20967
895.161	21192
895.283	21157
895.405	21024
895.526	21074
895.648	21089
895.769	21146
895.891	21138
896.012	21233
896.134	21184
896.255	21089
896.376	21074
896.498	21112
896.619	21036
896.74	21077
896.861	21093
896.982	21466
897.103	21610
897.224	21348
897.345	21283
897.466	21146
897.587	21348
897.708	21412
897.828	21405
897.949	21256
898.07	21180
898.19	21256
898.311	21332
898.431	21302
898.552	21294
898.672	21496
898.792	21393
898.913	21348
899.033	21214
899.153	21104
899.273	20944
899.393	21058
899.513	21005
899.633	21096
899.753	21108
899.873	20956
899.993	21089
900.113	20952
900.232	20975
900.352	20967
900.472	20979
900.591	20727
900.711	20883
900.83	20785
900.95	20914
901.069	20845
901.189	20746
901.308	20476
901.427	20301
901.546	20415
901.665	20412
901.784	20408
901.904	20301
902.023	20248
902.141	19993
902.26	19894
902.379	19928
902.498	19898
902.617	19833
902.735	19963
902.854	19837
902.973	19837
903.091	19529
903.21	19590
903.328	19495
903.446	19457
903.565	19438
903.683	19495
903.801	19198
903.919	19339
904.038	19232
904.156	19133
904.274	19251
904.392	19038
904.51	19141
904.627	19145
904.745	19126
904.863	19168
904.981	18886
905.098	18791
905.216	18863
905.334	18798
905.451	18715
905.569	18825
905.686	18806
905.803	18650
905.921	18547
906.038	18623
906.155	18681
906.272	18372
906.389	18403
906.506	18346
906.623	18311
906.74	18224
906.857	18114
906.974	18148
907.091	18445
907.208	18365
907.324	18266
907.441	18197
907.557	18060
907.674	17908
907.79	18045
907.907	18045
908.023	18057
908.139	17988
908.256	18011
908.372	17863
908.488	17840
908.604	17805
908.72	17733
908.836	17722
908.952	17745
909.068	17745
909.184	17836
909.3	17760
909.415	17668
909.531	17668
909.647	17482
909.762	17543
909.878	17391
909.993	17436
910.108	17421
910.224	17235
910.339	17345
910.454	17345
910.57	17250
910.685	17155
910.8	17330
910.915	17391
911.03	17151
911.145	16930
911.259	17067
911.374	17029
911.489	16911
911.604	16904
911.718	16698
911.833	16725
911.947	16679
912.062	16622
912.176	16687
912.291	16755
912.405	16744
912.519	16938
912.633	16923
912.748	16729
912.862	16721
912.976	16588
913.09	16478
913.204	16615
913.318	16474
913.431	16611
913.545	16542
913.659	16691
913.772	16440
913.886	16398
914	16360
914.113	16306
914.226	16348
914.34	16230
914.453	16242
914.566	16348
914.68	16207
914.793	16135
914.906	16040
915.019	15823
915.132	15827
915.245	15907
915.358	15937
915.47	15934
915.583	15812
915.696	15838
915.809	16063
915.921	16006
916.034	15850
916.146	15755
916.259	15724
916.371	15827
916.483	15880
916.595	15774
916.708	15770
916.82	15698
916.932	15629
917.044	15652
917.156	15625
917.268	15504
917.38	15485
917.491	15485
917.603	15469
917.715	15549
917.826	15572
917.938	15477
918.049	15370
918.161	15515
918.272	15610
918.384	15557
918.495	15393
918.606	15150
918.717	15222
918.828	15203
918.939	15195
919.05	15195
919.161	15214
919.272	15081
919.383	15077
919.494	15287
919.604	15443
919.715	15176
919.826	15154
919.936	15226
920.047	15245
920.157	15131
920.267	15401
920.378	15256
920.488	15245
920.598	15340
920.708	15526
920.818	15306
920.928	15401
921.038	15447
921.148	15401
921.258	15131
921.368	15066
921.477	14933
921.587	14872
921.697	14765
921.806	14872
921.916	14819
922.025	14594
922.134	14537
922.244	14571
922.353	14606
922.462	14495
922.571	14343
922.68	14221
922.789	14206
922.898	14275
923.007	14176
923.116	14240
923.224	14187
923.333	14145
923.442	14100
923.55	14027
923.659	14035
923.767	13989
923.876	13947
923.984	14012
924.092	14039
924.201	14008
924.309	13932
924.417	13898
924.525	13818
924.633	13845
924.741	14590
924.849	13670
924.956	13734
925.064	13632
925.172	13502
925.279	13582
925.387	13651
925.494	13559
925.602	13616
925.709	13582
925.816	13453
925.924	13525
926.031	13563
926.138	13441
926.245	13514
926.352	13369
926.459	13472
926.566	13590
926.673	13499
926.779	13434
926.886	13327
926.993	13168
927.099	13072
927.206	13103
927.312	13069
927.419	13164
927.525	13088
927.631	13103
927.737	13000
927.843	12844
927.95	12985
928.056	12958
928.162	12924
928.267	13027
928.373	13605
928.479	13023
928.585	12658
928.69	12867
928.796	12970
928.901	12852
929.007	12616
929.112	12776
929.218	12764
929.323	12658
929.428	12730
929.533	12806
929.638	12578
929.743	12563
929.848	12620
929.953	12528
930.058	12506
930.163	12346
930.267	12289
930.372	12418
930.477	12308
930.581	12490
930.685	12380
930.79	12190
930.894	12171
930.998	12171
931.103	12273
931.207	11965
931.311	11958
931.415	11726
931.519	11630
931.623	11566
