Data from test_V78500241_1832.txt Node
Date: Fri Mar 25 15:54:29 CST 2022
User: usil
Spectrometer: V785-0024
Trigger mode: 0
Integration Time (sec): 4.000000E-1
Scans to average: 1
Nonlinearity correction enabled: false
Boxcar width: 0
Storing dark spectrum: false
XAxis mode: Wavelengths
Number of Pixels in Spectrum: 1024
>>>>>Begin Spectral Data<<<<<
801.071	28596
801.214	28561
801.356	28329
801.499	28500
801.641	28177
801.783	28200
801.926	28181
802.068	28265
802.211	28192
802.353	28131
802.496	27926
802.638	27953
802.78	27941
802.923	27717
803.065	27709
803.208	27884
803.35	27857
803.492	28017
803.635	28032
803.777	27960
803.919	28219
804.061	28386
804.204	28249
804.346	28067
804.488	27911
804.63	28116
804.773	28105
804.915	28158
805.057	28268
805.199	28044
805.341	28318
805.483	28230
805.626	28360
805.768	28128
805.91	28169
806.052	28219
806.194	28162
806.336	28367
806.478	28284
806.62	28173
806.762	28375
806.904	28527
807.046	28710
807.188	28675
807.33	28626
807.472	28759
807.614	28767
807.756	28706
807.898	28687
808.04	28481
808.182	28580
808.324	28634
808.465	28710
808.607	28911
808.749	28976
808.891	28900
809.033	29178
809.174	29064
809.316	28927
809.458	28812
809.6	28687
809.741	28934
809.883	29159
810.025	29197
810.166	29102
810.308	29322
810.45	29090
810.591	29166
810.733	28946
810.875	28782
811.016	28759
811.158	28873
811.299	29037
811.441	29052
811.582	28991
811.724	29041
811.865	28919
812.007	29044
812.148	28957
812.29	28900
812.431	29159
812.573	29250
812.714	29417
812.855	29402
812.997	29471
813.138	29707
813.279	29463
813.421	29417
813.562	29375
813.703	29284
813.845	29132
813.986	29022
814.127	28755
814.268	28565
814.41	28706
814.551	28759
814.692	28615
814.833	28687
814.974	28588
815.115	28698
815.256	28500
815.397	28569
815.539	28527
815.68	28478
815.821	28428
815.962	28554
816.103	28611
816.244	28382
816.385	28192
816.526	28109
816.666	28044
816.807	27953
816.948	28109
817.089	28162
817.23	27964
817.371	27907
817.512	27797
817.653	28074
817.793	27865
817.934	28044
818.075	28036
818.216	28036
818.356	27823
818.497	27903
818.638	27614
818.778	27728
818.919	27785
819.06	27800
819.2	27884
819.341	27857
819.481	27949
819.622	28036
819.762	28306
819.903	28196
820.043	28082
820.184	28112
820.324	28154
820.465	28090
820.605	28105
820.746	28105
820.886	27823
821.026	28044
821.167	28051
821.307	28109
821.447	28040
821.588	27903
821.728	27755
821.868	27667
822.008	27523
822.149	27504
822.289	27389
822.429	27123
822.569	27226
822.709	27211
822.849	27096
822.99	26849
823.13	27085
823.27	26853
823.41	26777
823.55	26682
823.69	26800
823.83	26762
823.97	26739
824.11	26533
824.25	26537
824.389	26530
824.529	26625
824.669	26541
824.809	26705
824.949	26651
825.089	26667
825.228	26796
825.368	26328
825.508	26556
825.648	26545
825.787	26575
825.927	26522
826.067	26507
826.206	26473
826.346	26560
826.485	26594
826.625	26324
826.765	26571
826.904	26518
827.044	26233
827.183	26195
827.323	26115
827.462	26237
827.601	26202
827.741	26046
827.88	26202
828.02	25974
828.159	26191
828.298	26214
828.437	26290
828.577	26092
828.716	26199
828.855	26142
828.994	25837
829.134	25921
829.273	25921
829.412	25898
829.551	25795
829.69	25902
829.829	26043
829.968	25791
830.107	25955
830.246	25932
830.385	25856
830.524	25765
830.663	25742
830.802	25639
830.941	25411
831.08	25468
831.219	25499
831.357	25521
831.496	25597
831.635	25502
831.774	25495
831.913	25335
832.051	25202
832.19	25263
832.329	25266
832.467	25289
832.606	25080
832.744	25012
832.883	25187
833.022	25228
833.16	25137
833.299	25263
833.437	25168
833.576	25126
833.714	25114
833.852	25251
833.991	25365
834.129	25228
834.267	25293
834.406	25228
834.544	25247
834.682	25103
834.821	25152
834.959	25400
835.097	25129
835.235	25217
835.373	25240
835.511	25088
835.65	25088
835.788	25103
835.926	24954
836.064	24890
836.202	24871
836.34	25031
836.478	25129
836.615	24985
836.753	24985
836.891	25012
837.029	25122
837.167	24973
837.305	24875
837.443	24867
837.58	24738
837.718	24932
837.856	24897
837.993	24817
838.131	24829
838.269	24688
838.406	24764
838.544	24654
838.681	24456
838.819	24372
838.956	24289
839.094	24372
839.231	24281
839.369	24502
839.506	24669
839.643	24536
839.781	24304
839.918	24365
840.055	24235
840.193	24155
840.33	24319
840.467	24243
840.604	24254
840.742	24544
840.879	24117
841.016	24083
841.153	24133
841.29	24365
841.427	24239
841.564	24380
841.701	24220
841.838	24182
841.975	24121
842.112	24140
842.249	24026
842.385	24026
842.522	24129
842.659	24076
842.796	23969
842.933	23920
843.069	23923
843.206	23916
843.343	23901
843.479	24018
843.616	23931
843.752	23824
843.889	23794
844.025	23984
844.162	23531
844.298	23824
844.435	23764
844.571	23733
844.708	23745
844.844	23923
844.98	23866
845.117	23851
845.253	23638
845.389	23714
845.525	23718
845.661	23729
845.798	23455
845.934	23577
846.07	23486
846.206	23463
846.342	23589
846.478	23471
846.614	23410
846.75	23162
846.886	23136
847.022	23094
847.158	23288
847.294	23151
847.429	23220
847.565	23208
847.701	23471
847.837	22961
847.972	22877
848.108	22961
848.244	23064
848.379	22763
848.515	22862
848.65	22889
848.786	22778
848.921	22767
849.057	22908
849.192	22976
849.328	22889
849.463	22797
849.598	22641
849.734	22729
849.869	22694
850.004	22538
850.14	22557
850.275	22504
850.41	22455
850.545	22405
850.68	22577
850.815	22485
850.95	22512
851.085	22763
851.22	22679
851.355	22687
851.49	22535
851.625	22550
851.76	22497
851.895	22523
852.03	22436
852.165	22531
852.299	22535
852.434	22664
852.569	22546
852.703	22573
852.838	22603
852.973	22630
853.107	22702
853.242	22588
853.376	22459
853.511	22185
853.645	22398
853.78	22386
853.914	22443
854.048	22322
854.183	22363
854.317	22504
854.451	22603
854.585	22306
854.72	22204
854.854	22447
854.988	22204
855.122	22257
855.256	22280
855.39	22287
855.524	22440
855.658	22382
855.792	22295
855.926	22398
856.06	22428
856.194	22436
856.327	22341
856.461	22265
856.595	22390
856.729	22394
856.862	22405
856.996	22386
857.13	22531
857.263	22440
857.397	22436
857.53	22303
857.664	22421
857.797	22466
857.931	22341
858.064	22371
858.197	22440
858.331	22386
858.464	22242
858.597	22306
858.731	22322
858.864	22246
858.997	22287
859.13	22265
859.263	22356
859.396	22428
859.529	22276
859.662	22253
859.795	22325
859.928	22459
860.061	22428
860.194	22573
860.327	22485
860.46	22409
860.592	22531
860.725	22485
860.858	22573
860.99	22306
861.123	22280
861.256	22284
861.388	22261
861.521	23025
861.653	22280
861.786	22120
861.918	22238
862.05	22192
862.183	22249
862.315	22272
862.447	22421
862.58	22196
862.712	22101
862.844	22036
862.976	22215
863.108	22120
863.24	22523
863.372	22124
863.504	22074
863.636	22070
863.768	22207
863.9	22173
864.032	22101
864.164	21979
864.296	22162
864.428	22154
864.559	22169
864.691	22154
864.823	22040
864.954	22006
865.086	22029
865.217	21975
865.349	21869
865.48	21907
865.612	21884
865.743	22078
865.875	22116
866.006	21930
866.137	21994
866.269	21838
866.4	21918
866.531	21854
866.662	21880
866.793	21854
866.924	22006
867.055	21934
867.186	21884
867.317	21941
867.448	21747
867.579	21823
867.71	21838
867.841	21743
867.972	21857
868.103	21911
868.233	21880
868.364	21865
868.495	21915
868.625	22109
868.756	22230
868.886	22124
869.017	22215
869.147	22242
869.278	22211
869.408	22196
869.539	22032
869.669	22280
869.799	22166
869.929	22272
870.06	22238
870.19	22455
870.32	22577
870.45	22394
870.58	22504
870.71	22599
870.84	22615
870.97	22542
871.1	22550
871.23	22565
871.36	22771
871.489	22622
871.619	22637
871.749	22649
871.879	22694
872.008	22793
872.138	22790
872.267	22717
872.397	22607
872.526	22622
872.656	22436
872.785	22622
872.915	22683
873.044	22820
873.173	22809
873.303	22706
873.432	22752
873.561	22831
873.69	22577
873.819	22733
873.948	22782
874.077	22755
874.206	22645
874.335	22771
874.464	22694
874.593	23003
874.722	22904
874.851	22972
874.979	22991
875.108	23014
875.237	22968
875.365	22797
875.494	22824
875.623	23029
875.751	23003
875.88	22934
876.008	22999
876.136	23231
876.265	23353
876.393	23463
876.521	23379
876.65	23436
876.778	23307
876.906	23368
877.034	23208
877.162	23372
877.29	23159
877.418	23185
877.546	23223
877.674	23322
877.802	23360
877.93	23242
878.058	23265
878.185	23193
878.313	23395
878.441	23273
878.568	23140
878.696	23170
878.824	23349
878.951	23417
879.079	23566
879.206	23547
879.333	23471
879.461	23341
879.588	23326
879.715	23417
879.842	23516
879.97	23410
880.097	23288
880.224	23083
880.351	23090
880.478	23197
880.605	23109
880.732	23064
880.859	23364
880.986	23064
881.112	23056
881.239	22927
881.366	22816
881.493	22786
881.619	22637
881.746	22683
881.872	22626
881.999	22577
882.125	22656
882.252	22752
882.378	22687
882.505	22725
882.631	22573
882.757	22436
882.883	22375
883.01	22352
883.136	22253
883.262	22169
883.388	22257
883.514	22382
883.64	22318
883.766	22223
883.892	22112
884.018	22253
884.143	22253
884.269	22291
884.395	21934
884.52	21972
884.646	22074
884.772	21937
884.897	21892
885.023	22070
885.148	22070
885.274	22025
885.399	22044
885.524	22002
885.65	21987
885.775	21956
885.9	21880
886.025	22059
886.15	22051
886.275	21892
886.4	21983
886.525	21941
886.65	21975
886.775	21827
886.9	22185
887.025	22059
887.149	21911
887.274	21800
887.399	21770
887.523	21789
887.648	21709
887.773	21641
887.897	21812
888.021	21873
888.146	21781
888.27	21865
888.395	21842
888.519	21842
888.643	21766
888.767	21686
888.891	21698
889.015	21603
889.139	21682
889.263	21473
889.387	21728
889.511	21610
889.635	21641
889.759	21572
889.883	21530
890.006	21511
890.13	21701
890.254	21408
890.377	21447
890.501	21382
890.624	21188
890.748	21408
890.871	21127
890.995	21081
891.118	21062
891.241	21039
891.364	21089
891.488	21214
891.611	21119
891.734	21024
891.857	21161
891.98	21062
892.103	21096
892.226	21051
892.349	21089
892.471	20994
892.594	21039
892.717	21001
892.839	20937
892.962	20990
893.085	21074
893.207	20944
893.33	21024
893.452	20933
893.575	20998
893.697	21009
893.819	21085
893.941	21176
894.064	21112
894.186	20872
894.308	20880
894.43	21039
894.552	21116
894.674	20975
894.796	20849
894.918	20971
895.04	20925
895.161	21058
895.283	21005
895.405	20994
895.526	20948
895.648	21005
895.769	20872
895.891	20963
896.012	21066
896.134	20998
896.255	20902
896.376	21013
896.498	20994
896.619	21017
896.74	20876
896.861	21032
896.982	21370
897.103	21428
897.224	21131
897.345	21127
897.466	21085
897.587	21173
897.708	21302
897.828	21287
897.949	21013
898.07	21020
898.19	21066
898.311	21306
898.431	21142
898.552	21203
898.672	21154
898.792	21169
898.913	21028
899.033	21077
899.153	20921
899.273	20815
899.393	20701
899.513	20876
899.633	20925
899.753	21062
899.873	20861
899.993	20880
900.113	20849
900.232	20864
900.352	20746
900.472	20746
900.591	20686
900.711	20640
900.83	20648
900.95	20735
901.069	20724
901.189	20537
901.308	20210
901.427	20267
901.546	20309
901.665	20240
901.784	20282
901.904	20035
902.023	20016
902.141	19822
902.26	19807
902.379	19883
902.498	19643
902.617	19609
902.735	19807
902.854	19719
902.973	19696
903.091	19430
903.21	19403
903.328	19259
903.446	19324
903.565	19202
903.683	19209
903.801	19042
903.919	19179
904.038	19156
904.156	19012
904.274	19084
904.392	18951
904.51	18932
904.627	18993
904.745	18916
904.863	18810
904.981	18772
905.098	18658
905.216	18597
905.334	18658
905.451	18703
905.569	18707
905.686	18612
905.803	18681
905.921	18437
906.038	18467
906.155	18407
906.272	18201
906.389	18334
906.506	18159
906.623	18167
906.74	18114
906.857	18064
906.974	18072
907.091	18232
907.208	18247
907.324	18136
907.441	17992
907.557	17965
907.674	17851
907.79	17760
907.907	17817
908.023	17916
908.139	17802
908.256	17722
908.372	17714
908.488	17741
908.604	17543
908.72	17592
908.836	17573
908.952	17478
909.068	17714
909.184	17691
909.3	17619
909.415	17566
909.531	17619
909.647	17345
909.762	17292
909.878	17345
909.993	17368
910.108	17162
910.224	17162
910.339	17208
910.454	17132
910.57	17128
910.685	16949
910.8	17242
910.915	17200
911.03	17060
911.145	16908
911.259	16854
911.374	16790
911.489	16729
911.604	16733
911.718	16542
911.833	16607
911.947	16474
912.062	16386
912.176	16649
912.291	16531
912.405	16588
912.519	16744
912.633	16778
912.748	16660
912.862	16538
912.976	16390
913.09	16306
913.204	16265
913.318	16409
913.431	16489
913.545	16527
913.659	16512
913.772	16409
913.886	16306
914	16204
914.113	16398
914.226	16318
914.34	16257
914.453	16101
914.566	16215
914.68	16067
914.793	16032
914.906	15827
915.019	15705
915.132	15739
915.245	15785
915.358	15675
915.47	15720
915.583	15785
915.696	15876
915.809	15873
915.921	15895
916.034	15747
916.146	15812
916.259	15675
916.371	15903
916.483	15622
916.595	15485
916.708	15603
916.82	15663
916.932	15431
917.044	15614
917.156	15515
917.268	15344
917.38	15519
917.491	15386
917.603	15458
917.715	15469
917.826	15545
917.938	15378
918.049	15192
918.161	15279
918.272	15545
918.384	15458
918.495	15317
918.606	15237
918.717	15127
918.828	15169
918.939	15169
919.05	15062
919.161	15116
919.272	14918
919.383	15043
919.494	15138
919.604	15344
919.715	15169
919.826	15070
919.936	15116
920.047	15176
920.157	15085
920.267	15237
920.378	15188
920.488	15020
920.598	15313
920.708	15306
920.818	15180
920.928	15195
921.038	15348
921.148	15306
921.258	15020
921.368	14979
921.477	14857
921.587	14849
921.697	14617
921.806	14826
921.916	14583
922.025	14530
922.134	14484
922.244	14476
922.353	14419
922.462	14298
922.571	14355
922.68	14157
922.789	14145
922.898	14119
923.007	14077
923.116	14046
923.224	13970
923.333	14043
923.442	13959
923.55	13986
923.659	13947
923.767	13951
923.876	13860
923.984	13894
924.092	13826
924.201	13814
924.309	13795
924.417	13822
924.525	13769
924.633	13780
924.741	14549
924.849	13491
924.956	13556
925.064	13540
925.172	13453
925.279	13502
925.387	13487
925.494	13491
925.602	13658
925.709	13643
925.816	13388
925.924	13415
926.031	13491
926.138	13365
926.245	13537
926.352	13377
926.459	13430
926.566	13491
926.673	13312
926.779	13221
926.886	13126
926.993	13118
927.099	13015
927.206	12970
927.312	12958
927.419	13084
927.525	13038
927.631	13023
927.737	12837
927.843	12791
927.95	12734
928.056	12886
928.162	12871
928.267	12867
928.373	13544
928.479	12878
928.585	12688
928.69	12802
928.796	12848
928.901	12631
929.007	12502
929.112	12719
929.218	12700
929.323	12608
929.428	12490
929.533	12669
929.638	12460
929.743	12448
929.848	12490
929.953	12441
930.058	12391
930.163	12209
930.267	12308
930.372	12311
930.477	12182
930.581	12327
930.685	12270
930.79	12098
930.894	12026
930.998	12015
931.103	12239
931.207	11809
931.311	11718
931.415	11676
931.519	11516
931.623	11455
