Data from test_V78500241_311.txt Node
Date: Fri Mar 25 15:43:57 CST 2022
User: usil
Spectrometer: V785-0024
Trigger mode: 0
Integration Time (sec): 4.000000E-1
Scans to average: 1
Nonlinearity correction enabled: false
Boxcar width: 0
Storing dark spectrum: false
XAxis mode: Wavelengths
Number of Pixels in Spectrum: 1024
>>>>>Begin Spectral Data<<<<<
801.071	29847
801.214	29790
801.356	29619
801.499	29478
801.641	29436
801.783	29414
801.926	29345
802.068	29455
802.211	29448
802.353	29277
802.496	29204
802.638	29147
802.78	28972
802.923	29113
803.065	29064
803.208	29014
803.35	29273
803.492	29170
803.635	29349
803.777	29071
803.919	29345
804.061	29745
804.204	29353
804.346	29307
804.488	29193
804.63	29216
804.773	29140
804.915	29273
805.057	29379
805.199	29296
805.341	29360
805.483	29402
805.626	29326
805.768	29147
805.91	29330
806.052	29421
806.194	29288
806.336	29482
806.478	29440
806.62	29414
806.762	29592
806.904	29718
807.046	29977
807.188	29798
807.33	29927
807.472	29904
807.614	29786
807.756	29847
807.898	29767
808.04	29615
808.182	29623
808.324	29691
808.465	29638
808.607	29699
808.749	30003
808.891	30232
809.033	30353
809.174	30159
809.316	29996
809.458	30091
809.6	29862
809.741	30098
809.883	30182
810.025	30369
810.166	30277
810.308	30194
810.45	30266
810.591	30296
810.733	30201
810.875	29977
811.016	29984
811.158	29992
811.299	30064
811.441	30395
811.582	30136
811.724	30106
811.865	30038
812.007	30068
812.148	30087
812.29	30026
812.431	30030
812.573	30418
812.714	30369
812.855	30673
812.997	30669
813.138	30692
813.279	30547
813.421	30681
813.562	30486
813.703	30391
813.845	30209
813.986	30095
814.127	29798
814.268	29783
814.41	29722
814.551	29805
814.692	29752
814.833	29642
814.974	29512
815.115	29699
815.256	29524
815.397	29490
815.539	29589
815.68	29493
815.821	29547
815.962	29589
816.103	29433
816.244	29448
816.385	29200
816.526	29170
816.666	29105
816.807	28961
816.948	29143
817.089	29086
817.23	29044
817.371	28915
817.512	28847
817.653	28885
817.793	28790
817.934	29079
818.075	28957
818.216	28892
818.356	28961
818.497	28854
818.638	28607
818.778	28618
818.919	28698
819.06	28618
819.2	28740
819.341	28679
819.481	28816
819.622	28976
819.762	29140
819.903	29162
820.043	28885
820.184	29170
820.324	28919
820.465	29113
820.605	29113
820.746	29044
820.886	28904
821.026	29010
821.167	28824
821.307	29022
821.447	28812
821.588	28839
821.728	28630
821.868	28348
822.008	28238
822.149	28428
822.289	28249
822.429	28135
822.569	28150
822.709	28059
822.849	27888
822.99	27876
823.13	27762
823.27	27656
823.41	27644
823.55	27485
823.69	27717
823.83	27519
823.97	27545
824.11	27416
824.25	27538
824.389	27348
824.529	27519
824.669	27542
824.809	27523
824.949	27526
825.089	27526
825.228	27405
825.368	27325
825.508	27329
825.648	27355
825.787	27393
825.927	27241
826.067	27260
826.206	27481
826.346	27340
826.485	27397
826.625	27230
826.765	27473
826.904	27317
827.044	26990
827.183	27020
827.323	27024
827.462	27066
827.601	27093
827.741	26834
827.88	26906
828.02	26861
828.159	26864
828.298	26963
828.437	26963
828.577	26773
828.716	27032
828.855	26902
828.994	26609
829.134	26613
829.273	26640
829.412	26636
829.551	26598
829.69	26651
829.829	26686
829.968	26758
830.107	26670
830.246	26632
830.385	26507
830.524	26431
830.663	26408
830.802	26465
830.941	26221
831.08	26088
831.219	26134
831.357	26229
831.496	26286
831.635	26130
831.774	26122
831.913	26161
832.051	26008
832.19	25997
832.329	26035
832.467	25841
832.606	25818
832.744	25841
832.883	25959
833.022	25731
833.16	25963
833.299	25959
833.437	25799
833.576	25849
833.714	25868
833.852	25898
833.991	25959
834.129	25982
834.267	25902
834.406	25894
834.544	25906
834.682	25909
834.821	25909
834.959	25944
835.097	25811
835.235	25887
835.373	25849
835.511	25841
835.65	25616
835.788	25753
835.926	25563
836.064	25510
836.202	25552
836.34	25731
836.478	25597
836.615	25582
836.753	25658
836.891	25677
837.029	25670
837.167	25727
837.305	25655
837.443	25567
837.58	25544
837.718	25559
837.856	25476
837.993	25441
838.131	25628
838.269	25354
838.406	25343
838.544	25251
838.681	25168
838.819	25065
838.956	25015
839.094	24928
839.231	24935
839.369	25038
839.506	25327
839.643	25103
839.781	24932
839.918	24844
840.055	24935
840.193	24825
840.33	24947
840.467	24859
840.604	24932
840.742	25053
840.879	24696
841.016	24738
841.153	24738
841.29	24958
841.427	24760
841.564	24700
841.701	24768
841.838	24707
841.975	24696
842.112	24589
842.249	24601
842.385	24601
842.522	24688
842.659	24631
842.796	24490
842.933	24627
843.069	24418
843.206	24441
843.343	24418
843.479	24448
843.616	24441
843.752	24277
843.889	24273
844.025	24300
844.162	24239
844.298	24369
844.435	24338
844.571	24228
844.708	24254
844.844	24376
844.98	24319
845.117	24304
845.253	24102
845.389	24038
845.525	24068
845.661	24174
845.798	23927
845.934	24015
846.07	23771
846.206	24041
846.342	24102
846.478	23946
846.614	23703
846.75	23623
846.886	23509
847.022	23699
847.158	23581
847.294	23547
847.429	23619
847.565	23756
847.701	23882
847.837	23299
847.972	23288
848.108	23596
848.244	23372
848.379	23223
848.515	23254
848.65	23254
848.786	23326
848.921	23094
849.057	23337
849.192	23356
849.328	23345
849.463	23105
849.598	23132
849.734	23117
849.869	23090
850.004	22885
850.14	22908
850.275	22927
850.41	22767
850.545	22881
850.68	22889
850.815	22881
850.95	22873
851.085	23029
851.22	23033
851.355	22942
851.49	22831
851.625	22835
851.76	22946
851.895	22759
852.03	22839
852.165	23010
852.299	22915
852.434	23060
852.569	22915
852.703	22938
852.838	22938
852.973	23003
853.107	23124
853.242	22889
853.376	22672
853.511	22725
853.645	22656
853.78	22949
853.914	22839
854.048	22793
854.183	22641
854.317	22778
854.451	22999
854.585	22793
854.72	22687
854.854	22706
854.988	22664
855.122	22755
855.256	22698
855.39	22656
855.524	22771
855.658	22820
855.792	22782
855.926	22828
856.06	22664
856.194	22706
856.327	22835
856.461	22672
856.595	22565
856.729	22805
856.862	22869
856.996	22748
857.13	22687
857.263	22881
857.397	22839
857.53	22733
857.664	22725
857.797	22683
857.931	22786
858.064	22630
858.197	22854
858.331	22847
858.464	22725
858.597	22584
858.731	22637
858.864	22542
858.997	22660
859.13	22561
859.263	22672
859.396	22869
859.529	22656
859.662	22607
859.795	22691
859.928	22710
860.061	22896
860.194	22835
860.327	22653
860.46	22713
860.592	22786
860.725	22843
860.858	22820
860.99	22740
861.123	22630
861.256	22531
861.388	22611
861.521	23330
861.653	22523
861.786	22531
861.918	22546
862.05	22668
862.183	22660
862.315	22592
862.447	22713
862.58	22710
862.712	22394
862.844	22432
862.976	22535
863.108	22405
863.24	22908
863.372	22382
863.504	22257
863.636	22310
863.768	22344
863.9	22382
864.032	22272
864.164	22409
864.296	22249
864.428	22459
864.559	22440
864.691	22478
864.823	22367
864.954	22303
865.086	22363
865.217	22223
865.349	22090
865.48	22204
865.612	22150
865.743	22417
865.875	22192
866.006	22116
866.137	22211
866.269	22265
866.4	22272
866.531	22200
866.662	22166
866.793	22105
866.924	22101
867.055	22188
867.186	22173
867.317	22109
867.448	22074
867.579	22169
867.71	22196
867.841	22013
867.972	22207
868.103	22036
868.233	22059
868.364	22158
868.495	22284
868.625	22481
868.756	22474
868.886	22306
869.017	22344
869.147	22481
869.278	22538
869.408	22413
869.539	22333
869.669	22394
869.799	22489
869.929	22546
870.06	22451
870.19	22733
870.32	22656
870.45	22497
870.58	22744
870.71	22885
870.84	22881
870.97	22740
871.1	22816
871.23	22961
871.36	22923
871.489	22847
871.619	22892
871.749	22782
871.879	23109
872.008	23090
872.138	23018
872.267	22987
872.397	22797
872.526	22786
872.656	22717
872.785	22733
872.915	22885
873.044	23060
873.173	22949
873.303	22904
873.432	23010
873.561	23185
873.69	22987
873.819	22927
873.948	23056
874.077	22961
874.206	22999
874.335	22953
874.464	23159
874.593	23223
874.722	23189
874.851	23353
874.979	23277
875.108	23280
875.237	23166
875.365	23105
875.494	23124
875.623	23311
875.751	23162
875.88	23185
876.008	23391
876.136	23292
876.265	23733
876.393	23752
876.521	23748
876.65	23691
876.778	23531
876.906	23531
877.034	23596
877.162	23535
877.29	23463
877.418	23615
877.546	23547
877.674	23600
877.802	23562
877.93	23566
878.058	23509
878.185	23459
878.313	23493
878.441	23493
878.568	23376
878.696	23425
878.824	23486
878.951	23573
879.079	23596
879.206	23809
879.333	23668
879.461	23630
879.588	23646
879.715	23729
879.842	23874
879.97	23535
880.097	23410
880.224	23326
880.351	23307
880.478	23440
880.605	23383
880.732	23391
880.859	23562
880.986	23280
881.112	23459
881.239	23185
881.366	23155
881.493	23075
881.619	23056
881.746	22987
881.872	22896
881.999	22900
882.125	22801
882.252	22995
882.378	22957
882.505	23006
882.631	22767
882.757	22577
882.883	22687
883.01	22641
883.136	22580
883.262	22512
883.388	22519
883.514	22649
883.64	22580
883.766	22599
883.892	22367
884.018	22417
884.143	22565
884.269	22656
884.395	22390
884.52	22162
884.646	22344
884.772	22093
884.897	22128
885.023	22230
885.148	22268
885.274	22322
885.399	22257
885.524	22166
885.65	22082
885.775	22211
885.9	22265
886.025	22287
886.15	22409
886.275	22280
886.4	22017
886.525	22310
886.65	22082
886.775	22177
886.9	22382
887.025	22409
887.149	22112
887.274	22070
887.399	22074
887.523	22013
887.648	21915
887.773	21812
887.897	22074
888.021	22147
888.146	21937
888.27	22029
888.395	21968
888.519	22006
888.643	21949
888.767	22040
888.891	21911
889.015	21854
889.139	21823
889.263	21713
889.387	21937
889.511	21953
889.635	21827
889.759	21618
889.883	21800
890.006	21781
890.13	21846
890.254	21515
890.377	21656
890.501	21538
890.624	21408
890.748	21523
890.871	21351
890.995	21237
891.118	21226
891.241	21275
891.364	21329
891.488	21348
891.611	21325
891.734	21340
891.857	21363
891.98	21313
892.103	21287
892.226	21291
892.349	21325
892.471	21104
892.594	21252
892.717	21218
892.839	21188
892.962	21150
893.085	21203
893.207	21207
893.33	21218
893.452	21192
893.575	21237
893.697	21154
893.819	21439
893.941	21351
894.064	21317
894.186	21085
894.308	21096
894.43	21279
894.552	21344
894.674	21230
894.796	21024
894.918	21138
895.04	21169
895.161	21138
895.283	21249
895.405	21123
895.526	21165
895.648	21188
895.769	21173
895.891	21245
896.012	21340
896.134	21233
896.255	21230
896.376	21180
896.498	21237
896.619	21218
896.74	21157
896.861	21317
896.982	21576
897.103	21625
897.224	21553
897.345	21393
897.466	21313
897.587	21439
897.708	21447
897.828	21431
897.949	21359
898.07	21142
898.19	21359
898.311	21393
898.431	21317
898.552	21393
898.672	21401
898.792	21435
898.913	21306
899.033	21252
899.153	21192
899.273	21009
899.393	21127
899.513	21127
899.633	21154
899.753	21024
899.873	21089
899.993	21154
900.113	21017
900.232	21066
900.352	21058
900.472	20963
900.591	20952
900.711	20842
900.83	20781
900.95	21036
901.069	20948
901.189	20689
901.308	20522
901.427	20511
901.546	20317
901.665	20381
901.784	20530
901.904	20275
902.023	20214
902.141	19997
902.26	19963
902.379	20016
902.498	19906
902.617	19925
902.735	19856
902.854	19951
902.973	19704
903.091	19586
903.21	19529
903.328	19582
903.446	19525
903.565	19316
903.683	19369
903.801	19194
903.919	19278
904.038	19346
904.156	19152
904.274	19240
904.392	19034
904.51	19053
904.627	19099
904.745	19141
904.863	19202
904.981	18973
905.098	18859
905.216	18745
905.334	18772
905.451	18886
905.569	18715
905.686	18821
905.803	18783
905.921	18563
906.038	18616
906.155	18585
906.272	18395
906.389	18513
906.506	18277
906.623	18353
906.74	18258
906.857	18186
906.974	18224
907.091	18384
907.208	18361
907.324	18342
907.441	18228
907.557	17946
907.674	18038
907.79	17923
907.907	17897
908.023	17893
908.139	17958
908.256	17901
908.372	17866
908.488	17718
908.604	17752
908.72	17638
908.836	17703
908.952	17653
909.068	17710
909.184	17691
909.3	17623
909.415	17703
909.531	17627
909.647	17406
909.762	17425
909.878	17311
909.993	17356
910.108	17315
910.224	17360
910.339	17345
910.454	17178
910.57	17155
910.685	17094
910.8	17353
910.915	17258
911.03	17242
911.145	16908
911.259	16987
911.374	16858
911.489	16835
911.604	16771
911.718	16691
911.833	16561
911.947	16622
912.062	16538
912.176	16729
912.291	16634
912.405	16710
912.519	16824
912.633	16919
912.748	16721
912.862	16672
912.976	16436
913.09	16295
913.204	16409
913.318	16432
913.431	16546
913.545	16516
913.659	16561
913.772	16333
913.886	16295
914	16306
914.113	16360
914.226	16344
914.34	16310
914.453	16169
914.566	16261
914.68	16131
914.793	16124
914.906	15930
915.019	15865
915.132	15694
915.245	15785
915.358	15747
915.47	15869
915.583	15869
915.696	15766
915.809	15987
915.921	16032
916.034	15671
916.146	15694
916.259	15694
916.371	15728
916.483	15690
916.595	15660
916.708	15694
916.82	15606
916.932	15481
917.044	15610
917.156	15523
917.268	15386
917.38	15523
917.491	15435
917.603	15492
917.715	15462
917.826	15477
917.938	15340
918.049	15382
918.161	15374
918.272	15584
918.384	15439
918.495	15344
918.606	15203
918.717	15203
918.828	15142
918.939	15199
919.05	15104
919.161	15161
919.272	15055
919.383	14979
919.494	15218
919.604	15336
919.715	15077
919.826	15089
919.936	15161
920.047	15214
920.157	15039
920.267	15249
920.378	15039
920.488	15051
920.598	15233
920.708	15359
920.818	15211
920.928	15272
921.038	15329
921.148	15268
921.258	15043
921.368	14902
921.477	14762
921.587	14788
921.697	14720
921.806	14842
921.916	14667
922.025	14549
922.134	14530
922.244	14377
922.353	14450
922.462	14396
922.571	14263
922.68	14103
922.789	14134
922.898	14103
923.007	14046
923.116	14111
923.224	14145
923.333	13925
923.442	13944
923.55	13864
923.659	13944
923.767	14054
923.876	13807
923.984	13982
924.092	13799
924.201	13906
924.309	13826
924.417	13803
924.525	13712
924.633	13670
924.741	14705
924.849	13521
924.956	13734
925.064	13567
925.172	13411
925.279	13457
925.387	13430
925.494	13491
925.602	13540
925.709	13552
925.816	13362
925.924	13392
926.031	13480
926.138	13392
926.245	13426
926.352	13308
926.459	13460
926.566	13510
926.673	13312
926.779	13255
926.886	13194
926.993	13088
927.099	12985
927.206	12958
927.312	12954
927.419	12993
927.525	12981
927.631	13046
927.737	12882
927.843	12840
927.95	12764
928.056	12852
928.162	12760
928.267	12821
928.373	13506
928.479	12928
928.585	12703
928.69	12779
928.796	12772
928.901	12753
929.007	12574
929.112	12681
929.218	12642
929.323	12589
929.428	12486
929.533	12681
929.638	12414
929.743	12494
929.848	12532
929.953	12486
930.058	12319
930.163	12209
930.267	12201
930.372	12285
930.477	12140
930.581	12338
930.685	12171
930.79	12110
930.894	12144
930.998	12110
931.103	12205
931.207	11813
931.311	11771
931.415	11718
931.519	11459
931.623	11337
