Data from test_V78500241_1382.txt Node
Date: Fri Mar 25 15:51:22 CST 2022
User: usil
Spectrometer: V785-0024
Trigger mode: 0
Integration Time (sec): 4.000000E-1
Scans to average: 1
Nonlinearity correction enabled: false
Boxcar width: 0
Storing dark spectrum: false
XAxis mode: Wavelengths
Number of Pixels in Spectrum: 1024
>>>>>Begin Spectral Data<<<<<
801.071	27382
801.214	27302
801.356	27138
801.499	27135
801.641	26929
801.783	27039
801.926	26902
802.068	26975
802.211	26960
802.353	26826
802.496	26533
802.638	26503
802.78	26571
802.923	26522
803.065	26389
803.208	26564
803.35	26552
803.492	26712
803.635	26769
803.777	26693
803.919	26815
804.061	27074
804.204	26796
804.346	26792
804.488	26739
804.63	26689
804.773	26754
804.915	26781
805.057	26948
805.199	26746
805.341	26883
805.483	26967
805.626	26872
805.768	26735
805.91	26906
806.052	26975
806.194	26880
806.336	27123
806.478	26887
806.62	26899
806.762	27058
806.904	27184
807.046	27367
807.188	27313
807.33	27363
807.472	27252
807.614	27317
807.756	27348
807.898	27241
808.04	27142
808.182	27211
808.324	27138
808.465	27264
808.607	27450
808.749	27424
808.891	27583
809.033	27690
809.174	27477
809.316	27439
809.458	27538
809.6	27374
809.741	27496
809.883	27580
810.025	27804
810.166	27751
810.308	27808
810.45	27724
810.591	27667
810.733	27599
810.875	27473
811.016	27447
811.158	27412
811.299	27591
811.441	27557
811.582	27599
811.724	27583
811.865	27466
812.007	27412
812.148	27534
812.29	27519
812.431	27675
812.573	27739
812.714	27888
812.855	27914
812.997	28040
813.138	28280
813.279	28139
813.421	27930
813.562	27914
813.703	27914
813.845	27778
813.986	27378
814.127	27298
814.268	27154
814.41	27306
814.551	27138
814.692	27237
814.833	27085
814.974	27112
815.115	27310
815.256	26979
815.397	27024
815.539	27020
815.68	27055
815.821	26853
815.962	26857
816.103	26880
816.244	26743
816.385	26758
816.526	26708
816.666	26678
816.807	26412
816.948	26450
817.089	26552
817.23	26522
817.371	26431
817.512	26526
817.653	26385
817.793	26336
817.934	26522
818.075	26473
818.216	26408
818.356	26514
818.497	26317
818.638	26191
818.778	26168
818.919	26256
819.06	26237
819.2	26374
819.341	26393
819.481	26446
819.622	26564
819.762	26693
819.903	26663
820.043	26659
820.184	26575
820.324	26461
820.465	26613
820.605	26518
820.746	26537
820.886	26385
821.026	26598
821.167	26442
821.307	26518
821.447	26446
821.588	26393
821.728	26328
821.868	26027
822.008	25925
822.149	26031
822.289	25704
822.429	25647
822.569	25571
822.709	25651
822.849	25464
822.99	25438
823.13	25346
823.27	25533
823.41	25187
823.55	25129
823.69	25312
823.83	25221
823.97	25168
824.11	25110
824.25	25019
824.389	25008
824.529	25133
824.669	25034
824.809	25202
824.949	25175
825.089	25118
825.228	25133
825.368	25012
825.508	24829
825.648	25084
825.787	24970
825.927	25019
826.067	24863
826.206	24787
826.346	24863
826.485	24897
826.625	24913
826.765	24829
826.904	24863
827.044	24734
827.183	24578
827.323	24513
827.462	24726
827.601	24471
827.741	24547
827.88	24658
828.02	24498
828.159	24566
828.298	24612
828.437	24692
828.577	24703
828.716	24692
828.855	24502
828.994	24369
829.134	24353
829.273	24350
829.412	24350
829.551	24216
829.69	24281
829.829	24327
829.968	24315
830.107	24433
830.246	24388
830.385	24247
830.524	24254
830.663	24186
830.802	24121
830.941	23901
831.08	23767
831.219	24106
831.357	23889
831.496	24049
831.635	23851
831.774	23893
831.913	23779
832.051	23790
832.19	23783
832.329	23718
832.467	23680
832.606	23592
832.744	23554
832.883	23490
833.022	23524
833.16	23634
833.299	23695
833.437	23657
833.576	23653
833.714	23710
833.852	23718
833.991	23634
834.129	23718
834.267	23703
834.406	23710
834.544	23718
834.682	23676
834.821	23604
834.959	23741
835.097	23600
835.235	23703
835.373	23619
835.511	23733
835.65	23539
835.788	23516
835.926	23448
836.064	23185
836.202	23337
836.34	23410
836.478	23710
836.615	23463
836.753	23471
836.891	23627
837.029	23539
837.167	23387
837.305	23273
837.443	23360
837.58	23421
837.718	23356
837.856	23440
837.993	23162
838.131	23227
838.269	23143
838.406	23128
838.544	23235
838.681	23003
838.819	22869
838.956	22733
839.094	22759
839.231	22793
839.369	22953
839.506	23170
839.643	23044
839.781	22710
839.918	22763
840.055	22729
840.193	22805
840.33	22744
840.467	22664
840.604	22630
840.742	23098
840.879	22599
841.016	22740
841.153	22622
841.29	22820
841.427	22656
841.564	22679
841.701	22740
841.838	22672
841.975	22599
842.112	22733
842.249	22523
842.385	22497
842.522	22786
842.659	22470
842.796	22462
842.933	22360
843.069	22382
843.206	22352
843.343	22554
843.479	22527
843.616	22398
843.752	22337
843.889	22291
844.025	22333
844.162	22253
844.298	22363
844.435	22196
844.571	22280
844.708	22280
844.844	22516
844.98	22356
845.117	22402
845.253	22097
845.389	22169
845.525	22173
845.661	22215
845.798	21949
845.934	22082
846.07	21873
846.206	21949
846.342	22181
846.478	21945
846.614	21732
846.75	21720
846.886	21622
847.022	21732
847.158	21762
847.294	21724
847.429	21732
847.565	21656
847.701	21994
847.837	21454
847.972	21401
848.108	21488
848.244	21507
848.379	21313
848.515	21348
848.65	21279
848.786	21272
848.921	21195
849.057	21443
849.192	21428
849.328	21317
849.463	21340
849.598	21252
849.734	21226
849.869	21230
850.004	21112
850.14	21066
850.275	21005
850.41	21096
850.545	20990
850.68	21142
850.815	21104
850.95	21017
851.085	21199
851.22	21188
851.355	21108
851.49	21089
851.625	20918
851.76	21017
851.895	21001
852.03	20975
852.165	21131
852.299	21043
852.434	21074
852.569	21036
852.703	20982
852.838	21062
852.973	21272
853.107	21260
853.242	21055
853.376	20937
853.511	20807
853.645	20891
853.78	20925
853.914	20883
854.048	20872
854.183	20883
854.317	21020
854.451	20994
854.585	20960
854.72	20853
854.854	20910
854.988	20914
855.122	20933
855.256	20842
855.39	20842
855.524	20948
855.658	21066
855.792	20929
855.926	20937
856.06	20998
856.194	21070
856.327	20838
856.461	20918
856.595	20883
856.729	20796
856.862	21062
856.996	21001
857.13	20906
857.263	21024
857.397	21058
857.53	20883
857.664	20883
857.797	21017
857.931	20883
858.064	20986
858.197	20971
858.331	21001
858.464	20769
858.597	20811
858.731	20914
858.864	20788
858.997	20838
859.13	20948
859.263	20849
859.396	20899
859.529	20994
859.662	20910
859.795	20876
859.928	20975
860.061	21142
860.194	21100
860.327	20998
860.46	20804
860.592	21032
860.725	21043
860.858	21104
860.99	21009
861.123	20819
861.256	20872
861.388	20925
861.521	21637
861.653	20823
861.786	20705
861.918	20785
862.05	20743
862.183	20754
862.315	20887
862.447	20933
862.58	20849
862.712	20606
862.844	20587
862.976	20712
863.108	20667
863.24	21058
863.372	20526
863.504	20579
863.636	20632
863.768	20716
863.9	20587
864.032	20473
864.164	20583
864.296	20712
864.428	20609
864.559	20716
864.691	20674
864.823	20583
864.954	20777
865.086	20564
865.217	20511
865.349	20446
865.48	20503
865.612	20530
865.743	20632
865.875	20465
866.006	20374
866.137	20533
866.269	20503
866.4	20568
866.531	20457
866.662	20526
866.793	20488
866.924	20393
867.055	20396
867.186	20442
867.317	20389
867.448	20317
867.579	20568
867.71	20431
867.841	20324
867.972	20423
868.103	20454
868.233	20381
868.364	20446
868.495	20492
868.625	20697
868.756	20731
868.886	20663
869.017	20659
869.147	20819
869.278	20724
869.408	20617
869.539	20804
869.669	20811
869.799	20731
869.929	20735
870.06	20773
870.19	21051
870.32	20979
870.45	21017
870.58	21096
870.71	21230
870.84	21256
870.97	21150
871.1	21154
871.23	21359
871.36	21252
871.489	21188
871.619	21230
871.749	21302
871.879	21310
872.008	21492
872.138	21268
872.267	21351
872.397	21226
872.526	21275
872.656	21302
872.785	21047
872.915	21370
873.044	21538
873.173	21340
873.303	21500
873.432	21397
873.561	21405
873.69	21306
873.819	21370
873.948	21435
874.077	21397
874.206	21233
874.335	21336
874.464	21393
874.593	21568
874.722	21633
874.851	21534
874.979	21462
875.108	21755
875.237	21629
875.365	21469
875.494	21538
875.623	21553
875.751	21618
875.88	21618
876.008	21606
876.136	21797
876.265	22010
876.393	22055
876.521	22010
876.65	22021
876.778	21930
876.906	21983
877.034	21827
877.162	21888
877.29	21835
877.418	22010
877.546	21895
877.674	21895
877.802	21884
877.93	21850
878.058	21705
878.185	21808
878.313	21960
878.441	21880
878.568	21694
878.696	21899
878.824	21918
878.951	21869
879.079	22002
879.206	22196
879.333	22128
879.461	22044
879.588	22029
879.715	22124
879.842	22147
879.97	21983
880.097	21694
880.224	21781
880.351	21846
880.478	21698
880.605	21770
880.732	21724
880.859	21972
880.986	21648
881.112	21728
881.239	21682
881.366	21591
881.493	21481
881.619	21351
881.746	21336
881.872	21348
881.999	21321
882.125	21252
882.252	21306
882.378	21310
882.505	21336
882.631	21272
882.757	20979
882.883	21165
883.01	20979
883.136	21001
883.262	20952
883.388	20773
883.514	21077
883.64	21074
883.766	20883
883.892	20746
884.018	20826
884.143	21032
884.269	21157
884.395	20735
884.52	20636
884.646	20670
884.772	20644
884.897	20484
885.023	20625
885.148	20739
885.274	20769
885.399	20762
885.524	20609
885.65	20594
885.775	20632
885.9	20651
886.025	20762
886.15	20777
886.275	20598
886.4	20590
886.525	20609
886.65	20629
886.775	20575
886.9	20693
887.025	20906
887.149	20739
887.274	20457
887.399	20446
887.523	20305
887.648	20370
887.773	20400
887.897	20556
888.021	20431
888.146	20457
888.27	20640
888.395	20564
888.519	20408
888.643	20465
888.767	20476
888.891	20503
889.015	20317
889.139	20324
889.263	20336
889.387	20362
889.511	20473
889.635	20358
889.759	20191
889.883	20237
890.006	20294
890.13	20503
890.254	20138
890.377	20237
890.501	19997
890.624	20065
890.748	20005
890.871	19860
890.995	19868
891.118	19753
891.241	19788
891.364	19818
891.488	19951
891.611	19909
891.734	19750
891.857	19909
891.98	19731
892.103	19845
892.226	19769
892.349	19826
892.471	19559
892.594	19769
892.717	19833
892.839	19750
892.962	19685
893.085	19715
893.207	19734
893.33	19750
893.452	19715
893.575	19712
893.697	19799
893.819	19814
893.941	20008
894.064	19845
894.186	19704
894.308	19597
894.43	19807
894.552	19894
894.674	19894
894.796	19502
894.918	19818
895.04	19681
895.161	19769
895.283	19830
895.405	19693
895.526	19708
895.648	19635
895.769	19845
895.891	19788
896.012	19807
896.134	19894
896.255	19757
896.376	19807
896.498	19746
896.619	19856
896.74	19890
896.861	19727
896.982	20134
897.103	20161
897.224	20039
897.345	20046
897.466	19932
897.587	20005
897.708	20092
897.828	20020
897.949	19860
898.07	19738
898.19	19936
898.311	20107
898.431	20027
898.552	20039
898.672	20062
898.792	20065
898.913	20016
899.033	19909
899.153	19757
899.273	19761
899.393	19674
899.513	19727
899.633	19769
899.753	19704
899.873	19674
899.993	19731
900.113	19715
900.232	19731
900.352	19674
900.472	19651
900.591	19468
900.711	19548
900.83	19434
900.95	19635
901.069	19556
901.189	19362
901.308	19213
901.427	19095
901.546	19145
901.665	19095
901.784	19042
901.904	18943
902.023	18928
902.141	18722
902.26	18741
902.379	18654
902.498	18616
902.617	18639
902.735	18559
902.854	18684
902.973	18559
903.091	18251
903.21	18311
903.328	18292
903.446	18190
903.565	18129
903.683	18178
903.801	17942
903.919	18057
904.038	18121
904.156	17855
904.274	17950
904.392	17870
904.51	17809
904.627	17870
904.745	17939
904.863	17920
904.981	17619
905.098	17581
905.216	17589
905.334	17516
905.451	17558
905.569	17532
905.686	17748
905.803	17482
905.921	17356
906.038	17463
906.155	17353
906.272	17246
906.389	17223
906.506	17060
906.623	17083
906.74	16976
906.857	17098
906.974	17045
907.091	17155
907.208	17178
907.324	17098
907.441	16968
907.557	16904
907.674	16755
907.79	16717
907.907	16702
908.023	16752
908.139	16782
908.256	16831
908.372	16656
908.488	16626
908.604	16691
908.72	16577
908.836	16577
908.952	16497
909.068	16500
909.184	16554
909.3	16447
909.415	16584
909.531	16497
909.647	16318
909.762	16253
909.878	16181
909.993	16200
910.108	16192
910.224	16204
910.339	16280
910.454	16154
910.57	15983
910.685	15964
910.8	16341
910.915	16154
911.03	16044
911.145	15915
911.259	15850
911.374	15819
911.489	15819
911.604	15641
911.718	15568
911.833	15641
911.947	15500
912.062	15469
912.176	15576
912.291	15473
912.405	15545
912.519	15808
912.633	15751
912.748	15720
912.862	15545
912.976	15367
913.09	15291
913.204	15313
913.318	15435
913.431	15408
913.545	15424
913.659	15496
913.772	15336
913.886	15279
914	15291
914.113	15184
914.226	15355
914.34	15260
914.453	15085
914.566	15245
914.68	15135
914.793	15138
914.906	14864
915.019	14807
915.132	14819
915.245	14872
915.358	14815
915.47	14845
915.583	14861
915.696	14826
915.809	14906
915.921	14948
916.034	14807
916.146	14758
916.259	14632
916.371	14811
916.483	14914
916.595	14720
916.708	14682
916.82	14587
916.932	14571
917.044	14598
917.156	14648
917.268	14484
917.38	14503
917.491	14473
917.603	14419
917.715	14560
917.826	14636
917.938	14457
918.049	14370
918.161	14404
918.272	14575
918.384	14621
918.495	14465
918.606	14320
918.717	14187
918.828	14275
918.939	14294
919.05	14138
919.161	14187
919.272	14027
919.383	14134
919.494	14320
919.604	14549
919.715	14088
919.826	14218
919.936	14221
920.047	14309
920.157	14119
920.267	14511
920.378	14218
920.488	14153
920.598	14423
920.708	14568
920.818	14336
920.928	14351
921.038	14423
921.148	14495
921.258	14199
921.368	14062
921.477	13932
921.587	14001
921.697	13860
921.806	13860
921.916	13780
922.025	13696
922.134	13552
922.244	13506
922.353	13662
922.462	13480
922.571	13480
922.68	13232
922.789	13304
922.898	13285
923.007	13236
923.116	13304
923.224	13247
923.333	13175
923.442	13107
923.55	12996
923.659	13057
923.767	13228
923.876	13046
923.984	13080
924.092	12981
924.201	13023
924.309	13023
924.417	13008
924.525	12996
924.633	12894
924.741	13917
924.849	12791
924.956	12935
925.064	12620
925.172	12616
925.279	12665
925.387	12738
925.494	12646
925.602	12806
925.709	12730
925.816	12578
925.924	12722
926.031	12768
926.138	12669
926.245	12707
926.352	12456
926.459	12673
926.566	12738
926.673	12612
926.779	12441
926.886	12433
926.993	12380
927.099	12281
927.206	12296
927.312	12197
927.419	12372
927.525	12277
927.631	12323
927.737	12205
927.843	12186
927.95	12053
928.056	12117
928.162	12072
928.267	12091
928.373	12779
928.479	12194
928.585	12007
928.69	12068
928.796	12117
928.901	11969
929.007	11802
929.112	12007
929.218	11942
929.323	11790
929.428	11866
929.533	11961
929.638	11840
929.743	11863
929.848	11847
929.953	11805
930.058	11653
930.163	11452
930.267	11505
930.372	11676
930.477	11402
930.581	11745
930.685	11535
930.79	11395
930.894	11455
930.998	11337
931.103	11482
931.207	11235
931.311	11079
931.415	10942
931.519	10843
931.623	10835
