Data from test_V78500241_1661.txt Node
Date: Fri Mar 25 15:53:18 CST 2022
User: usil
Spectrometer: V785-0024
Trigger mode: 0
Integration Time (sec): 4.000000E-1
Scans to average: 1
Nonlinearity correction enabled: false
Boxcar width: 0
Storing dark spectrum: false
XAxis mode: Wavelengths
Number of Pixels in Spectrum: 1024
>>>>>Begin Spectral Data<<<<<
801.071	28295
801.214	28325
801.356	28158
801.499	27930
801.641	27918
801.783	27835
801.926	27964
802.068	27819
802.211	27861
802.353	27907
802.496	27606
802.638	27785
802.78	27538
802.923	27523
803.065	27713
803.208	27553
803.35	27568
803.492	27747
803.635	27804
803.777	27793
803.919	27865
804.061	28116
804.204	27766
804.346	27720
804.488	27759
804.63	27838
804.773	27793
804.915	27804
805.057	27949
805.199	27819
805.341	27861
805.483	28051
805.626	27903
805.768	27930
805.91	27960
806.052	27960
806.194	27850
806.336	28158
806.478	27975
806.62	27968
806.762	28150
806.904	28150
807.046	28409
807.188	28451
807.33	28367
807.472	28569
807.614	28360
807.756	28325
807.898	28367
808.04	28173
808.182	28287
808.324	28303
808.465	28177
808.607	28675
808.749	28847
808.891	28801
809.033	28771
809.174	28615
809.316	28809
809.458	28531
809.6	28527
809.741	28717
809.883	28755
810.025	29105
810.166	29006
810.308	28957
810.45	28892
810.591	28759
810.733	28736
810.875	28607
811.016	28584
811.158	28634
811.299	28733
811.441	28835
811.582	28850
811.724	28687
811.865	28500
812.007	28713
812.148	28710
812.29	28607
812.431	28713
812.573	28942
812.714	29098
812.855	29269
812.997	29265
813.138	29406
813.279	29387
813.421	29162
813.562	29067
813.703	29010
813.845	28908
813.986	28580
814.127	28500
814.268	28333
814.41	28234
814.551	28276
814.692	28303
814.833	28318
814.974	28504
815.115	28367
815.256	28299
815.397	28188
815.539	28162
815.68	28230
815.821	28131
815.962	28078
816.103	28207
816.244	28055
816.385	28013
816.526	27865
816.666	27770
816.807	27660
816.948	27732
817.089	27739
817.23	27698
817.371	27473
817.512	27648
817.653	27587
817.793	27515
817.934	27679
818.075	27671
818.216	27629
818.356	27538
818.497	27523
818.638	27462
818.778	27340
818.919	27469
819.06	27538
819.2	27637
819.341	27778
819.481	27713
819.622	27857
819.762	28017
819.903	27797
820.043	27892
820.184	27755
820.324	27816
820.465	27789
820.605	27778
820.746	27789
820.886	27580
821.026	27876
821.167	27743
821.307	27804
821.447	27671
821.588	27481
821.728	27355
821.868	27351
822.008	27074
822.149	27310
822.289	27161
822.429	26971
822.569	26819
822.709	26857
822.849	26598
822.99	26579
823.13	26549
823.27	26686
823.41	26480
823.55	26309
823.69	26511
823.83	26621
823.97	26400
824.11	26313
824.25	26271
824.389	26252
824.529	26366
824.669	26278
824.809	26328
824.949	26355
825.089	26404
825.228	26355
825.368	26145
825.508	26107
825.648	26206
825.787	26191
825.927	26210
826.067	26240
826.206	26119
826.346	26206
826.485	26263
826.625	26107
826.765	26233
826.904	26183
827.044	25974
827.183	25917
827.323	25784
827.462	26035
827.601	26039
827.741	25890
827.88	25974
828.02	25795
828.159	25780
828.298	25959
828.437	25845
828.577	25814
828.716	25871
828.855	25746
828.994	25635
829.134	25605
829.273	25662
829.412	25548
829.551	25510
829.69	25556
829.829	25464
829.968	25715
830.107	25677
830.246	25712
830.385	25601
830.524	25556
830.663	25316
830.802	25259
830.941	25156
831.08	25263
831.219	25244
831.357	25187
831.496	25411
831.635	25179
831.774	25118
831.913	25015
832.051	24981
832.19	24920
832.329	25012
832.467	24833
832.606	24867
832.744	24779
832.883	24814
833.022	24817
833.16	24894
833.299	24939
833.437	24852
833.576	25004
833.714	24916
833.852	24989
833.991	24966
834.129	24939
834.267	24935
834.406	24920
834.544	25091
834.682	24897
834.821	24760
834.959	25084
835.097	24871
835.235	25152
835.373	24856
835.511	24985
835.65	24905
835.788	24741
835.926	24661
836.064	24585
836.202	24574
836.34	24753
836.478	24821
836.615	24703
836.753	24764
836.891	24806
837.029	24703
837.167	24631
837.305	24646
837.443	24559
837.58	24639
837.718	24650
837.856	24639
837.993	24620
838.131	24464
838.269	24528
838.406	24334
838.544	24483
838.681	24205
838.819	24110
838.956	23969
839.094	24076
839.231	24057
839.369	24304
839.506	24570
839.643	24224
839.781	24045
839.918	23980
840.055	24068
840.193	24060
840.33	23920
840.467	24068
840.604	23866
840.742	24091
840.879	23779
841.016	23821
841.153	23878
841.29	24034
841.427	23999
841.564	24045
841.701	23809
841.838	23882
841.975	23817
842.112	23916
842.249	23756
842.385	23638
842.522	23882
842.659	23828
842.796	23733
842.933	23760
843.069	23668
843.206	23592
843.343	23771
843.479	23649
843.616	23703
843.752	23524
843.889	23524
844.025	23649
844.162	23474
844.298	23585
844.435	23410
844.571	23455
844.708	23391
844.844	23604
844.98	23642
845.117	23531
845.253	23402
845.389	23398
845.525	23288
845.661	23429
845.798	23223
845.934	23159
846.07	23174
846.206	23280
846.342	23250
846.478	23239
846.614	22999
846.75	22854
846.886	22854
847.022	23136
847.158	22854
847.294	22847
847.429	23010
847.565	22915
847.701	23204
847.837	22599
847.972	22649
848.108	22812
848.244	22637
848.379	22535
848.515	22622
848.65	22459
848.786	22565
848.921	22485
849.057	22645
849.192	22653
849.328	22557
849.463	22546
849.598	22451
849.734	22341
849.869	22344
850.004	22204
850.14	22284
850.275	22344
850.41	22196
850.545	22242
850.68	22356
850.815	22360
850.95	22360
851.085	22382
851.22	22451
851.355	22363
851.49	22249
851.625	22265
851.76	22291
851.895	22287
852.03	22211
852.165	22211
852.299	22367
852.434	22276
852.569	22325
852.703	22204
852.838	22249
852.973	22249
853.107	22459
853.242	22204
853.376	22036
853.511	22166
853.645	22131
853.78	22154
853.914	22109
854.048	22040
854.183	22078
854.317	22067
854.451	22386
854.585	22261
854.72	22067
854.854	22044
854.988	22059
855.122	22093
855.256	21945
855.39	22097
855.524	22177
855.658	22128
855.792	22143
855.926	22135
856.06	22166
856.194	22329
856.327	22128
856.461	21991
856.595	22082
856.729	22082
856.862	22196
856.996	22150
857.13	22158
857.263	22303
857.397	22143
857.53	22078
857.664	22196
857.797	22246
857.931	22158
858.064	22070
858.197	22268
858.331	22051
858.464	22032
858.597	22025
858.731	22128
858.864	22074
858.997	22143
859.13	22150
859.263	22002
859.396	22196
859.529	22048
859.662	21991
859.795	22067
859.928	22135
860.061	22261
860.194	22284
860.327	22120
860.46	22067
860.592	22363
860.725	22238
860.858	22219
860.99	22162
861.123	22021
861.256	22090
861.388	22093
861.521	22999
861.653	22101
861.786	21911
861.918	21930
862.05	21907
862.183	21956
862.315	22032
862.447	22131
862.58	21922
862.712	21789
862.844	21800
862.976	21915
863.108	21827
863.24	22299
863.372	21755
863.504	21732
863.636	21701
863.768	21869
863.9	21861
864.032	21755
864.164	21694
864.296	21857
864.428	21838
864.559	21804
864.691	21956
864.823	21915
864.954	21876
865.086	21736
865.217	21717
865.349	21682
865.48	21629
865.612	21599
865.743	21774
865.875	21770
866.006	21675
866.137	21755
866.269	21705
866.4	21789
866.531	21625
866.662	21603
866.793	21591
866.924	21633
867.055	21656
867.186	21667
867.317	21644
867.448	21416
867.579	21583
867.71	21431
867.841	21466
867.972	21629
868.103	21641
868.233	21591
868.364	21652
868.495	21686
868.625	21797
868.756	21926
868.886	21736
869.017	21751
869.147	21911
869.278	22002
869.408	21857
869.539	21937
869.669	21930
869.799	21880
869.929	21972
870.06	22013
870.19	22188
870.32	22131
870.45	22135
870.58	22181
870.71	22333
870.84	22265
870.97	22204
871.1	22238
871.23	22443
871.36	22462
871.489	22329
871.619	22462
871.749	22398
871.879	22432
872.008	22615
872.138	22379
872.267	22382
872.397	22352
872.526	22356
872.656	22284
872.785	22333
872.915	22474
873.044	22565
873.173	22489
873.303	22538
873.432	22546
873.561	22516
873.69	22443
873.819	22512
873.948	22519
874.077	22512
874.206	22424
874.335	22462
874.464	22615
874.593	22634
874.722	22611
874.851	22588
874.979	22740
875.108	22702
875.237	22603
875.365	22637
875.494	22596
875.623	22691
875.751	22599
875.88	22660
876.008	22854
876.136	22927
876.265	23033
876.393	23147
876.521	23048
876.65	23090
876.778	23075
876.906	23067
877.034	23022
877.162	23029
877.29	22991
877.418	23048
877.546	22999
877.674	23166
877.802	23014
877.93	23006
878.058	23048
878.185	22809
878.313	23010
878.441	23022
878.568	22801
878.696	22915
878.824	23041
878.951	23064
879.079	23280
879.206	23292
879.333	23208
879.461	23242
879.588	23155
879.715	23231
879.842	23341
879.97	23181
880.097	22866
880.224	22984
880.351	22930
880.478	22866
880.605	22717
880.732	22763
880.859	23006
880.986	22908
881.112	23033
881.239	22755
881.366	22759
881.493	22508
881.619	22504
881.746	22550
881.872	22386
881.999	22421
882.125	22333
882.252	22577
882.378	22398
882.505	22504
882.631	22287
882.757	22147
882.883	22192
883.01	22067
883.136	22010
883.262	21911
883.388	21934
883.514	22006
883.64	22215
883.766	22036
883.892	21941
884.018	21880
884.143	22128
884.269	22196
884.395	21869
884.52	21618
884.646	21854
884.772	21743
884.897	21679
885.023	21793
885.148	21785
885.274	22006
885.399	21736
885.524	21701
885.65	21781
885.775	21880
885.9	21671
886.025	21937
886.15	21785
886.275	21755
886.4	21648
886.525	21766
886.65	21656
886.775	21633
886.9	21842
887.025	22013
887.149	21671
887.274	21625
887.399	21583
887.523	21545
887.648	21515
887.773	21557
887.897	21572
888.021	21496
888.146	21530
888.27	21656
888.395	21545
888.519	21648
888.643	21530
888.767	21568
888.891	21382
889.015	21317
889.139	21454
889.263	21131
889.387	21458
889.511	21435
889.635	21393
889.759	21325
889.883	21268
890.006	21344
890.13	21431
890.254	21165
890.377	21173
890.501	21112
890.624	21036
890.748	21051
890.871	21055
890.995	20872
891.118	20769
891.241	20800
891.364	20880
891.488	20975
891.611	20807
891.734	20857
891.857	20956
891.98	20834
892.103	20864
892.226	20861
892.349	20815
892.471	20708
892.594	20857
892.717	20701
892.839	20811
892.962	20746
893.085	20868
893.207	20663
893.33	20613
893.452	20667
893.575	20769
893.697	20743
893.819	20868
893.941	20918
894.064	20998
894.186	20716
894.308	20655
894.43	20864
894.552	20826
894.674	20762
894.796	20689
894.918	20765
895.04	20689
895.161	20944
895.283	20807
895.405	20727
895.526	20746
895.648	20644
895.769	20674
895.891	20705
896.012	20826
896.134	20743
896.255	20663
896.376	20674
896.498	20842
896.619	20754
896.74	20777
896.861	20743
896.982	21096
897.103	21176
897.224	20941
897.345	20876
897.466	20960
897.587	20861
897.708	20971
897.828	21005
897.949	20739
898.07	20792
898.19	20849
898.311	20910
898.431	20899
898.552	21001
898.672	21005
898.792	21055
898.913	20998
899.033	20842
899.153	20731
899.273	20655
899.393	20785
899.513	20727
899.633	20674
899.753	20796
899.873	20537
899.993	20712
900.113	20629
900.232	20621
900.352	20648
900.472	20579
900.591	20385
900.711	20427
900.83	20499
900.95	20594
901.069	20587
901.189	20298
901.308	20043
901.427	19982
901.546	20046
901.665	20126
901.784	19932
901.904	19898
902.023	19845
902.141	19616
902.26	19571
902.379	19727
902.498	19605
902.617	19597
902.735	19575
902.854	19472
902.973	19449
903.091	19129
903.21	19209
903.328	19217
903.446	19164
903.565	18943
903.683	18939
903.801	18890
903.919	18840
904.038	18920
904.156	18741
904.274	18738
904.392	18776
904.51	18745
904.627	18772
904.745	18768
904.863	18837
904.981	18566
905.098	18407
905.216	18456
905.334	18330
905.451	18471
905.569	18353
905.686	18475
905.803	18441
905.921	18277
906.038	18277
906.155	18224
906.272	18220
906.389	18015
906.506	17980
906.623	17939
906.74	18030
906.857	17729
906.974	17847
907.091	17973
907.208	18060
907.324	17920
907.441	17813
907.557	17657
907.674	17547
907.79	17611
907.907	17714
908.023	17665
908.139	17653
908.256	17608
908.372	17512
908.488	17630
908.604	17497
908.72	17334
908.836	17421
908.952	17299
909.068	17372
909.184	17467
909.3	17376
909.415	17292
909.531	17345
909.647	17250
909.762	17075
909.878	17147
909.993	17094
910.108	17124
910.224	17003
910.339	17018
910.454	16911
910.57	16869
910.685	16843
910.8	17022
910.915	16953
911.03	16873
911.145	16744
911.259	16713
911.374	16672
911.489	16630
911.604	16535
911.718	16394
911.833	16470
911.947	16375
912.062	16196
912.176	16306
912.291	16481
912.405	16443
912.519	16634
912.633	16596
912.748	16375
912.862	16337
912.976	16150
913.09	16101
913.204	16109
913.318	16188
913.431	16341
913.545	16276
913.659	16322
913.772	16143
913.886	16067
914	16067
914.113	16109
914.226	16124
914.34	16192
914.453	15922
914.566	15930
914.68	15880
914.793	15903
914.906	15671
915.019	15720
915.132	15637
915.245	15507
915.358	15610
915.47	15568
915.583	15511
915.696	15701
915.809	15797
915.921	15808
916.034	15500
916.146	15519
916.259	15576
916.371	15603
916.483	15644
916.595	15405
916.708	15553
916.82	15298
916.932	15374
917.044	15344
917.156	15291
917.268	15272
917.38	15264
917.491	15097
917.603	15275
917.715	15336
917.826	15279
917.938	15127
918.049	15100
918.161	15142
918.272	15245
918.384	15310
918.495	15142
918.606	15047
918.717	14906
918.828	15009
918.939	14971
919.05	14902
919.161	15024
919.272	14716
919.383	14857
919.494	14998
919.604	15089
919.715	14941
919.826	14842
919.936	14883
920.047	14971
920.157	14948
920.267	15119
920.378	14895
920.488	14933
920.598	15089
920.708	15256
920.818	15142
920.928	15218
921.038	15226
921.148	15230
921.258	14891
921.368	14746
921.477	14754
921.587	14590
921.697	14537
921.806	14762
921.916	14552
922.025	14396
922.134	14317
922.244	14294
922.353	14191
922.462	14202
922.571	14130
922.68	14008
922.789	13944
922.898	14005
923.007	13932
923.116	14027
923.224	13974
923.333	13921
923.442	13852
923.55	13742
923.659	13841
923.767	13814
923.876	13780
923.984	13814
924.092	13662
924.201	13613
924.309	13658
924.417	13693
924.525	13689
924.633	13651
924.741	14423
924.849	13373
924.956	13537
925.064	13308
925.172	13316
925.279	13327
925.387	13430
925.494	13293
925.602	13384
925.709	13411
925.816	13168
925.924	13403
926.031	13396
926.138	13156
926.245	13289
926.352	13156
926.459	13304
926.566	13327
926.673	13213
926.779	13088
926.886	13149
926.993	12924
927.099	12951
927.206	12867
927.312	12909
927.419	12966
927.525	12924
927.631	12901
927.737	12711
927.843	12745
927.95	12658
928.056	12760
928.162	12760
928.267	12779
928.373	13392
928.479	12779
928.585	12578
928.69	12623
928.796	12650
928.901	12658
929.007	12361
929.112	12585
929.218	12544
929.323	12388
929.428	12350
929.533	12566
929.638	12376
929.743	12369
929.848	12407
929.953	12292
930.058	12239
930.163	12133
930.267	12125
930.372	12315
930.477	12091
930.581	12262
930.685	12144
930.79	11973
930.894	11961
930.998	11996
931.103	12049
931.207	11592
931.311	11672
931.415	11592
931.519	11303
931.623	11307
