Data from test_V78500241_1879.txt Node
Date: Fri Mar 25 15:54:49 CST 2022
User: usil
Spectrometer: V785-0024
Trigger mode: 0
Integration Time (sec): 4.000000E-1
Scans to average: 1
Nonlinearity correction enabled: false
Boxcar width: 0
Storing dark spectrum: false
XAxis mode: Wavelengths
Number of Pixels in Spectrum: 1024
>>>>>Begin Spectral Data<<<<<
801.071	28265
801.214	28310
801.356	28109
801.499	27991
801.641	27956
801.783	27842
801.926	27964
802.068	27762
802.211	27854
802.353	27739
802.496	27595
802.638	27679
802.78	27576
802.923	27344
803.065	27370
803.208	27439
803.35	27526
803.492	27530
803.635	27819
803.777	27587
803.919	27850
804.061	28101
804.204	27831
804.346	27698
804.488	27739
804.63	27732
804.773	27739
804.915	27800
805.057	27873
805.199	27679
805.341	27686
805.483	27972
805.626	27854
805.768	27861
805.91	27892
806.052	27972
806.194	27720
806.336	28116
806.478	27854
806.62	27884
806.762	27972
806.904	28063
807.046	28360
807.188	28287
807.33	28329
807.472	28398
807.614	28234
807.756	28299
807.898	28147
808.04	28211
808.182	28166
808.324	28177
808.465	28299
808.607	28284
808.749	28599
808.891	28645
809.033	28858
809.174	28672
809.316	28481
809.458	28656
809.6	28546
809.741	28698
809.883	28660
810.025	28793
810.166	28831
810.308	28828
810.45	28885
810.591	28679
810.733	28500
810.875	28554
811.016	28554
811.158	28352
811.299	28485
811.441	28740
811.582	28778
811.724	28424
811.865	28451
812.007	28664
812.148	28516
812.29	28523
812.431	28611
812.573	28885
812.714	28938
812.855	29086
812.997	29113
813.138	29269
813.279	29250
813.421	29022
813.562	29155
813.703	28824
813.845	28691
813.986	28466
814.127	28303
814.268	28238
814.41	28428
814.551	28238
814.692	28188
814.833	28265
814.974	28265
815.115	28223
815.256	28169
815.397	28177
815.539	28116
815.68	28086
815.821	28032
815.962	28131
816.103	28063
816.244	27941
816.385	27873
816.526	27770
816.666	27561
816.807	27564
816.948	27618
817.089	27595
817.23	27568
817.371	27458
817.512	27466
817.653	27363
817.793	27382
817.934	27572
818.075	27542
818.216	27656
818.356	27389
818.497	27424
818.638	27241
818.778	27291
818.919	27184
819.06	27344
819.2	27348
819.341	27488
819.481	27526
819.622	27720
819.762	27785
819.903	27800
820.043	27663
820.184	27675
820.324	27625
820.465	27835
820.605	27739
820.746	27435
820.886	27553
821.026	27660
821.167	27671
821.307	27603
821.447	27477
821.588	27477
821.728	27363
821.868	27370
822.008	26998
822.149	27024
822.289	27051
822.429	26811
822.569	26693
822.709	26765
822.849	26499
822.99	26571
823.13	26545
823.27	26469
823.41	26317
823.55	26210
823.69	26332
823.83	26332
823.97	26195
824.11	26343
824.25	26252
824.389	26237
824.529	26240
824.669	26145
824.809	26244
824.949	26263
825.089	26214
825.228	26294
825.368	25936
825.508	25993
825.648	26187
825.787	26062
825.927	26069
826.067	25959
826.206	26142
826.346	26100
826.485	26278
826.625	26065
826.765	26153
826.904	26138
827.044	25822
827.183	25814
827.323	25689
827.462	25951
827.601	25776
827.741	25594
827.88	25658
828.02	25693
828.159	25712
828.298	25742
828.437	25723
828.577	25712
828.716	25811
828.855	25578
828.994	25582
829.134	25472
829.273	25525
829.412	25343
829.551	25430
829.69	25487
829.829	25472
829.968	25502
830.107	25449
830.246	25460
830.385	25255
830.524	25282
830.663	25244
830.802	25206
830.941	25069
831.08	25069
831.219	25145
831.357	25152
831.496	25122
831.635	25114
831.774	25095
831.913	24939
832.051	24886
832.19	24848
832.329	24935
832.467	24795
832.606	24639
832.744	24597
832.883	24627
833.022	24669
833.16	24696
833.299	24806
833.437	24741
833.576	24802
833.714	24791
833.852	24798
833.991	24806
834.129	24802
834.267	24897
834.406	24821
834.544	24760
834.682	24730
834.821	24749
834.959	24954
835.097	24646
835.235	24760
835.373	24840
835.511	24772
835.65	24753
835.788	24578
835.926	24418
836.064	24483
836.202	24323
836.34	24521
836.478	24521
836.615	24669
836.753	24498
836.891	24673
837.029	24604
837.167	24585
837.305	24612
837.443	24429
837.58	24357
837.718	24498
837.856	24353
837.993	24357
838.131	24475
838.269	24289
838.406	24254
838.544	24270
838.681	23999
838.819	23999
838.956	23939
839.094	23923
839.231	23916
839.369	24114
839.506	24346
839.643	24201
839.781	24041
839.918	23805
840.055	23939
840.193	23840
840.33	23847
840.467	23889
840.604	23893
840.742	24095
840.879	23676
841.016	23748
841.153	23695
841.29	23946
841.427	23783
841.564	23794
841.701	23786
841.838	23783
841.975	23657
842.112	23623
842.249	23524
842.385	23524
842.522	23786
842.659	23718
842.796	23562
842.933	23490
843.069	23497
843.206	23452
843.343	23687
843.479	23554
843.616	23558
843.752	23315
843.889	23433
844.025	23627
844.162	23292
844.298	23334
844.435	23273
844.571	23212
844.708	23395
844.844	23467
844.98	23448
845.117	23345
845.253	23235
845.389	23227
845.525	23330
845.661	23242
845.798	23121
845.934	23086
846.07	23014
846.206	23151
846.342	23299
846.478	23105
846.614	22995
846.75	22778
846.886	22740
847.022	22877
847.158	22869
847.294	22835
847.429	22873
847.565	22656
847.701	23014
847.837	22523
847.972	22516
848.108	22615
848.244	22615
848.379	22478
848.515	22455
848.65	22333
848.786	22402
848.921	22363
849.057	22489
849.192	22424
849.328	22360
849.463	22295
849.598	22421
849.734	22371
849.869	22204
850.004	22200
850.14	22169
850.275	22067
850.41	22048
850.545	22086
850.68	22120
850.815	22177
850.95	22124
851.085	22261
851.22	22333
851.355	22238
851.49	22109
851.625	22101
851.76	22143
851.895	22093
852.03	22063
852.165	22230
852.299	22112
852.434	22306
852.569	22101
852.703	22166
852.838	22192
852.973	22226
853.107	22230
853.242	22109
853.376	21926
853.511	21682
853.645	21892
853.78	22166
853.914	21983
854.048	21975
854.183	21876
854.317	21949
854.451	22143
854.585	22025
854.72	21934
854.854	22093
854.988	21884
855.122	21880
855.256	21865
855.39	21907
855.524	22036
855.658	21964
855.792	21854
855.926	21998
856.06	21953
856.194	21968
856.327	22074
856.461	21831
856.595	21770
856.729	21987
856.862	22063
856.996	21975
857.13	21968
857.263	22105
857.397	22097
857.53	22017
857.664	22086
857.797	22112
857.931	22162
858.064	22017
858.197	22188
858.331	21907
858.464	21930
858.597	21895
858.731	21975
858.864	21911
858.997	21869
859.13	22006
859.263	21911
859.396	22078
859.529	21975
859.662	21819
859.795	21838
859.928	21941
860.061	22086
860.194	22188
860.327	21972
860.46	21968
860.592	22017
860.725	22040
860.858	22082
860.99	21960
861.123	21907
861.256	21907
861.388	21968
861.521	22744
861.653	21831
861.786	21755
861.918	21861
862.05	21926
862.183	21892
862.315	21922
862.447	21899
862.58	21907
862.712	21759
862.844	21564
862.976	21751
863.108	21694
863.24	22105
863.372	21686
863.504	21717
863.636	21686
863.768	21717
863.9	21778
864.032	21652
864.164	21701
864.296	21671
864.428	21709
864.559	21641
864.691	21759
864.823	21686
864.954	21641
865.086	21652
865.217	21622
865.349	21553
865.48	21667
865.612	21481
865.743	21637
865.875	21488
866.006	21519
866.137	21447
866.269	21481
866.4	21511
866.531	21401
866.662	21412
866.793	21416
866.924	21523
867.055	21530
867.186	21534
867.317	21443
867.448	21355
867.579	21408
867.71	21351
867.841	21325
867.972	21519
868.103	21416
868.233	21447
868.364	21382
868.495	21682
868.625	21663
868.756	21835
868.886	21720
869.017	21686
869.147	21732
869.278	21903
869.408	21884
869.539	21698
869.669	21785
869.799	21781
869.929	21781
870.06	21663
870.19	22032
870.32	22044
870.45	22032
870.58	22097
870.71	22215
870.84	22299
870.97	22234
871.1	22223
871.23	22390
871.36	22352
871.489	22112
871.619	22287
871.749	22261
871.879	22462
872.008	22436
872.138	22329
872.267	22352
872.397	22211
872.526	22135
872.656	22196
872.785	22173
872.915	22268
873.044	22265
873.173	22253
873.303	22512
873.432	22344
873.561	22421
873.69	22402
873.819	22432
873.948	22413
874.077	22432
874.206	22287
874.335	22371
874.464	22417
874.593	22417
874.722	22508
874.851	22508
874.979	22611
875.108	22577
875.237	22497
875.365	22470
875.494	22573
875.623	22683
875.751	22546
875.88	22687
876.008	22630
876.136	22809
876.265	22908
876.393	23037
876.521	23079
876.65	22999
876.778	22790
876.906	22999
877.034	22858
877.162	22854
877.29	22892
877.418	22949
877.546	22881
877.674	22828
877.802	22786
877.93	22927
878.058	22911
878.185	22763
878.313	22915
878.441	22896
878.568	22649
878.696	22854
878.824	23025
878.951	22961
879.079	23048
879.206	23223
879.333	22946
879.461	22961
879.588	23151
879.715	23105
879.842	23117
879.97	22953
880.097	22713
880.224	22759
880.351	22839
880.478	22577
880.605	22675
880.732	22824
880.859	22900
880.986	22763
881.112	22634
881.239	22531
881.366	22360
881.493	22405
881.619	22341
881.746	22386
881.872	22325
881.999	22341
882.125	22284
882.252	22291
882.378	22223
882.505	22432
882.631	22086
882.757	21911
882.883	22078
883.01	21922
883.136	21972
883.262	21747
883.388	21766
883.514	21964
883.64	21903
883.766	21835
883.892	21724
884.018	21945
884.143	21865
884.269	21941
884.395	21728
884.52	21682
884.646	21660
884.772	21564
884.897	21466
885.023	21644
885.148	21671
885.274	21778
885.399	21717
885.524	21496
885.65	21644
885.775	21572
885.9	21606
886.025	21728
886.15	21797
886.275	21580
886.4	21469
886.525	21519
886.65	21557
886.775	21439
886.9	21648
887.025	21800
887.149	21599
887.274	21435
887.399	21397
887.523	21344
887.648	21302
887.773	21245
887.897	21420
888.021	21462
888.146	21386
888.27	21374
888.395	21481
888.519	21226
888.643	21534
888.767	21405
888.891	21313
889.015	21154
889.139	21264
889.263	21256
889.387	21169
889.511	21386
889.635	21336
889.759	21302
889.883	21218
890.006	21173
890.13	21237
890.254	21188
890.377	21081
890.501	20800
890.624	20902
890.748	20982
890.871	20906
890.995	20864
891.118	20754
891.241	20788
891.364	20594
891.488	20796
891.611	20735
891.734	20830
891.857	20739
891.98	20769
892.103	20819
892.226	20636
892.349	20735
892.471	20492
892.594	20750
892.717	20621
892.839	20632
892.962	20682
893.085	20632
893.207	20499
893.33	20492
893.452	20625
893.575	20651
893.697	20473
893.819	20746
893.941	20853
894.064	20804
894.186	20541
894.308	20552
894.43	20678
894.552	20868
894.674	20785
894.796	20571
894.918	20613
895.04	20598
895.161	20629
895.283	20678
895.405	20556
895.526	20609
895.648	20552
895.769	20705
895.891	20648
896.012	20712
896.134	20594
896.255	20689
896.376	20495
896.498	20617
896.619	20716
896.74	20545
896.861	20670
896.982	20948
897.103	21074
897.224	20777
897.345	20918
897.466	20750
897.587	20796
897.708	20910
897.828	20807
897.949	20849
898.07	20727
898.19	20708
898.311	20929
898.431	20701
898.552	20815
898.672	20906
898.792	20963
898.913	20876
899.033	20792
899.153	20564
899.273	20583
899.393	20495
899.513	20636
899.633	20575
899.753	20537
899.873	20511
899.993	20590
900.113	20518
900.232	20514
900.352	20446
900.472	20343
900.591	20233
900.711	20457
900.83	20351
900.95	20419
901.069	20362
901.189	20278
901.308	20107
901.427	19913
901.546	19989
901.665	19917
901.784	19868
901.904	19799
902.023	19723
902.141	19575
902.26	19457
902.379	19407
902.498	19320
902.617	19468
902.735	19499
902.854	19441
902.973	19285
903.091	19156
903.21	19137
903.328	19118
903.446	18973
903.565	18817
903.683	18909
903.801	18798
903.919	18882
904.038	18844
904.156	18570
904.274	18753
904.392	18540
904.51	18734
904.627	18658
904.745	18627
904.863	18757
904.981	18506
905.098	18292
905.216	18296
905.334	18357
905.451	18357
905.569	18174
905.686	18452
905.803	18319
905.921	18087
906.038	18247
906.155	18076
906.272	17996
906.389	18144
906.506	17821
906.623	17935
906.74	17798
906.857	17760
906.974	17771
907.091	17847
907.208	17984
907.324	17824
907.441	17665
907.557	17615
907.674	17474
907.79	17501
907.907	17570
908.023	17623
908.139	17558
908.256	17562
908.372	17395
908.488	17364
908.604	17292
908.72	17246
908.836	17220
908.952	17231
909.068	17273
909.184	17341
909.3	17288
909.415	17330
909.531	17242
909.647	17029
909.762	16957
909.878	17022
909.993	17037
910.108	17010
910.224	16930
910.339	17006
910.454	16900
910.57	16702
910.685	16717
910.8	16987
910.915	16938
911.03	16771
911.145	16599
911.259	16527
911.374	16538
911.489	16466
911.604	16569
911.718	16329
911.833	16367
911.947	16272
912.062	16105
912.176	16367
912.291	16360
912.405	16223
912.519	16519
912.633	16428
912.748	16280
912.862	16322
912.976	16158
913.09	16006
913.204	16150
913.318	16032
913.431	16215
913.545	16169
913.659	16230
913.772	16051
913.886	16048
914	15922
914.113	15979
914.226	16097
914.34	15956
914.453	15728
914.566	15960
914.68	15880
914.793	15781
914.906	15481
915.019	15637
915.132	15408
915.245	15424
915.358	15515
915.47	15496
915.583	15492
915.696	15557
915.809	15534
915.921	15648
916.034	15439
916.146	15363
916.259	15424
916.371	15435
916.483	15450
916.595	15329
916.708	15298
916.82	15310
916.932	15386
917.044	15313
917.156	15363
917.268	15142
917.38	15135
917.491	15157
917.603	15089
917.715	15233
917.826	15233
917.938	15020
918.049	14902
918.161	15036
918.272	15150
918.384	15207
918.495	15135
918.606	14963
918.717	14823
918.828	14880
918.939	14948
919.05	14861
919.161	14868
919.272	14644
919.383	14754
919.494	14826
919.604	15051
919.715	14944
919.826	14777
919.936	14826
920.047	14929
920.157	14921
920.267	15097
920.378	14842
920.488	14830
920.598	15001
920.708	15226
920.818	14899
920.928	14982
921.038	15161
921.148	15146
921.258	14785
921.368	14731
921.477	14678
921.587	14560
921.697	14484
921.806	14689
921.916	14415
922.025	14320
922.134	14328
922.244	14240
922.353	14275
922.462	14176
922.571	13982
922.68	13982
922.789	13845
922.898	13986
923.007	13887
923.116	13913
923.224	13814
923.333	13879
923.442	13700
923.55	13719
923.659	13704
923.767	13765
923.876	13548
923.984	13674
924.092	13552
924.201	13601
924.309	13655
924.417	13609
924.525	13537
924.633	13563
924.741	14328
924.849	13403
924.956	13521
925.064	13343
925.172	13270
925.279	13270
925.387	13266
925.494	13190
925.602	13457
925.709	13320
925.816	13251
925.924	13308
926.031	13327
926.138	13213
926.245	13270
926.352	13091
926.459	13335
926.566	13308
926.673	13187
926.779	13118
926.886	13091
926.993	12913
927.099	12749
927.206	12749
927.312	12852
927.419	12928
927.525	12897
927.631	12863
927.737	12730
927.843	12684
927.95	12589
928.056	12616
928.162	12642
928.267	12715
928.373	13343
928.479	12806
928.585	12525
928.69	12665
928.796	12612
928.901	12582
929.007	12388
929.112	12486
929.218	12563
929.323	12384
929.428	12311
929.533	12506
929.638	12342
929.743	12327
929.848	12395
929.953	12395
930.058	12228
930.163	11969
930.267	12129
930.372	12178
930.477	11969
930.581	12235
930.685	12098
930.79	11863
930.894	12007
930.998	11935
931.103	12015
931.207	11726
931.311	11642
931.415	11562
931.519	11303
931.623	11269
