Data from test_V78500241_1786.txt Node
Date: Fri Mar 25 15:54:10 CST 2022
User: usil
Spectrometer: V785-0024
Trigger mode: 0
Integration Time (sec): 4.000000E-1
Scans to average: 1
Nonlinearity correction enabled: false
Boxcar width: 0
Storing dark spectrum: false
XAxis mode: Wavelengths
Number of Pixels in Spectrum: 1024
>>>>>Begin Spectral Data<<<<<
801.071	28481
801.214	28375
801.356	28223
801.499	28238
801.641	27937
801.783	28177
801.926	28067
802.068	28006
802.211	27987
802.353	27850
802.496	27751
802.638	27781
802.78	27751
802.923	27622
803.065	27572
803.208	27739
803.35	27789
803.492	27899
803.635	27831
803.777	27838
803.919	27949
804.061	28230
804.204	28093
804.346	27667
804.488	27911
804.63	28036
804.773	27751
804.915	27949
805.057	28078
805.199	27907
805.341	27934
805.483	28207
805.626	28101
805.768	27964
805.91	28204
806.052	28154
806.194	28124
806.336	28207
806.478	28112
806.62	27975
806.762	28219
806.904	28535
807.046	28489
807.188	28455
807.33	28535
807.472	28664
807.614	28618
807.756	28630
807.898	28440
808.04	28272
808.182	28310
808.324	28531
808.465	28379
808.607	28683
808.749	28721
808.891	28847
809.033	28831
809.174	28854
809.316	28831
809.458	28854
809.6	28812
809.741	28843
809.883	28892
810.025	29056
810.166	29155
810.308	29022
810.45	28999
810.591	28972
810.733	28793
810.875	28755
811.016	28531
811.158	28824
811.299	28698
811.441	28850
811.582	28965
811.724	28763
811.865	28835
812.007	28809
812.148	28786
812.29	28927
812.431	28991
812.573	29029
812.714	29292
812.855	29315
812.997	29410
813.138	29535
813.279	29444
813.421	29436
813.562	29181
813.703	29140
813.845	29098
813.986	28721
814.127	28592
814.268	28443
814.41	28443
814.551	28390
814.692	28577
814.833	28360
814.974	28409
815.115	28504
815.256	28428
815.397	28352
815.539	28356
815.68	28253
815.821	28181
815.962	28257
816.103	28223
816.244	28166
816.385	28158
816.526	28006
816.666	27854
816.807	27823
816.948	27781
817.089	27964
817.23	27743
817.371	27671
817.512	27751
817.653	27800
817.793	27739
817.934	27728
818.075	27876
818.216	27778
818.356	27739
818.497	27599
818.638	27511
818.778	27553
818.919	27481
819.06	27481
819.2	27675
819.341	27812
819.481	27709
819.622	27892
819.762	28048
819.903	28112
820.043	27922
820.184	27937
820.324	27907
820.465	28025
820.605	27991
820.746	27922
820.886	27789
821.026	27869
821.167	27876
821.307	27861
821.447	27720
821.588	27717
821.728	27660
821.868	27416
822.008	27348
822.149	27245
822.289	27302
822.429	27051
822.569	26952
822.709	26956
822.849	26727
822.99	26746
823.13	26644
823.27	26697
823.41	26545
823.55	26469
823.69	26522
823.83	26682
823.97	26495
824.11	26355
824.25	26381
824.389	26290
824.529	26450
824.669	26370
824.809	26598
824.949	26629
825.089	26579
825.228	26583
825.368	26294
825.508	26221
825.648	26385
825.787	26377
825.927	26408
826.067	26271
826.206	26355
826.346	26362
826.485	26336
826.625	26267
826.765	26377
826.904	26305
827.044	26096
827.183	26126
827.323	25989
827.462	26031
827.601	25974
827.741	26043
827.88	26111
828.02	25932
828.159	26065
828.298	26088
828.437	26130
828.577	25944
828.716	26046
828.855	25909
828.994	25681
829.134	25727
829.273	25727
829.412	25658
829.551	25582
829.69	25609
829.829	25639
829.968	25715
830.107	25871
830.246	25590
830.385	25696
830.524	25559
830.663	25483
830.802	25415
830.941	25312
831.08	25316
831.219	25460
831.357	25297
831.496	25533
831.635	25384
831.774	25244
831.913	25046
832.051	24973
832.19	25072
832.329	25099
832.467	24924
832.606	24817
832.744	24894
832.883	24958
833.022	24867
833.16	25042
833.299	25057
833.437	25008
833.576	25004
833.714	24958
833.852	24981
833.991	25114
834.129	25259
834.267	25095
834.406	24954
834.544	25107
834.682	24981
834.821	25046
834.959	25129
835.097	24989
835.235	25019
835.373	24989
835.511	24875
835.65	24932
835.788	24924
835.926	24734
836.064	24601
836.202	24623
836.34	24844
836.478	24981
836.615	24848
836.753	24878
836.891	24890
837.029	24909
837.167	24776
837.305	24673
837.443	24703
837.58	24749
837.718	24642
837.856	24703
837.993	24620
838.131	24627
838.269	24627
838.406	24654
838.544	24528
838.681	24296
838.819	24247
838.956	24209
839.094	24087
839.231	24083
839.369	24315
839.506	24585
839.643	24346
839.781	24247
839.918	24083
840.055	24034
840.193	24159
840.33	24030
840.467	24064
840.604	24038
840.742	24247
840.879	23984
841.016	23923
841.153	23977
841.29	24041
841.427	24095
841.564	24076
841.701	23984
841.838	24068
841.975	23916
842.112	23973
842.249	23904
842.385	23878
842.522	23908
842.659	23882
842.796	23832
842.933	23882
843.069	23828
843.206	23729
843.343	23863
843.479	23897
843.616	23756
843.752	23710
843.889	23551
844.025	23672
844.162	23581
844.298	23619
844.435	23543
844.571	23604
844.708	23630
844.844	23779
844.98	23703
845.117	23684
845.253	23478
845.389	23497
845.525	23512
845.661	23322
845.798	23258
845.934	23387
846.07	23490
846.206	23280
846.342	23379
846.478	23292
846.614	23216
846.75	22885
846.886	22934
847.022	23166
847.158	23086
847.294	23044
847.429	23006
847.565	23029
847.701	23292
847.837	22771
847.972	22767
848.108	22843
848.244	22854
848.379	22717
848.515	22645
848.65	22687
848.786	22675
848.921	22622
849.057	22691
849.192	22664
849.328	22653
849.463	22721
849.598	22611
849.734	22561
849.869	22500
850.004	22413
850.14	22481
850.275	22363
850.41	22325
850.545	22356
850.68	22462
850.815	22466
850.95	22344
851.085	22527
851.22	22470
851.355	22402
851.49	22363
851.625	22215
851.76	22333
851.895	22325
852.03	22379
852.165	22436
852.299	22500
852.434	22474
852.569	22455
852.703	22295
852.838	22512
852.973	22523
853.107	22504
853.242	22466
853.376	22238
853.511	22147
853.645	22238
853.78	22211
853.914	22322
854.048	22162
854.183	22188
854.317	22303
854.451	22398
854.585	22226
854.72	22185
854.854	22280
854.988	22226
855.122	22253
855.256	21998
855.39	22181
855.524	22299
855.658	22265
855.792	22265
855.926	22185
856.06	22280
856.194	22287
856.327	22242
856.461	22276
856.595	22185
856.729	22162
856.862	22398
856.996	22287
857.13	22265
857.263	22181
857.397	22242
857.53	22196
857.664	22181
857.797	22276
857.931	22299
858.064	22253
858.197	22318
858.331	22207
858.464	22109
858.597	22181
858.731	22200
858.864	22226
858.997	22105
859.13	22204
859.263	22234
859.396	22280
859.529	22234
859.662	22200
859.795	22086
859.928	22257
860.061	22371
860.194	22215
860.327	22337
860.46	22177
860.592	22230
860.725	22379
860.858	22337
860.99	22238
861.123	22143
861.256	22181
861.388	22242
861.521	23006
861.653	22097
861.786	22044
861.918	21979
862.05	22188
862.183	22166
862.315	22120
862.447	22177
862.58	22101
862.712	21983
862.844	21766
862.976	21972
863.108	22010
863.24	22303
863.372	21827
863.504	21945
863.636	21854
863.768	21960
863.9	22002
864.032	21884
864.164	21907
864.296	21987
864.428	21937
864.559	22074
864.691	21991
864.823	21895
864.954	21873
865.086	21983
865.217	21732
865.349	21755
865.48	21842
865.612	21789
865.743	21953
865.875	21873
866.006	21793
866.137	21751
866.269	21778
866.4	21766
866.531	21720
866.662	21705
866.793	21728
866.924	21785
867.055	21671
867.186	21743
867.317	21701
867.448	21713
867.579	21644
867.71	21625
867.841	21694
867.972	21755
868.103	21717
868.233	21618
868.364	21698
868.495	21793
868.625	21987
868.756	22112
868.886	21880
869.017	21930
869.147	22074
869.278	22002
869.408	21953
869.539	21945
869.669	22044
869.799	21994
869.929	22055
870.06	22021
870.19	22257
870.32	22143
870.45	22341
870.58	22318
870.71	22443
870.84	22504
870.97	22314
871.1	22535
871.23	22466
871.36	22603
871.489	22481
871.619	22493
871.749	22500
871.879	22588
872.008	22626
872.138	22599
872.267	22569
872.397	22538
872.526	22329
872.656	22356
872.785	22405
872.915	22554
873.044	22622
873.173	22592
873.303	22569
873.432	22706
873.561	22755
873.69	22626
873.819	22580
873.948	22683
874.077	22679
874.206	22417
874.335	22512
874.464	22725
874.593	22736
874.722	22809
874.851	22824
874.979	22763
875.108	22759
875.237	22698
875.365	22710
875.494	22763
875.623	22904
875.751	22793
875.88	22812
876.008	22949
876.136	23060
876.265	23231
876.393	23368
876.521	23292
876.65	23269
876.778	23162
876.906	23170
877.034	23200
877.162	23159
877.29	23128
877.418	23162
877.546	23113
877.674	23109
877.802	23124
877.93	23239
878.058	23174
878.185	23056
878.313	23147
878.441	23124
878.568	23083
878.696	23083
878.824	23231
878.951	23102
879.079	23143
879.206	23520
879.333	23303
879.461	23178
879.588	23185
879.715	23269
879.842	23452
879.97	23322
880.097	23010
880.224	22980
880.351	23033
880.478	22961
880.605	22934
880.732	22927
880.859	23250
880.986	22889
881.112	22908
881.239	22839
881.366	22694
881.493	22603
881.619	22569
881.746	22516
881.872	22554
881.999	22451
882.125	22443
882.252	22538
882.378	22481
882.505	22649
882.631	22470
882.757	22318
882.883	22367
883.01	22265
883.136	22177
883.262	22093
883.388	22055
883.514	22211
883.64	22223
883.766	22051
883.892	21975
884.018	21907
884.143	22177
884.269	22246
884.395	21918
884.52	21892
884.646	21934
884.772	21819
884.897	21724
885.023	21895
885.148	21823
885.274	21964
885.399	21892
885.524	21876
885.65	21934
885.775	21854
885.9	21842
886.025	21956
886.15	21873
886.275	21808
886.4	21591
886.525	21686
886.65	21751
886.775	21671
886.9	21842
887.025	22002
887.149	21812
887.274	21576
887.399	21545
887.523	21641
887.648	21599
887.773	21454
887.897	21595
888.021	21637
888.146	21564
888.27	21694
888.395	21701
888.519	21576
888.643	21652
888.767	21591
888.891	21443
889.015	21462
889.139	21458
889.263	21374
889.387	21469
889.511	21458
889.635	21519
889.759	21401
889.883	21302
890.006	21310
890.13	21504
890.254	21298
890.377	21275
890.501	21123
890.624	21123
890.748	21142
890.871	21039
890.995	20944
891.118	20796
891.241	20925
891.364	21005
891.488	21135
891.611	20979
891.734	20937
891.857	21009
891.98	20982
892.103	20994
892.226	20948
892.349	20941
892.471	20693
892.594	20849
892.717	20826
892.839	20769
892.962	20796
893.085	21009
893.207	20864
893.33	20727
893.452	20754
893.575	20849
893.697	20849
893.819	21123
893.941	21036
894.064	20906
894.186	20781
894.308	20765
894.43	21032
894.552	20906
894.674	21001
894.796	20785
894.918	20773
895.04	20663
895.161	20842
895.283	20887
895.405	20807
895.526	20800
895.648	20781
895.769	20899
895.891	20765
896.012	20929
896.134	20765
896.255	20929
896.376	20781
896.498	20731
896.619	20804
896.74	20819
896.861	20861
896.982	21161
897.103	21237
897.224	21108
897.345	21066
897.466	20986
897.587	20982
897.708	21104
897.828	21039
897.949	20918
898.07	20986
898.19	21009
898.311	21089
898.431	21036
898.552	20956
898.672	21017
898.792	21169
898.913	20967
899.033	21032
899.153	20804
899.273	20663
899.393	20864
899.513	20811
899.633	20887
899.753	20834
899.873	20663
899.993	20811
900.113	20678
900.232	20629
900.352	20735
900.472	20575
900.591	20484
900.711	20488
900.83	20514
900.95	20587
901.069	20636
901.189	20473
901.308	20202
901.427	20008
901.546	20115
901.665	20240
901.784	20115
901.904	19963
902.023	19928
902.141	19708
902.26	19693
902.379	19719
902.498	19620
902.617	19582
902.735	19559
902.854	19575
902.973	19552
903.091	19240
903.21	19187
903.328	19175
903.446	19107
903.565	19072
903.683	19141
903.801	18920
903.919	18943
904.038	19053
904.156	18886
904.274	18848
904.392	18795
904.51	18753
904.627	18814
904.745	18833
904.863	18920
904.981	18715
905.098	18464
905.216	18441
905.334	18521
905.451	18559
905.569	18426
905.686	18517
905.803	18384
905.921	18254
906.038	18319
906.155	18357
906.272	18117
906.389	18247
906.506	18041
906.623	18171
906.74	18041
906.857	17908
906.974	18003
907.091	17988
907.208	18087
907.324	17950
907.441	17878
907.557	17863
907.674	17634
907.79	17707
907.907	17794
908.023	17767
908.139	17657
908.256	17741
908.372	17634
908.488	17516
908.604	17528
908.72	17421
908.836	17455
908.952	17474
909.068	17573
909.184	17497
909.3	17433
909.415	17573
909.531	17497
909.647	17235
909.762	17147
909.878	17064
909.993	17197
910.108	17037
910.224	17010
910.339	17121
910.454	17105
910.57	16961
910.685	16900
910.8	17231
910.915	17064
911.03	17006
911.145	16812
911.259	16740
911.374	16767
911.489	16702
911.604	16634
911.718	16584
911.833	16436
911.947	16386
912.062	16367
912.176	16474
912.291	16424
912.405	16417
912.519	16634
912.633	16577
912.748	16459
912.862	16462
912.976	16230
913.09	16128
913.204	16230
913.318	16177
913.431	16379
913.545	16287
913.659	16348
913.772	16230
913.886	16128
914	16010
914.113	16131
914.226	16306
914.34	16120
914.453	15888
914.566	16177
914.68	15937
914.793	15941
914.906	15781
915.019	15736
915.132	15622
915.245	15682
915.358	15724
915.47	15717
915.583	15679
915.696	15625
915.809	15732
915.921	15747
916.034	15610
916.146	15538
916.259	15538
916.371	15644
916.483	15576
916.595	15511
916.708	15428
916.82	15538
916.932	15420
917.044	15500
917.156	15408
917.268	15294
917.38	15401
917.491	15302
917.603	15306
917.715	15416
917.826	15374
917.938	15230
918.049	15081
918.161	15283
918.272	15370
918.384	15389
918.495	15222
918.606	15051
918.717	15074
918.828	15142
918.939	15116
919.05	14971
919.161	14994
919.272	14948
919.383	14891
919.494	15157
919.604	15241
919.715	15043
919.826	14986
919.936	14925
920.047	15097
920.157	15047
920.267	15165
920.378	15058
920.488	15001
920.598	15287
920.708	15329
920.818	15135
920.928	15268
921.038	15359
921.148	15329
921.258	15005
921.368	14838
921.477	14857
921.587	14823
921.697	14651
921.806	14754
921.916	14705
922.025	14480
922.134	14469
922.244	14305
922.353	14457
922.462	14282
922.571	14214
922.68	14088
922.789	14020
922.898	14005
923.007	14073
923.116	13986
923.224	14069
923.333	14024
923.442	13879
923.55	13856
923.659	13875
923.767	13803
923.876	13868
923.984	13860
924.092	13742
924.201	13791
924.309	13757
924.417	13734
924.525	13655
924.633	13674
924.741	14381
924.849	13548
924.956	13666
925.064	13449
925.172	13350
925.279	13468
925.387	13438
925.494	13422
925.602	13590
925.709	13567
925.816	13282
925.924	13381
926.031	13449
926.138	13373
926.245	13491
926.352	13168
926.459	13358
926.566	13453
926.673	13316
926.779	13156
926.886	13126
926.993	12954
927.099	13008
927.206	12905
927.312	12753
927.419	13069
927.525	13015
927.631	12939
927.737	12901
927.843	12852
927.95	12620
928.056	12741
928.162	12817
928.267	12817
928.373	13377
928.479	12783
928.585	12528
928.69	12707
928.796	12814
928.901	12646
929.007	12475
929.112	12593
929.218	12627
929.323	12513
929.428	12536
929.533	12616
929.638	12414
929.743	12479
929.848	12506
929.953	12441
930.058	12395
930.163	12216
930.267	12182
930.372	12315
930.477	12106
930.581	12308
930.685	12224
930.79	12072
930.894	12064
930.998	12011
931.103	12045
931.207	11794
931.311	11764
931.415	11653
931.519	11429
931.623	11398
