Data from test_V78500241_2176.txt Node
Date: Fri Mar 25 15:56:52 CST 2022
User: usil
Spectrometer: V785-0024
Trigger mode: 0
Integration Time (sec): 4.000000E-1
Scans to average: 1
Nonlinearity correction enabled: false
Boxcar width: 0
Storing dark spectrum: false
XAxis mode: Wavelengths
Number of Pixels in Spectrum: 1024
>>>>>Begin Spectral Data<<<<<
801.071	28957
801.214	29044
801.356	28774
801.499	28713
801.641	28675
801.783	28577
801.926	28706
802.068	28683
802.211	28432
802.353	28478
802.496	28322
802.638	28276
802.78	28223
802.923	28040
803.065	28211
803.208	28306
803.35	28466
803.492	28223
803.635	28538
803.777	28325
803.919	28569
804.061	28911
804.204	28672
804.346	28386
804.488	28318
804.63	28504
804.773	28421
804.915	28527
805.057	28569
805.199	28599
805.341	28653
805.483	28706
805.626	28664
805.768	28790
805.91	28675
806.052	28771
806.194	28683
806.336	28797
806.478	28687
806.62	28850
806.762	28881
806.904	29067
807.046	29337
807.188	29071
807.33	29162
807.472	29258
807.614	29102
807.756	29185
807.898	29067
808.04	28995
808.182	28980
808.324	29124
808.465	29155
808.607	29383
808.749	29395
808.891	29558
809.033	29482
809.174	29577
809.316	29353
809.458	29421
809.6	29516
809.741	29535
809.883	29630
810.025	29741
810.166	29783
810.308	29687
810.45	29505
810.591	29638
810.733	29505
810.875	29395
811.016	29512
811.158	29387
811.299	29425
811.441	29722
811.582	29676
811.724	29364
811.865	29360
812.007	29414
812.148	29699
812.29	29463
812.431	29615
812.573	29893
812.714	29855
812.855	30038
812.997	29984
813.138	30079
813.279	30136
813.421	29996
813.562	29771
813.703	29832
813.845	29703
813.986	29459
814.127	29200
814.268	29136
814.41	29197
814.551	29006
814.692	29242
814.833	29105
814.974	29151
815.115	29159
815.256	29018
815.397	29006
815.539	29041
815.68	28987
815.821	28980
815.962	28980
816.103	28984
816.244	28858
816.385	28748
816.526	28706
816.666	28550
816.807	28478
816.948	28668
817.089	28622
817.23	28542
817.371	28481
817.512	28481
817.653	28481
817.793	28356
817.934	28554
818.075	28466
818.216	28523
818.356	28405
818.497	28287
818.638	28207
818.778	28314
818.919	28207
819.06	28341
819.2	28348
819.341	28584
819.481	28455
819.622	28649
819.762	28873
819.903	28622
820.043	28767
820.184	28542
820.324	28702
820.465	28637
820.605	28588
820.746	28725
820.886	28413
821.026	28523
821.167	28451
821.307	28672
821.447	28535
821.588	28360
821.728	28268
821.868	28181
822.008	28086
822.149	27907
822.289	28059
822.429	27652
822.569	27576
822.709	27660
822.849	27538
822.99	27492
823.13	27545
823.27	27492
823.41	27420
823.55	27211
823.69	27351
823.83	27450
823.97	27298
824.11	27192
824.25	27218
824.389	27036
824.529	27302
824.669	27146
824.809	27325
824.949	27355
825.089	27260
825.228	27207
825.368	27043
825.508	27047
825.648	27070
825.787	26994
825.927	27131
826.067	26963
826.206	27036
826.346	27077
826.485	27055
826.625	27089
826.765	27207
826.904	27161
827.044	26925
827.183	26682
827.323	26750
827.462	26819
827.601	26636
827.741	26606
827.88	26819
828.02	26659
828.159	26663
828.298	26788
828.437	26849
828.577	26689
828.716	26781
828.855	26594
828.994	26492
829.134	26442
829.273	26469
829.412	26507
829.551	26389
829.69	26370
829.829	26400
829.968	26530
830.107	26355
830.246	26347
830.385	26324
830.524	26374
830.663	26199
830.802	26256
830.941	26088
831.08	26069
831.219	26065
831.357	26016
831.496	26381
831.635	25978
831.774	26020
831.913	26069
832.051	25849
832.19	25947
832.329	25822
832.467	25734
832.606	25605
832.744	25662
832.883	25769
833.022	25666
833.16	25731
833.299	25708
833.437	25845
833.576	25852
833.714	25883
833.852	25776
833.991	25811
834.129	25837
834.267	25849
834.406	25826
834.544	25765
834.682	25799
834.821	25849
834.959	25925
835.097	25704
835.235	25757
835.373	25750
835.511	25818
835.65	25643
835.788	25563
835.926	25571
836.064	25354
836.202	25502
836.34	25571
836.478	25700
836.615	25689
836.753	25563
836.891	25628
837.029	25590
837.167	25746
837.305	25559
837.443	25502
837.58	25426
837.718	25460
837.856	25445
837.993	25426
838.131	25476
838.269	25232
838.406	25422
838.544	25187
838.681	25198
838.819	25042
838.956	24856
839.094	24981
839.231	25031
839.369	25103
839.506	25217
839.643	25084
839.781	24863
839.918	24837
840.055	24890
840.193	24882
840.33	24825
840.467	24726
840.604	24939
840.742	25050
840.879	24715
841.016	24886
841.153	24544
841.29	24787
841.427	24669
841.564	24719
841.701	24642
841.838	24734
841.975	24669
842.112	24661
842.249	24604
842.385	24490
842.522	24825
842.659	24582
842.796	24521
842.933	24551
843.069	24429
843.206	24528
843.343	24589
843.479	24494
843.616	24566
843.752	24251
843.889	24323
844.025	24502
844.162	24194
844.298	24380
844.435	24319
844.571	24270
844.708	24407
844.844	24399
844.98	24369
845.117	24460
845.253	24350
845.389	24216
845.525	24300
845.661	24163
845.798	24022
845.934	24011
846.07	23969
846.206	23954
846.342	24106
846.478	24068
846.614	23786
846.75	23619
846.886	23756
847.022	23931
847.158	23775
847.294	23756
847.429	23771
847.565	23741
847.701	23931
847.837	23467
847.972	23497
848.108	23600
848.244	23596
848.379	23330
848.515	23303
848.65	23258
848.786	23280
848.921	23231
849.057	23440
849.192	23505
849.328	23307
849.463	23334
849.598	23159
849.734	23284
849.869	23372
850.004	23117
850.14	23033
850.275	23121
850.41	23029
850.545	23117
850.68	23003
850.815	23098
850.95	23128
851.085	23204
851.22	23193
851.355	23086
851.49	23044
851.625	23071
851.76	23060
851.895	23037
852.03	23083
852.165	23105
852.299	23231
852.434	23140
852.569	23189
852.703	22976
852.838	23261
852.973	23212
853.107	23235
853.242	22995
853.376	23025
853.511	22790
853.645	22710
853.78	23003
853.914	22862
854.048	22831
854.183	22923
854.317	22953
854.451	23090
854.585	22949
854.72	22930
854.854	23037
854.988	22816
855.122	22915
855.256	22809
855.39	22908
855.524	22812
855.658	23029
855.792	22930
855.926	22934
856.06	22896
856.194	22908
856.327	22828
856.461	22824
856.595	22984
856.729	22923
856.862	23048
856.996	22965
857.13	23067
857.263	22984
857.397	22938
857.53	22930
857.664	22828
857.797	22927
857.931	23121
858.064	22938
858.197	23010
858.331	22793
858.464	22805
858.597	22889
858.731	22850
858.864	22828
858.997	22904
859.13	22911
859.263	22873
859.396	23060
859.529	22930
859.662	22831
859.795	22957
859.928	22889
860.061	23025
860.194	23083
860.327	22927
860.46	22965
860.592	23060
860.725	23102
860.858	23044
860.99	22938
861.123	22991
861.256	22793
861.388	22946
861.521	23570
861.653	22748
861.786	22740
861.918	22755
862.05	22733
862.183	22748
862.315	22889
862.447	22904
862.58	22641
862.712	22698
862.844	22557
862.976	22653
863.108	22702
863.24	22869
863.372	22546
863.504	22535
863.636	22580
863.768	22748
863.9	22588
864.032	22447
864.164	22527
864.296	22573
864.428	22740
864.559	22752
864.691	22603
864.823	22584
864.954	22668
865.086	22599
865.217	22554
865.349	22348
865.48	22500
865.612	22538
865.743	22694
865.875	22474
866.006	22462
866.137	22550
866.269	22493
866.4	22508
866.531	22348
866.662	22371
866.793	22508
866.924	22402
867.055	22462
867.186	22497
867.317	22379
867.448	22291
867.579	22329
867.71	22272
867.841	22329
867.972	22405
868.103	22291
868.233	22367
868.364	22356
868.495	22462
868.625	22656
868.756	22729
868.886	22565
869.017	22618
869.147	22835
869.278	22831
869.408	22782
869.539	22668
869.669	22679
869.799	22649
869.929	22733
870.06	22820
870.19	22927
870.32	22908
870.45	22850
870.58	23071
870.71	23056
870.84	23102
870.97	23181
871.1	23098
871.23	23277
871.36	23216
871.489	23037
871.619	23185
871.749	23269
871.879	23231
872.008	23364
872.138	23185
872.267	23246
872.397	23102
872.526	23041
872.656	23056
872.785	23136
872.915	23368
873.044	23406
873.173	23383
873.303	23261
873.432	23318
873.561	23356
873.69	23372
873.819	23185
873.948	23216
874.077	23242
874.206	23174
874.335	23181
874.464	23448
874.593	23596
874.722	23452
874.851	23497
874.979	23516
875.108	23543
875.237	23433
875.365	23414
875.494	23398
875.623	23505
875.751	23360
875.88	23436
876.008	23604
876.136	23661
876.265	23786
876.393	23965
876.521	23927
876.65	23870
876.778	23847
876.906	23786
877.034	23752
877.162	23779
877.29	23783
877.418	23775
877.546	23855
877.674	23771
877.802	23703
877.93	23836
878.058	23748
878.185	23634
878.313	23863
878.441	23756
878.568	23589
878.696	23733
878.824	23866
878.951	23931
879.079	23992
879.206	24038
879.333	23954
879.461	23889
879.588	23794
879.715	24015
879.842	24049
879.97	23897
880.097	23665
880.224	23615
880.351	23687
880.478	23627
880.605	23604
880.732	23623
880.859	23901
880.986	23661
881.112	23703
881.239	23509
881.366	23372
881.493	23425
881.619	23250
881.746	23170
881.872	23166
881.999	23162
882.125	23170
882.252	23143
882.378	23113
882.505	23121
882.631	22987
882.757	22934
882.883	22835
883.01	22744
883.136	22828
883.262	22702
883.388	22763
883.514	22755
883.64	22854
883.766	22710
883.892	22557
884.018	22656
884.143	22637
884.269	22858
884.395	22516
884.52	22371
884.646	22527
884.772	22500
884.897	22379
885.023	22519
885.148	22622
885.274	22679
885.399	22493
885.524	22424
885.65	22474
885.775	22577
885.9	22462
886.025	22489
886.15	22577
886.275	22402
886.4	22428
886.525	22474
886.65	22367
886.775	22318
886.9	22573
887.025	22626
887.149	22447
887.274	22280
887.399	22219
887.523	22348
887.648	22143
887.773	22158
887.897	22291
888.021	22284
888.146	22147
888.27	22360
888.395	22379
888.519	22348
888.643	22272
888.767	22257
888.891	22131
889.015	22021
889.139	22078
889.263	21956
889.387	22143
889.511	22112
889.635	22048
889.759	22036
889.883	21956
890.006	22048
890.13	22029
890.254	21892
890.377	21903
890.501	21819
890.624	21766
890.748	21728
890.871	21599
890.995	21492
891.118	21450
891.241	21538
891.364	21485
891.488	21568
891.611	21572
891.734	21720
891.857	21564
891.98	21549
892.103	21515
892.226	21534
892.349	21450
892.471	21317
892.594	21580
892.717	21511
892.839	21374
892.962	21420
893.085	21542
893.207	21435
893.33	21340
893.452	21454
893.575	21507
893.697	21310
893.819	21603
893.941	21610
894.064	21637
894.186	21458
894.308	21340
894.43	21538
894.552	21511
894.674	21515
894.796	21294
894.918	21310
895.04	21291
895.161	21545
895.283	21458
895.405	21416
895.526	21401
895.648	21428
895.769	21405
895.891	21382
896.012	21466
896.134	21412
896.255	21416
896.376	21332
896.498	21393
896.619	21435
896.74	21466
896.861	21450
896.982	21846
897.103	21865
897.224	21686
897.345	21671
897.466	21580
897.587	21595
897.708	21770
897.828	21694
897.949	21717
898.07	21496
898.19	21625
898.311	21713
898.431	21435
898.552	21481
898.672	21667
898.792	21614
898.913	21644
899.033	21481
899.153	21412
899.273	21329
899.393	21287
899.513	21344
899.633	21348
899.753	21351
899.873	21180
899.993	21363
900.113	21146
900.232	21393
900.352	21203
900.472	21161
900.591	21039
900.711	21184
900.83	21024
900.95	21142
901.069	21283
901.189	21085
901.308	20773
901.427	20598
901.546	20541
901.665	20731
901.784	20541
901.904	20499
902.023	20332
902.141	20252
902.26	20233
902.379	20240
902.498	20282
902.617	20130
902.735	20214
902.854	20199
902.973	20012
903.091	19940
903.21	19731
903.328	19811
903.446	19795
903.565	19601
903.683	19719
903.801	19422
903.919	19510
904.038	19476
904.156	19468
904.274	19438
904.392	19365
904.51	19232
904.627	19419
904.745	19396
904.863	19495
904.981	19160
905.098	18977
905.216	19012
905.334	19080
905.451	19053
905.569	18947
905.686	19107
905.803	19015
905.921	18734
906.038	18848
906.155	18802
906.272	18688
906.389	18772
906.506	18620
906.623	18574
906.74	18525
906.857	18467
906.974	18365
907.091	18490
907.208	18669
907.324	18650
907.441	18483
907.557	18380
907.674	18296
907.79	18254
907.907	18155
908.023	18315
908.139	18201
908.256	18129
908.372	18087
908.488	18148
908.604	17901
908.72	17977
908.836	17916
908.952	17939
909.068	17920
909.184	18053
909.3	17855
909.415	17973
909.531	17984
909.647	17581
909.762	17695
909.878	17691
909.993	17665
910.108	17592
910.224	17577
910.339	17630
910.454	17524
910.57	17436
910.685	17364
910.8	17604
910.915	17661
911.03	17467
911.145	17254
911.259	17223
911.374	17223
911.489	17162
911.604	16991
911.718	16923
911.833	16968
911.947	16847
912.062	16839
912.176	16900
912.291	16885
912.405	16919
912.519	17197
912.633	17109
912.748	17041
912.862	16927
912.976	16816
913.09	16645
913.204	16637
913.318	16748
913.431	16949
913.545	16858
913.659	16927
913.772	16725
913.886	16580
914	16702
914.113	16561
914.226	16725
914.34	16565
914.453	16424
914.566	16546
914.68	16466
914.793	16314
914.906	16226
915.019	16074
915.132	16040
915.245	16116
915.358	16211
915.47	16112
915.583	16036
915.696	16097
915.809	16238
915.921	16230
916.034	16051
916.146	16002
916.259	16135
916.371	16105
916.483	16150
916.595	15918
916.708	15884
916.82	15892
916.932	15930
917.044	15857
917.156	15827
917.268	15667
917.38	15857
917.491	15709
917.603	15804
917.715	15800
917.826	15861
917.938	15652
918.049	15530
918.161	15774
918.272	15705
918.384	15785
918.495	15713
918.606	15564
918.717	15401
918.828	15466
918.939	15507
919.05	15348
919.161	15473
919.272	15237
919.383	15272
919.494	15519
919.604	15606
919.715	15443
919.826	15363
919.936	15389
920.047	15485
920.157	15443
920.267	15584
920.378	15428
920.488	15454
920.598	15561
920.708	15743
920.818	15382
920.928	15496
921.038	15660
921.148	15739
921.258	15359
921.368	15283
921.477	15169
921.587	15066
921.697	14975
921.806	15161
921.916	14967
922.025	14765
922.134	14887
922.244	14674
922.353	14788
922.462	14644
922.571	14613
922.68	14370
922.789	14427
922.898	14423
923.007	14317
923.116	14461
923.224	14415
923.333	14343
923.442	14290
923.55	14233
923.659	14202
923.767	14275
923.876	14153
923.984	14142
924.092	14058
924.201	14111
924.309	14107
924.417	14084
924.525	14016
924.633	14058
924.741	14792
924.849	13841
924.956	13947
925.064	13841
925.172	13746
925.279	13772
925.387	13845
925.494	13727
925.602	13917
925.709	13830
925.816	13628
925.924	13712
926.031	13742
926.138	13738
926.245	13734
926.352	13586
926.459	13753
926.566	13753
926.673	13605
926.779	13506
926.886	13552
926.993	13339
927.099	13285
927.206	13266
927.312	13228
927.419	13373
927.525	13388
927.631	13285
927.737	13240
927.843	13217
927.95	13027
928.056	13050
928.162	13107
928.267	13160
928.373	13734
928.479	13183
928.585	12985
928.69	13156
928.796	12996
928.901	12958
929.007	12890
929.112	13012
929.218	12909
929.323	12833
929.428	12825
929.533	12977
929.638	12783
929.743	12764
929.848	12825
929.953	12760
930.058	12673
930.163	12502
930.267	12509
930.372	12654
930.477	12418
930.581	12627
930.685	12528
930.79	12311
930.894	12254
930.998	12311
931.103	12502
931.207	12079
931.311	12038
931.415	11893
931.519	11695
931.623	11691
