Data from test_V78500241_1966.txt Node
Date: Fri Mar 25 15:55:25 CST 2022
User: usil
Spectrometer: V785-0024
Trigger mode: 0
Integration Time (sec): 4.000000E-1
Scans to average: 1
Nonlinearity correction enabled: false
Boxcar width: 0
Storing dark spectrum: false
XAxis mode: Wavelengths
Number of Pixels in Spectrum: 1024
>>>>>Begin Spectral Data<<<<<
801.071	28763
801.214	28603
801.356	28443
801.499	28325
801.641	28261
801.783	28276
801.926	28421
802.068	28253
802.211	28192
802.353	28097
802.496	28112
802.638	28135
802.78	27899
802.923	27842
803.065	27759
803.208	28063
803.35	27998
803.492	28013
803.635	28150
803.777	28010
803.919	28261
804.061	28592
804.204	28291
804.346	28120
804.488	28322
804.63	28188
804.773	28055
804.915	28230
805.057	28363
805.199	28166
805.341	28284
805.483	28424
805.626	28394
805.768	28360
805.91	28257
806.052	28268
806.194	28333
806.336	28489
806.478	28363
806.62	28379
806.762	28554
806.904	28569
807.046	28942
807.188	28786
807.33	28782
807.472	28877
807.614	28748
807.756	28850
807.898	28748
808.04	28554
808.182	28596
808.324	28706
808.465	28729
808.607	28862
808.749	29048
808.891	29303
809.033	29246
809.174	29124
809.316	29006
809.458	28987
809.6	29006
809.741	29071
809.883	29235
810.025	29417
810.166	29387
810.308	29231
810.45	29239
810.591	29337
810.733	29155
810.875	29132
811.016	29018
811.158	29025
811.299	29220
811.441	29280
811.582	29223
811.724	29006
811.865	28980
812.007	29052
812.148	28942
812.29	29113
812.431	29109
812.573	29395
812.714	29539
812.855	29471
812.997	29729
813.138	29798
813.279	29718
813.421	29520
813.562	29467
813.703	29414
813.845	29280
813.986	29025
814.127	29025
814.268	28702
814.41	28866
814.551	28843
814.692	28908
814.833	28801
814.974	28717
815.115	28744
815.256	28565
815.397	28618
815.539	28645
815.68	28588
815.821	28481
815.962	28656
816.103	28584
816.244	28375
816.385	28303
816.526	28257
816.666	28082
816.807	27968
816.948	28162
817.089	28097
817.23	28177
817.371	28090
817.512	28093
817.653	28097
817.793	27983
817.934	28036
818.075	27960
818.216	28116
818.356	28074
818.497	28002
818.638	27903
818.778	27892
818.919	27732
819.06	27888
819.2	28017
819.341	28044
819.481	28097
819.622	28200
819.762	28421
819.903	28462
820.043	28234
820.184	28401
820.324	28173
820.465	28272
820.605	28181
820.746	28261
820.886	28044
821.026	28124
821.167	28036
821.307	28322
821.447	28219
821.588	27945
821.728	27937
821.868	27663
822.008	27606
822.149	27648
822.289	27599
822.429	27462
822.569	27173
822.709	27245
822.849	27100
822.99	27112
823.13	26952
823.27	27020
823.41	26956
823.55	26830
823.69	26937
823.83	26819
823.97	26910
824.11	26609
824.25	26651
824.389	26739
824.529	26731
824.669	26777
824.809	26712
824.949	26819
825.089	26708
825.228	26815
825.368	26571
825.508	26579
825.648	26678
825.787	26594
825.927	26636
826.067	26644
826.206	26450
826.346	26705
826.485	26708
826.625	26678
826.765	26640
826.904	26621
827.044	26400
827.183	26355
827.323	26237
827.462	26393
827.601	26343
827.741	26317
827.88	26389
828.02	26103
828.159	26347
828.298	26206
828.437	26381
828.577	26218
828.716	26423
828.855	26218
828.994	26020
829.134	26069
829.273	26008
829.412	25936
829.551	25868
829.69	25875
829.829	25925
829.968	25959
830.107	26122
830.246	26005
830.385	25940
830.524	25970
830.663	25757
830.802	25666
830.941	25674
831.08	25533
831.219	25616
831.357	25708
831.496	25738
831.635	25666
831.774	25468
831.913	25358
832.051	25540
832.19	25324
832.329	25453
832.467	25251
832.606	25091
832.744	25050
832.883	25126
833.022	25236
833.16	25213
833.299	25384
833.437	25247
833.576	25449
833.714	25377
833.852	25384
833.991	25354
834.129	25426
834.267	25343
834.406	25308
834.544	25346
834.682	25381
834.821	25255
834.959	25460
835.097	25346
835.235	25384
835.373	25232
835.511	25339
835.65	25080
835.788	25164
835.926	25088
836.064	25057
836.202	24954
836.34	25099
836.478	25168
836.615	25027
836.753	25194
836.891	25327
837.029	25190
837.167	25251
837.305	25027
837.443	24905
837.58	24871
837.718	25000
837.856	24901
837.993	24905
838.131	25019
838.269	24833
838.406	24863
838.544	24719
838.681	24661
838.819	24505
838.956	24460
839.094	24395
839.231	24475
839.369	24608
839.506	24882
839.643	24673
839.781	24361
839.918	24426
840.055	24372
840.193	24334
840.33	24426
840.467	24372
840.604	24433
840.742	24661
840.879	24205
841.016	24285
841.153	24159
841.29	24441
841.427	24350
841.564	24346
841.701	24346
841.838	24334
841.975	24296
842.112	24243
842.249	24106
842.385	23973
842.522	24319
842.659	24308
842.796	24057
842.933	24167
843.069	24121
843.206	24034
843.343	24186
843.479	24057
843.616	24102
843.752	23889
843.889	23885
844.025	24110
844.162	23813
844.298	23988
844.435	23916
844.571	23897
844.708	23863
844.844	24117
844.98	23916
845.117	24064
845.253	23813
845.389	23733
845.525	23813
845.661	23699
845.798	23535
845.934	23668
846.07	23581
846.206	23573
846.342	23653
846.478	23649
846.614	23497
846.75	23311
846.886	23258
847.022	23398
847.158	23353
847.294	23292
847.429	23387
847.565	23204
847.701	23566
847.837	22949
847.972	22972
848.108	23075
848.244	23029
848.379	22953
848.515	22904
848.65	22961
848.786	22923
848.921	22889
849.057	23052
849.192	22987
849.328	22904
849.463	22976
849.598	22866
849.734	22968
849.869	22755
850.004	22687
850.14	22755
850.275	22603
850.41	22497
850.545	22637
850.68	22618
850.815	22641
850.95	22733
851.085	22797
851.22	22763
851.355	22668
851.49	22637
851.625	22588
851.76	22683
851.895	22618
852.03	22577
852.165	22702
852.299	22713
852.434	22725
852.569	22683
852.703	22637
852.838	22839
852.973	22687
853.107	22740
853.242	22683
853.376	22500
853.511	22367
853.645	22516
853.78	22573
853.914	22584
854.048	22474
854.183	22565
854.317	22630
854.451	22691
854.585	22550
854.72	22462
854.854	22493
854.988	22440
855.122	22459
855.256	22280
855.39	22470
855.524	22531
855.658	22512
855.792	22508
855.926	22565
856.06	22538
856.194	22542
856.327	22485
856.461	22375
856.595	22413
856.729	22356
856.862	22436
856.996	22550
857.13	22573
857.263	22577
857.397	22527
857.53	22489
857.664	22649
857.797	22596
857.931	22580
858.064	22557
858.197	22535
858.331	22577
858.464	22287
858.597	22344
858.731	22481
858.864	22462
858.997	22531
859.13	22538
859.263	22474
859.396	22630
859.529	22508
859.662	22440
859.795	22318
859.928	22440
860.061	22592
860.194	22641
860.327	22596
860.46	22451
860.592	22546
860.725	22664
860.858	22740
860.99	22322
861.123	22348
861.256	22341
861.388	22417
861.521	23288
861.653	22291
861.786	22276
861.918	22230
862.05	22485
862.183	22417
862.315	22421
862.447	22462
862.58	22379
862.712	22246
862.844	22109
862.976	22109
863.108	22253
863.24	22748
863.372	21983
863.504	22261
863.636	22173
863.768	22230
863.9	22131
864.032	22112
864.164	22109
864.296	22223
864.428	22211
864.559	22253
864.691	22173
864.823	22196
864.954	22261
865.086	22200
865.217	22093
865.349	21956
865.48	21994
865.612	22105
865.743	22219
865.875	21964
866.006	22029
866.137	22128
866.269	22051
866.4	22059
866.531	21991
866.662	21918
866.793	21964
866.924	21960
867.055	22059
867.186	21994
867.317	21907
867.448	21994
867.579	21991
867.71	21739
867.841	21972
867.972	21991
868.103	21846
868.233	22006
868.364	21991
868.495	22059
868.625	22249
868.756	22428
868.886	22265
869.017	22211
869.147	22253
869.278	22356
869.408	22360
869.539	22265
869.669	22390
869.799	22390
869.929	22371
870.06	22268
870.19	22546
870.32	22531
870.45	22508
870.58	22630
870.71	22687
870.84	22733
870.97	22607
871.1	22687
871.23	22835
871.36	22664
871.489	22828
871.619	22740
871.749	22911
871.879	22927
872.008	22831
872.138	22850
872.267	22793
872.397	22653
872.526	22656
872.656	22573
872.785	22698
872.915	22858
873.044	22949
873.173	22812
873.303	22908
873.432	22816
873.561	22919
873.69	22786
873.819	22801
873.948	22881
874.077	22812
874.206	22812
874.335	22805
874.464	22942
874.593	23098
874.722	23079
874.851	23170
874.979	23090
875.108	23056
875.237	23056
875.365	23029
875.494	23098
875.623	23060
875.751	23185
875.88	23044
876.008	23094
876.136	23178
876.265	23376
876.393	23562
876.521	23455
876.65	23444
876.778	23547
876.906	23326
877.034	23414
877.162	23531
877.29	23334
877.418	23497
877.546	23360
877.674	23448
877.802	23337
877.93	23315
878.058	23452
878.185	23326
878.313	23356
878.441	23318
878.568	23174
878.696	23364
878.824	23429
878.951	23486
879.079	23615
879.206	23786
879.333	23581
879.461	23433
879.588	23448
879.715	23531
879.842	23600
879.97	23299
880.097	23326
880.224	23220
880.351	23246
880.478	23227
880.605	23178
880.732	23227
880.859	23379
880.986	23254
881.112	23322
881.239	23014
881.366	22953
881.493	22774
881.619	22869
881.746	22759
881.872	22843
881.999	22736
882.125	22679
882.252	22858
882.378	22740
882.505	22816
882.631	22694
882.757	22478
882.883	22516
883.01	22462
883.136	22257
883.262	22246
883.388	22310
883.514	22333
883.64	22436
883.766	22417
883.892	22185
884.018	22329
884.143	22299
884.269	22390
884.395	22188
884.52	22006
884.646	22120
884.772	22048
884.897	21991
885.023	22131
885.148	22097
885.274	22230
885.399	22074
885.524	22010
885.65	22090
885.775	22120
885.9	22090
886.025	22131
886.15	22143
886.275	22010
886.4	21918
886.525	22097
886.65	22055
886.775	22059
886.9	22223
887.025	22234
887.149	21956
887.274	21876
887.399	21850
887.523	21926
887.648	21701
887.773	21751
887.897	21994
888.021	21819
888.146	21728
888.27	21907
888.395	21804
888.519	21876
888.643	21926
888.767	21922
888.891	21709
889.015	21610
889.139	21637
889.263	21564
889.387	21690
889.511	21823
889.635	21759
889.759	21614
889.883	21614
890.006	21637
890.13	21785
890.254	21694
890.377	21420
890.501	21538
890.624	21264
890.748	21412
890.871	21195
890.995	21081
891.118	21077
891.241	21165
891.364	21245
891.488	21256
891.611	21218
891.734	21195
891.857	21119
891.98	21165
892.103	21218
892.226	21127
892.349	21081
892.471	21020
892.594	21013
892.717	21089
892.839	21020
892.962	21150
893.085	21146
893.207	21089
893.33	21055
893.452	20998
893.575	21135
893.697	21047
893.819	21176
893.941	21169
894.064	21237
894.186	21017
894.308	20975
894.43	21165
894.552	21207
894.674	21188
894.796	20861
894.918	20963
895.04	20925
895.161	21066
895.283	21055
895.405	20979
895.526	21074
895.648	21070
895.769	20986
895.891	21077
896.012	21214
896.134	20967
896.255	21135
896.376	20941
896.498	20986
896.619	20941
896.74	20918
896.861	21077
896.982	21386
897.103	21496
897.224	21256
897.345	21283
897.466	21256
897.587	21359
897.708	21363
897.828	21359
897.949	21150
898.07	21028
898.19	21161
898.311	21268
898.431	21203
898.552	21416
898.672	21283
898.792	21367
898.913	21119
899.033	21108
899.153	21024
899.273	20933
899.393	21024
899.513	21043
899.633	21047
899.753	21036
899.873	20880
899.993	20986
900.113	20937
900.232	20979
900.352	20830
900.472	20830
900.591	20765
900.711	20792
900.83	20697
900.95	20762
901.069	20739
901.189	20568
901.308	20473
901.427	20374
901.546	20412
901.665	20313
901.784	20324
901.904	20172
902.023	20202
902.141	19894
902.26	19940
902.379	19906
902.498	19833
902.617	19940
902.735	19833
902.854	19769
902.973	19753
903.091	19483
903.21	19552
903.328	19468
903.446	19411
903.565	19247
903.683	19213
903.801	19160
903.919	19160
904.038	19179
904.156	19072
904.274	19141
904.392	18947
904.51	18977
904.627	19088
904.745	19069
904.863	19027
904.981	18829
905.098	18730
905.216	18661
905.334	18711
905.451	18700
905.569	18688
905.686	18681
905.803	18620
905.921	18414
906.038	18597
906.155	18528
906.272	18384
906.389	18479
906.506	18266
906.623	18281
906.74	18247
906.857	18117
906.974	18095
907.091	18486
907.208	18209
907.324	18330
907.441	18140
907.557	18030
907.674	17927
907.79	17836
907.907	17973
908.023	17950
908.139	17851
908.256	17874
908.372	17798
908.488	17863
908.604	17707
908.72	17665
908.836	17604
908.952	17680
909.068	17623
909.184	17756
909.3	17699
909.415	17809
909.531	17817
909.647	17334
909.762	17379
909.878	17284
909.993	17410
910.108	17311
910.224	17345
910.339	17383
910.454	17197
910.57	17132
910.685	17079
910.8	17334
910.915	17242
911.03	17140
911.145	16900
911.259	16900
911.374	16957
911.489	16805
911.604	16774
911.718	16679
911.833	16641
911.947	16512
912.062	16432
912.176	16744
912.291	16675
912.405	16630
912.519	16850
912.633	16885
912.748	16649
912.862	16588
912.976	16493
913.09	16348
913.204	16413
913.318	16341
913.431	16546
913.545	16527
913.659	16634
913.772	16440
913.886	16249
914	16211
914.113	16371
914.226	16497
914.34	16295
914.453	16116
914.566	16276
914.68	16032
914.793	16150
914.906	15975
915.019	15876
915.132	15747
915.245	15789
915.358	15926
915.47	15850
915.583	15854
915.696	15865
915.809	16013
915.921	15960
916.034	15743
916.146	15717
916.259	15701
916.371	15774
916.483	15728
916.595	15774
916.708	15667
916.82	15599
916.932	15523
917.044	15610
917.156	15641
917.268	15481
917.38	15519
917.491	15420
917.603	15389
917.715	15386
917.826	15603
917.938	15454
918.049	15348
918.161	15428
918.272	15443
918.384	15431
918.495	15431
918.606	15287
918.717	15157
918.828	15184
918.939	15214
919.05	15150
919.161	15066
919.272	15036
919.383	15017
919.494	15211
919.604	15374
919.715	15207
919.826	15123
919.936	15195
920.047	15192
920.157	15226
920.267	15233
920.378	15112
920.488	15199
920.598	15336
920.708	15458
920.818	15355
920.928	15298
921.038	15477
921.148	15450
921.258	15097
921.368	15001
921.477	14963
921.587	14887
921.697	14807
921.806	14891
921.916	14731
922.025	14495
922.134	14533
922.244	14484
922.353	14708
922.462	14442
922.571	14370
922.68	14153
922.789	14176
922.898	14199
923.007	14176
923.116	14115
923.224	14119
923.333	14145
923.442	13913
923.55	13963
923.659	14016
923.767	14081
923.876	13814
923.984	13997
924.092	13849
924.201	13791
924.309	13883
924.417	13822
924.525	13799
924.633	13837
924.741	14693
924.849	13628
924.956	13689
925.064	13658
925.172	13544
925.279	13499
925.387	13609
925.494	13540
925.602	13753
925.709	13628
925.816	13518
925.924	13362
926.031	13571
926.138	13438
926.245	13510
926.352	13384
926.459	13506
926.566	13552
926.673	13407
926.779	13217
926.886	13247
926.993	13137
927.099	13103
927.206	13004
927.312	13091
927.419	13122
927.525	13122
927.631	13126
927.737	12943
927.843	12981
927.95	12760
928.056	12844
928.162	12844
928.267	12882
928.373	13476
928.479	13027
928.585	12677
928.69	12863
928.796	12738
928.901	12719
929.007	12631
929.112	12772
929.218	12665
929.323	12654
929.428	12551
929.533	12681
929.638	12582
929.743	12452
929.848	12555
929.953	12582
930.058	12365
930.163	12315
930.267	12361
930.372	12380
930.477	12270
930.581	12433
930.685	12296
930.79	12190
930.894	12125
930.998	12041
931.103	12239
931.207	11885
931.311	11885
931.415	11718
931.519	11532
931.623	11528
