Data from test_V78500241_729.txt Node
Date: Fri Mar 25 15:46:51 CST 2022
User: usil
Spectrometer: V785-0024
Trigger mode: 0
Integration Time (sec): 4.000000E-1
Scans to average: 1
Nonlinearity correction enabled: false
Boxcar width: 0
Storing dark spectrum: false
XAxis mode: Wavelengths
Number of Pixels in Spectrum: 1024
>>>>>Begin Spectral Data<<<<<
801.071	28295
801.214	28051
801.356	27857
801.499	27854
801.641	27728
801.783	27793
801.926	27850
802.068	27797
802.211	27682
802.353	27557
802.496	27405
802.638	27355
802.78	27317
802.923	27329
803.065	27416
803.208	27397
803.35	27378
803.492	27667
803.635	27542
803.777	27382
803.919	27587
804.061	27945
804.204	27736
804.346	27511
804.488	27496
804.63	27557
804.773	27416
804.915	27545
805.057	27663
805.199	27606
805.341	27743
805.483	27743
805.626	27713
805.768	27625
805.91	27717
806.052	27785
806.194	27633
806.336	27907
806.478	27854
806.62	27709
806.762	27861
806.904	28036
807.046	28219
807.188	28261
807.33	28196
807.472	28287
807.614	28169
807.756	28070
807.898	28097
808.04	28059
808.182	28059
808.324	28048
808.465	28063
808.607	28287
808.749	28504
808.891	28535
809.033	28611
809.174	28535
809.316	28333
809.458	28382
809.6	28455
809.741	28596
809.883	28694
810.025	28675
810.166	28801
810.308	28752
810.45	28668
810.591	28687
810.733	28455
810.875	28318
811.016	28447
811.158	28284
811.299	28634
811.441	28679
811.582	28497
811.724	28462
811.865	28413
812.007	28413
812.148	28401
812.29	28531
812.431	28748
812.573	28793
812.714	28797
812.855	29003
812.997	29113
813.138	29246
813.279	29064
813.421	29083
813.562	28888
813.703	28748
813.845	28843
813.986	28401
814.127	28367
814.268	28120
814.41	28253
814.551	28055
814.692	28147
814.833	28135
814.974	28048
815.115	28204
815.256	28215
815.397	27991
815.539	28040
815.68	27979
815.821	27892
815.962	28029
816.103	27827
816.244	27751
816.385	27816
816.526	27770
816.666	27553
816.807	27492
816.948	27386
817.089	27675
817.23	27473
817.371	27374
817.512	27511
817.653	27507
817.793	27412
817.934	27382
818.075	27466
818.216	27454
818.356	27511
818.497	27363
818.638	27142
818.778	27157
818.919	27279
819.06	27279
819.2	27412
819.341	27416
819.481	27386
819.622	27553
819.762	27736
819.903	27759
820.043	27595
820.184	27679
820.324	27511
820.465	27572
820.605	27568
820.746	27523
820.886	27443
821.026	27633
821.167	27652
821.307	27614
821.447	27488
821.588	27469
821.728	27317
821.868	26948
822.008	27100
822.149	26864
822.289	26754
822.429	26750
822.569	26648
822.709	26625
822.849	26461
822.99	26381
823.13	26313
823.27	26332
823.41	26377
823.55	26103
823.69	26191
823.83	26252
823.97	26267
824.11	26046
824.25	26119
824.389	26153
824.529	26225
824.669	26134
824.809	26218
824.949	26153
825.089	26218
825.228	26122
825.368	25951
825.508	25856
825.648	25955
825.787	26005
825.927	26176
826.067	25974
826.206	25909
826.346	25974
826.485	26012
826.625	25944
826.765	26005
826.904	25982
827.044	25784
827.183	25666
827.323	25628
827.462	25761
827.601	25693
827.741	25715
827.88	25681
828.02	25635
828.159	25624
828.298	25799
828.437	25689
828.577	25643
828.716	25723
828.855	25651
828.994	25479
829.134	25327
829.273	25449
829.412	25320
829.551	25365
829.69	25324
829.829	25369
829.968	25362
830.107	25422
830.246	25426
830.385	25251
830.524	25388
830.663	25270
830.802	25145
830.941	24943
831.08	24977
831.219	25187
831.357	25084
831.496	25171
831.635	25103
831.774	24867
831.913	24859
832.051	24760
832.19	24673
832.329	24837
832.467	24700
832.606	24585
832.744	24631
832.883	24681
833.022	24806
833.16	24578
833.299	24734
833.437	24745
833.576	24707
833.714	24722
833.852	24715
833.991	24646
834.129	24920
834.267	24734
834.406	24673
834.544	24840
834.682	24650
834.821	24692
834.959	24791
835.097	24696
835.235	24757
835.373	24684
835.511	24669
835.65	24483
835.788	24521
835.926	24509
836.064	24254
836.202	24369
836.34	24593
836.478	24589
836.615	24528
836.753	24551
836.891	24627
837.029	24551
837.167	24563
837.305	24452
837.443	24426
837.58	24273
837.718	24532
837.856	24388
837.993	24365
838.131	24315
838.269	24289
838.406	24213
838.544	24300
838.681	24030
838.819	24007
838.956	23786
839.094	23824
839.231	23851
839.369	24087
839.506	24216
839.643	24045
839.781	23821
839.918	23775
840.055	23935
840.193	23786
840.33	23824
840.467	23824
840.604	23836
840.742	24106
840.879	23779
841.016	23764
841.153	23661
841.29	23824
841.427	23665
841.564	23771
841.701	23680
841.838	23710
841.975	23535
842.112	23756
842.249	23585
842.385	23440
842.522	23615
842.659	23646
842.796	23535
842.933	23600
843.069	23440
843.206	23497
843.343	23604
843.479	23497
843.616	23478
843.752	23284
843.889	23197
844.025	23486
844.162	23250
844.298	23337
844.435	23372
844.571	23208
844.708	23383
844.844	23516
844.98	23334
845.117	23269
845.253	23341
845.389	23242
845.525	23174
845.661	23159
845.798	22999
845.934	23090
846.07	22999
846.206	23010
846.342	23094
846.478	22923
846.614	22850
846.75	22664
846.886	22649
847.022	22771
847.158	22782
847.294	22786
847.429	22854
847.565	22778
847.701	22919
847.837	22573
847.972	22470
848.108	22607
848.244	22478
848.379	22443
848.515	22310
848.65	22329
848.786	22398
848.921	22360
849.057	22481
849.192	22485
849.328	22440
849.463	22200
849.598	22276
849.734	22234
849.869	22333
850.004	22158
850.14	22124
850.275	22204
850.41	22025
850.545	21956
850.68	22013
850.815	22185
850.95	22013
851.085	22196
851.22	22169
851.355	22082
851.49	22074
851.625	22097
851.76	22036
851.895	22067
852.03	22078
852.165	22139
852.299	22067
852.434	22135
852.569	22143
852.703	22101
852.838	22192
852.973	22223
853.107	22166
853.242	22082
853.376	21968
853.511	21720
853.645	21899
853.78	22036
853.914	21812
854.048	21922
854.183	21899
854.317	21934
854.451	22086
854.585	21854
854.72	21846
854.854	21907
854.988	21899
855.122	21823
855.256	21846
855.39	21907
855.524	21972
855.658	21964
855.792	21880
855.926	21918
856.06	21884
856.194	22059
856.327	22010
856.461	21804
856.595	21926
856.729	21926
856.862	21968
856.996	21941
857.13	21937
857.263	21994
857.397	21975
857.53	21880
857.664	22093
857.797	21918
857.931	22032
858.064	21804
858.197	22013
858.331	21930
858.464	21770
858.597	21755
858.731	21865
858.864	21850
858.997	21983
859.13	22029
859.263	21994
859.396	21934
859.529	21960
859.662	21964
859.795	21934
859.928	21987
860.061	22048
860.194	22150
860.327	22006
860.46	21953
860.592	22029
860.725	22109
860.858	22082
860.99	21934
861.123	21930
861.256	21949
861.388	21835
861.521	22584
861.653	21816
861.786	21747
861.918	21694
862.05	21846
862.183	21766
862.315	21835
862.447	21945
862.58	21823
862.712	21686
862.844	21538
862.976	21542
863.108	21671
863.24	22135
863.372	21583
863.504	21564
863.636	21644
863.768	21599
863.9	21701
864.032	21545
864.164	21572
864.296	21701
864.428	21747
864.559	21705
864.691	21713
864.823	21606
864.954	21652
865.086	21549
865.217	21389
865.349	21344
865.48	21447
865.612	21500
865.743	21660
865.875	21538
866.006	21526
866.137	21561
866.269	21538
866.4	21496
866.531	21454
866.662	21488
866.793	21382
866.924	21424
867.055	21325
867.186	21382
867.317	21450
867.448	21363
867.579	21447
867.71	21401
867.841	21367
867.972	21405
868.103	21351
868.233	21458
868.364	21481
868.495	21545
868.625	21606
868.756	21918
868.886	21530
869.017	21644
869.147	21701
869.278	21774
869.408	21652
869.539	21709
869.669	21816
869.799	21671
869.929	21720
870.06	21739
870.19	21960
870.32	21915
870.45	22131
870.58	22177
870.71	22116
870.84	22150
870.97	22135
871.1	22029
871.23	22268
871.36	22192
871.489	22059
871.619	22120
871.749	22166
871.879	22363
872.008	22337
872.138	22341
872.267	22246
872.397	22173
872.526	22090
872.656	22002
872.785	22040
872.915	22409
873.044	22356
873.173	22211
873.303	22284
873.432	22223
873.561	22398
873.69	22299
873.819	22150
873.948	22394
874.077	22363
874.206	22223
874.335	22238
874.464	22379
874.593	22527
874.722	22382
874.851	22603
874.979	22554
875.108	22504
875.237	22481
875.365	22356
875.494	22424
875.623	22573
875.751	22573
875.88	22466
876.008	22664
876.136	22668
876.265	22953
876.393	22991
876.521	22908
876.65	22984
876.778	22968
876.906	22805
877.034	22835
877.162	22850
877.29	22721
877.418	22854
877.546	22790
877.674	22850
877.802	22797
877.93	22725
878.058	22778
878.185	22721
878.313	22729
878.441	22748
878.568	22740
878.696	22805
878.824	22767
878.951	22839
879.079	23075
879.206	23242
879.333	22828
879.461	22911
879.588	23029
879.715	22987
879.842	22961
879.97	22934
880.097	22637
880.224	22599
880.351	22767
880.478	22763
880.605	22630
880.732	22744
880.859	22847
880.986	22573
881.112	22683
881.239	22557
881.366	22371
881.493	22348
881.619	22181
881.746	22162
881.872	22280
881.999	22371
882.125	22139
882.252	22219
882.378	22150
882.505	22314
882.631	22177
882.757	21953
882.883	22013
883.01	22002
883.136	21888
883.262	21835
883.388	21793
883.514	21907
883.64	21892
883.766	21934
883.892	21717
884.018	21652
884.143	21869
884.269	21842
884.395	21614
884.52	21500
884.646	21511
884.772	21393
884.897	21591
885.023	21652
885.148	21618
885.274	21717
885.399	21717
885.524	21542
885.65	21526
885.775	21534
885.9	21587
886.025	21736
886.15	21686
886.275	21504
886.4	21477
886.525	21515
886.65	21485
886.775	21435
886.9	21713
887.025	21713
887.149	21515
887.274	21351
887.399	21408
887.523	21310
887.648	21329
887.773	21241
887.897	21382
888.021	21279
888.146	21077
888.27	21454
888.395	21466
888.519	21397
888.643	21348
888.767	21359
888.891	21157
889.015	21157
889.139	21138
889.263	21188
889.387	21146
889.511	21382
889.635	21207
889.759	21093
889.883	21211
890.006	21039
890.13	21283
890.254	21062
890.377	21036
890.501	20910
890.624	20800
890.748	20998
890.871	20739
890.995	20705
891.118	20511
891.241	20765
891.364	20769
891.488	20891
891.611	20712
891.734	20705
891.857	20819
891.98	20670
892.103	20659
892.226	20807
892.349	20594
892.471	20598
892.594	20655
892.717	20678
892.839	20701
892.962	20530
893.085	20587
893.207	20484
893.33	20579
893.452	20469
893.575	20655
893.697	20541
893.819	20804
893.941	20895
894.064	20697
894.186	20533
894.308	20587
894.43	20674
894.552	20727
894.674	20526
894.796	20377
894.918	20556
895.04	20621
895.161	20552
895.283	20606
895.405	20476
895.526	20636
895.648	20499
895.769	20598
895.891	20739
896.012	20659
896.134	20621
896.255	20621
896.376	20594
896.498	20549
896.619	20648
896.74	20537
896.861	20606
896.982	20929
897.103	21028
897.224	20838
897.345	20788
897.466	20750
897.587	20792
897.708	20960
897.828	20727
897.949	20750
898.07	20617
898.19	20708
898.311	20731
898.431	20815
898.552	20754
898.672	20796
898.792	20845
898.913	20765
899.033	20663
899.153	20632
899.273	20427
899.393	20427
899.513	20522
899.633	20556
899.753	20438
899.873	20423
899.993	20598
900.113	20454
900.232	20514
900.352	20522
900.472	20393
900.591	20214
900.711	20278
900.83	20191
900.95	20484
901.069	20389
901.189	20229
901.308	19879
901.427	19860
901.546	19909
901.665	19883
901.784	19894
901.904	19814
902.023	19662
902.141	19521
902.26	19365
902.379	19586
902.498	19358
902.617	19304
902.735	19297
902.854	19285
902.973	19259
903.091	19004
903.21	19042
903.328	19046
903.446	18932
903.565	18863
903.683	18920
903.801	18715
903.919	18802
904.038	18795
904.156	18582
904.274	18734
904.392	18589
904.51	18597
904.627	18623
904.745	18574
904.863	18715
904.981	18460
905.098	18308
905.216	18304
905.334	18281
905.451	18281
905.569	18350
905.686	18380
905.803	18327
905.921	18121
906.038	18049
906.155	18072
906.272	17885
906.389	17996
906.506	17893
906.623	17859
906.74	17771
906.857	17802
906.974	17649
907.091	17916
907.208	17973
907.324	17840
907.441	17756
907.557	17638
907.674	17577
907.79	17425
907.907	17463
908.023	17551
908.139	17486
908.256	17551
908.372	17459
908.488	17227
908.604	17356
908.72	17193
908.836	17337
908.952	17322
909.068	17235
909.184	17303
909.3	17273
909.415	17265
909.531	17220
909.647	16934
909.762	16953
909.878	16942
909.993	16889
910.108	16923
910.224	16908
910.339	16915
910.454	16889
910.57	16828
910.685	16774
910.8	16930
910.915	16934
911.03	16645
911.145	16489
911.259	16470
911.374	16523
911.489	16523
911.604	16390
911.718	16325
911.833	16253
911.947	16166
912.062	16128
912.176	16348
912.291	16325
912.405	16310
912.519	16459
912.633	16207
912.748	16424
912.862	16234
912.976	16093
913.09	16029
913.204	16044
913.318	16010
913.431	16147
913.545	16162
913.659	16112
913.772	16086
913.886	15987
914	15838
914.113	15991
914.226	15964
914.34	15991
914.453	15751
914.566	15865
914.68	15671
914.793	15667
914.906	15488
915.019	15500
915.132	15473
915.245	15488
915.358	15435
915.47	15564
915.583	15393
915.696	15466
915.809	15599
915.921	15591
916.034	15443
916.146	15408
916.259	15340
916.371	15530
916.483	15485
916.595	15207
916.708	15344
916.82	15272
916.932	15393
917.044	15302
917.156	15222
917.268	15123
917.38	15184
917.491	15024
917.603	15089
917.715	15298
917.826	15169
917.938	15154
918.049	14979
918.161	15047
918.272	15195
918.384	15211
918.495	15051
918.606	14960
918.717	14754
918.828	14921
918.939	14914
919.05	14743
919.161	14830
919.272	14549
919.383	14731
919.494	14914
919.604	15028
919.715	14864
919.826	14845
919.936	14819
920.047	14899
920.157	14678
920.267	14990
920.378	14796
920.488	14762
920.598	14994
920.708	15051
920.818	14941
920.928	14921
921.038	15127
921.148	15100
921.258	14823
921.368	14651
921.477	14568
921.587	14629
921.697	14461
921.806	14610
921.916	14488
922.025	14328
922.134	14225
922.244	14168
922.353	14157
922.462	14046
922.571	13982
922.68	13841
922.789	13879
922.898	13856
923.007	13780
923.116	13849
923.224	13788
923.333	13852
923.442	13636
923.55	13590
923.659	13704
923.767	13784
923.876	13662
923.984	13655
924.092	13510
924.201	13563
924.309	13540
924.417	13620
924.525	13472
924.633	13487
924.741	14408
924.849	13381
924.956	13476
925.064	13263
925.172	13209
925.279	13244
925.387	13324
925.494	13259
925.602	13301
925.709	13282
925.816	13065
925.924	13164
926.031	13316
926.138	13179
926.245	13149
926.352	13050
926.459	13251
926.566	13198
926.673	13110
926.779	12962
926.886	12981
926.993	12798
927.099	12856
927.206	12757
927.312	12681
927.419	12856
927.525	12779
927.631	12776
927.737	12589
927.843	12669
927.95	12559
928.056	12604
928.162	12563
928.267	12525
928.373	13293
928.479	12654
928.585	12460
928.69	12506
928.796	12608
928.901	12498
929.007	12395
929.112	12585
929.218	12448
929.323	12346
929.428	12384
929.533	12471
929.638	12262
929.743	12254
929.848	12342
929.953	12304
930.058	12133
930.163	11992
930.267	12140
930.372	12155
930.477	12068
930.581	12102
930.685	12041
930.79	11973
930.894	11984
930.998	11874
931.103	11904
931.207	11649
931.311	11547
931.415	11433
931.519	11353
931.623	11273
