Data from test_V78500241_474.txt Node
Date: Fri Mar 25 15:45:05 CST 2022
User: usil
Spectrometer: V785-0024
Trigger mode: 0
Integration Time (sec): 4.000000E-1
Scans to average: 1
Nonlinearity correction enabled: false
Boxcar width: 0
Storing dark spectrum: false
XAxis mode: Wavelengths
Number of Pixels in Spectrum: 1024
>>>>>Begin Spectral Data<<<<<
801.071	27724
801.214	27663
801.356	27389
801.499	27351
801.641	27317
801.783	27275
801.926	27294
802.068	27272
802.211	27142
802.353	27009
802.496	26963
802.638	26788
802.78	26880
802.923	26899
803.065	27051
803.208	26842
803.35	26811
803.492	27074
803.635	27051
803.777	26849
803.919	26956
804.061	27393
804.204	27104
804.346	27051
804.488	26967
804.63	26891
804.773	26994
804.915	26921
805.057	27237
805.199	26944
805.341	27157
805.483	27074
805.626	27226
805.768	27176
805.91	27089
806.052	27146
806.194	27108
806.336	27268
806.478	27154
806.62	27199
806.762	27104
806.904	27443
807.046	27686
807.188	27473
807.33	27625
807.472	27568
807.614	27492
807.756	27473
807.898	27450
808.04	27363
808.182	27412
808.324	27291
808.465	27443
808.607	27519
808.749	27663
808.891	27854
809.033	27968
809.174	27899
809.316	27747
809.458	27880
809.6	27804
809.741	27934
809.883	27922
810.025	27968
810.166	28036
810.308	27907
810.45	28181
810.591	27956
810.733	27854
810.875	27705
811.016	27717
811.158	27625
811.299	27907
811.441	27880
811.582	27960
811.724	27808
811.865	27625
812.007	27854
812.148	27713
812.29	27713
812.431	27949
812.573	28097
812.714	28097
812.855	28303
812.997	28470
813.138	28428
813.279	28398
813.421	28344
813.562	28242
813.703	28112
813.845	27922
813.986	27759
814.127	27420
814.268	27572
814.41	27416
814.551	27462
814.692	27519
814.833	27443
814.974	27496
815.115	27351
815.256	27279
815.397	27332
815.539	27382
815.68	27207
815.821	27245
815.962	27279
816.103	27173
816.244	27074
816.385	27013
816.526	26967
816.666	26849
816.807	26587
816.948	26762
817.089	26800
817.23	26705
817.371	26663
817.512	26636
817.653	26731
817.793	26693
817.934	26667
818.075	26830
818.216	26697
818.356	26689
818.497	26575
818.638	26320
818.778	26434
818.919	26457
819.06	26594
819.2	26602
819.341	26636
819.481	26788
819.622	26887
819.762	27009
819.903	27001
820.043	27001
820.184	26944
820.324	26864
820.465	26937
820.605	26830
820.746	26796
820.886	26644
821.026	26899
821.167	26845
821.307	26963
821.447	26785
821.588	26689
821.728	26442
821.868	26465
822.008	26271
822.149	26122
822.289	26180
822.429	25951
822.569	25852
822.709	25814
822.849	25715
822.99	25643
823.13	25575
823.27	25616
823.41	25575
823.55	25255
823.69	25578
823.83	25510
823.97	25225
824.11	25308
824.25	25247
824.389	25206
824.529	25415
824.669	25354
824.809	25377
824.949	25346
825.089	25487
825.228	25407
825.368	25225
825.508	25103
825.648	25126
825.787	25213
825.927	25175
826.067	25000
826.206	25236
826.346	25141
826.485	25244
826.625	25213
826.765	25168
826.904	25202
827.044	25046
827.183	24943
827.323	24840
827.462	24954
827.601	24932
827.741	24856
827.88	24886
828.02	24745
828.159	24772
828.298	24894
828.437	24882
828.577	24601
828.716	24909
828.855	24802
828.994	24464
829.134	24407
829.273	24681
829.412	24418
829.551	24391
829.69	24532
829.829	24570
829.968	24726
830.107	24574
830.246	24467
830.385	24505
830.524	24532
830.663	24247
830.802	24251
830.941	24235
831.08	24167
831.219	24194
831.357	24258
831.496	24437
831.635	24159
831.774	24072
831.913	24102
832.051	23847
832.19	24011
832.329	23904
832.467	23794
832.606	23821
832.744	23809
832.883	23741
833.022	23760
833.16	23707
833.299	23729
833.437	23840
833.576	23874
833.714	23855
833.852	24038
833.991	23931
834.129	23939
834.267	23904
834.406	23897
834.544	23923
834.682	24015
834.821	23828
834.959	24018
835.097	23726
835.235	23885
835.373	23912
835.511	23817
835.65	23756
835.788	23783
835.926	23661
836.064	23505
836.202	23653
836.34	23775
836.478	23737
836.615	23722
836.753	23684
836.891	23786
837.029	23733
837.167	23691
837.305	23684
837.443	23634
837.58	23463
837.718	23608
837.856	23524
837.993	23474
838.131	23383
838.269	23524
838.406	23414
838.544	23429
838.681	23242
838.819	23337
838.956	23052
839.094	23041
839.231	23159
839.369	23220
839.506	23410
839.643	23296
839.781	22938
839.918	23033
840.055	23048
840.193	22896
840.33	22930
840.467	22953
840.604	23067
840.742	23189
840.879	22767
841.016	22873
841.153	22965
841.29	23060
841.427	22824
841.564	22965
841.701	23033
841.838	22930
841.975	22767
842.112	22790
842.249	22782
842.385	22786
842.522	22934
842.659	22847
842.796	22797
842.933	22752
843.069	22668
843.206	22660
843.343	22797
843.479	22805
843.616	22691
843.752	22577
843.889	22580
844.025	22519
844.162	22360
844.298	22596
844.435	22497
844.571	22432
844.708	22577
844.844	22561
844.98	22584
845.117	22535
845.253	22432
845.389	22268
845.525	22318
845.661	22325
845.798	22158
845.934	22386
846.07	22097
846.206	22261
846.342	22261
846.478	22185
846.614	22150
846.75	21766
846.886	21884
847.022	21945
847.158	21979
847.294	22029
847.429	21975
847.565	21892
847.701	22128
847.837	21641
847.972	21587
848.108	21793
848.244	21568
848.379	21572
848.515	21424
848.65	21454
848.786	21496
848.921	21614
849.057	21610
849.192	21587
849.328	21462
849.463	21526
849.598	21485
849.734	21378
849.869	21329
850.004	21268
850.14	21260
850.275	21359
850.41	21298
850.545	21233
850.68	21249
850.815	21260
850.95	21199
851.085	21386
851.22	21428
851.355	21397
851.49	21351
851.625	21256
851.76	21226
851.895	21138
852.03	21135
852.165	21142
852.299	21211
852.434	21378
852.569	21363
852.703	21302
852.838	21336
852.973	21252
853.107	21298
853.242	21302
853.376	21131
853.511	20986
853.645	21051
853.78	21142
853.914	21062
854.048	21131
854.183	21051
854.317	21218
854.451	21283
854.585	21005
854.72	21142
854.854	21157
854.988	21096
855.122	21093
855.256	20960
855.39	21009
855.524	21180
855.658	21085
855.792	21096
855.926	21131
856.06	21096
856.194	21150
856.327	21154
856.461	21036
856.595	20982
856.729	21043
856.862	21214
856.996	21199
857.13	21173
857.263	21268
857.397	21173
857.53	21142
857.664	21184
857.797	21127
857.931	21135
858.064	21119
858.197	21169
858.331	21028
858.464	21043
858.597	21043
858.731	21024
858.864	21066
858.997	20963
859.13	21150
859.263	21036
859.396	21062
859.529	21108
859.662	21001
859.795	21070
859.928	21146
860.061	21222
860.194	21397
860.327	21233
860.46	21093
860.592	21252
860.725	21173
860.858	21207
860.99	21180
861.123	21013
861.256	20986
861.388	21055
861.521	21766
861.653	20960
861.786	20933
861.918	21070
862.05	21036
862.183	20990
862.315	21085
862.447	21108
862.58	20952
862.712	20807
862.844	20731
862.976	20902
863.108	20800
863.24	21359
863.372	20785
863.504	20754
863.636	20785
863.768	20830
863.9	20689
864.032	20686
864.164	20762
864.296	20864
864.428	20887
864.559	20735
864.691	20811
864.823	20788
864.954	20663
865.086	20754
865.217	20819
865.349	20602
865.48	20697
865.612	20830
865.743	20686
865.875	20724
866.006	20727
866.137	20686
866.269	20743
866.4	20697
866.531	20587
866.662	20571
866.793	20644
866.924	20640
867.055	20686
867.186	20651
867.317	20674
867.448	20427
867.579	20644
867.71	20594
867.841	20686
867.972	20640
868.103	20682
868.233	20678
868.364	20564
868.495	20708
868.625	20906
868.756	20937
868.886	20785
869.017	20754
869.147	20994
869.278	20910
869.408	20967
869.539	20804
869.669	21001
869.799	20986
869.929	20944
870.06	21036
870.19	21195
870.32	21203
870.45	21230
870.58	21283
870.71	21435
870.84	21374
870.97	21298
871.1	21275
871.23	21473
871.36	21500
871.489	21397
871.619	21268
871.749	21515
871.879	21538
872.008	21534
872.138	21496
872.267	21401
872.397	21336
872.526	21325
872.656	21382
872.785	21317
872.915	21564
873.044	21606
873.173	21507
873.303	21595
873.432	21572
873.561	21583
873.69	21557
873.819	21507
873.948	21530
874.077	21538
874.206	21466
874.335	21511
874.464	21679
874.593	21671
874.722	21724
874.851	21694
874.979	21812
875.108	21770
875.237	21599
875.365	21572
875.494	21728
875.623	21770
875.751	21625
875.88	21705
876.008	21937
876.136	21876
876.265	22162
876.393	22287
876.521	22059
876.65	22219
876.778	22109
876.906	22116
877.034	22097
877.162	22063
877.29	22032
877.418	22230
877.546	22101
877.674	22025
877.802	22067
877.93	22128
878.058	22063
878.185	22006
878.313	22116
878.441	22032
878.568	21937
878.696	22021
878.824	22120
878.951	22147
879.079	22169
879.206	22421
879.333	22261
879.461	22048
879.588	22200
879.715	22196
879.842	22375
879.97	22265
880.097	21762
880.224	21861
880.351	22048
880.478	21949
880.605	21835
880.732	21854
880.859	22234
880.986	21953
881.112	21888
881.239	21854
881.366	21591
881.493	21603
881.619	21382
881.746	21519
881.872	21618
881.999	21511
882.125	21477
882.252	21519
882.378	21477
882.505	21557
882.631	21329
882.757	21233
882.883	21180
883.01	21192
883.136	21146
883.262	21066
883.388	21039
883.514	21154
883.64	21203
883.766	21085
883.892	20864
884.018	20982
884.143	20986
884.269	21226
884.395	20937
884.52	20758
884.646	20883
884.772	20762
884.897	20743
885.023	20857
885.148	20842
885.274	21020
885.399	21001
885.524	20857
885.65	20941
885.775	20853
885.9	20800
886.025	20933
886.15	21051
886.275	20765
886.4	20777
886.525	20781
886.65	20750
886.775	20842
886.9	20857
887.025	20994
887.149	20682
887.274	20754
887.399	20815
887.523	20590
887.648	20499
887.773	20549
887.897	20625
888.021	20648
888.146	20457
888.27	20667
888.395	20587
888.519	20571
888.643	20617
888.767	20655
888.891	20461
889.015	20278
889.139	20465
889.263	20317
889.387	20469
889.511	20598
889.635	20507
889.759	20263
889.883	20412
890.006	20465
890.13	20404
890.254	20393
890.377	20385
890.501	20122
890.624	20043
890.748	20233
890.871	19921
890.995	19989
891.118	19883
891.241	19932
891.364	19982
891.488	20107
891.611	20050
891.734	20016
891.857	20122
891.98	20058
892.103	20024
892.226	20001
892.349	19947
892.471	19769
892.594	19898
892.717	20001
892.839	19898
892.962	19875
893.085	19875
893.207	19818
893.33	19856
893.452	19826
893.575	19959
893.697	19803
893.819	20008
893.941	20084
894.064	20008
894.186	19700
894.308	19803
894.43	19997
894.552	19993
894.674	20092
894.796	19742
894.918	19822
895.04	19727
895.161	19906
895.283	19951
895.405	19913
895.526	19860
895.648	19814
895.769	19925
895.891	19913
896.012	20084
896.134	19963
896.255	19875
896.376	19826
896.498	19894
896.619	19993
896.74	19738
896.861	20039
896.982	20210
897.103	20374
897.224	20103
897.345	20142
897.466	20111
897.587	20134
897.708	20252
897.828	20168
897.949	20149
898.07	19925
898.19	20115
898.311	20073
898.431	19989
898.552	20073
898.672	20210
898.792	20199
898.913	20164
899.033	19883
899.153	19947
899.273	19818
899.393	19928
899.513	19974
899.633	19959
899.753	19845
899.873	19685
899.993	19868
900.113	19833
900.232	19868
900.352	19723
900.472	19731
900.591	19628
900.711	19674
900.83	19658
900.95	19757
901.069	19765
901.189	19632
901.308	19304
901.427	19255
901.546	19274
901.665	19263
901.784	19247
901.904	19042
902.023	19053
902.141	18806
902.26	18829
902.379	18840
902.498	18806
902.617	18711
902.735	18745
902.854	18783
902.973	18661
903.091	18452
903.21	18361
903.328	18422
903.446	18247
903.565	18353
903.683	18330
903.801	18114
903.919	18232
904.038	18087
904.156	17977
904.274	18045
904.392	17916
904.51	17870
904.627	17946
904.745	18030
904.863	17996
904.981	17798
905.098	17748
905.216	17623
905.334	17748
905.451	17703
905.569	17585
905.686	17790
905.803	17649
905.921	17452
906.038	17630
906.155	17528
906.272	17433
906.389	17486
906.506	17208
906.623	17117
906.74	17265
906.857	17045
906.974	17064
907.091	17227
907.208	17364
907.324	17246
907.441	17185
907.557	16938
907.674	16938
907.79	16881
907.907	16908
908.023	16831
908.139	17006
908.256	16877
908.372	16740
908.488	16831
908.604	16630
908.72	16645
908.836	16573
908.952	16538
909.068	16656
909.184	16774
909.3	16599
909.415	16630
909.531	16577
909.647	16428
909.762	16421
909.878	16253
909.993	16371
910.108	16299
910.224	16348
910.339	16333
910.454	16181
910.57	16086
910.685	16074
910.8	16344
910.915	16268
911.03	16188
911.145	15956
911.259	15892
911.374	16013
911.489	15998
911.604	15755
911.718	15606
911.833	15759
911.947	15587
912.062	15469
912.176	15701
912.291	15705
912.405	15781
912.519	15941
912.633	15983
912.748	15766
912.862	15561
912.976	15473
913.09	15321
913.204	15389
913.318	15439
913.431	15538
913.545	15564
913.659	15614
913.772	15488
913.886	15378
914	15302
914.113	15378
914.226	15450
914.34	15367
914.453	15188
914.566	15275
914.68	15142
914.793	15195
914.906	14971
915.019	14914
915.132	14933
915.245	14868
915.358	14952
915.47	14861
915.583	14925
915.696	14914
915.809	15001
915.921	15036
916.034	14994
916.146	14815
916.259	14876
916.371	14823
916.483	14941
916.595	14769
916.708	14731
916.82	14724
916.932	14724
917.044	14651
917.156	14697
917.268	14518
917.38	14697
917.491	14564
917.603	14590
917.715	14678
917.826	14632
917.938	14488
918.049	14415
918.161	14613
918.272	14670
918.384	14629
918.495	14454
918.606	14431
918.717	14358
918.828	14320
918.939	14324
919.05	14343
919.161	14294
919.272	14046
919.383	14210
919.494	14355
919.604	14492
919.715	14309
919.826	14267
919.936	14214
920.047	14328
920.157	14381
920.267	14412
920.378	14317
920.488	14317
920.598	14476
920.708	14541
920.818	14446
920.928	14358
921.038	14632
921.148	14507
921.258	14332
921.368	14088
921.477	14008
921.587	14058
921.697	13963
921.806	14054
921.916	13894
922.025	13826
922.134	13700
922.244	13586
922.353	13655
922.462	13594
922.571	13590
922.68	13381
922.789	13354
922.898	13362
923.007	13297
923.116	13377
923.224	13331
923.333	13388
923.442	13061
923.55	13084
923.659	13183
923.767	13225
923.876	13023
923.984	13187
924.092	13118
924.201	13103
924.309	13206
924.417	13107
924.525	12993
924.633	13107
924.741	13807
924.849	12806
924.956	12943
925.064	12787
925.172	12677
925.279	12684
925.387	12715
925.494	12741
925.602	12825
925.709	12802
925.816	12715
925.924	12703
926.031	12837
926.138	12700
926.245	12703
926.352	12578
926.459	12810
926.566	12795
926.673	12650
926.779	12517
926.886	12502
926.993	12460
927.099	12304
927.206	12334
927.312	12285
927.419	12357
927.525	12338
927.631	12308
927.737	12247
927.843	12209
927.95	12049
928.056	12243
928.162	12159
928.267	12247
928.373	12821
928.479	12292
928.585	12095
928.69	12098
928.796	12205
928.901	11965
929.007	11916
929.112	11988
929.218	11969
929.323	11950
929.428	11935
929.533	11977
929.638	11855
929.743	11923
929.848	11901
929.953	11783
930.058	11752
930.163	11699
930.267	11577
930.372	11726
930.477	11547
930.581	11794
930.685	11630
930.79	11444
930.894	11528
930.998	11436
931.103	11577
931.207	11258
931.311	11136
931.415	11064
931.519	10911
931.623	10919
