Data from test_V78500241_1990.txt Node
Date: Fri Mar 25 15:55:35 CST 2022
User: usil
Spectrometer: V785-0024
Trigger mode: 0
Integration Time (sec): 4.000000E-1
Scans to average: 1
Nonlinearity correction enabled: false
Boxcar width: 0
Storing dark spectrum: false
XAxis mode: Wavelengths
Number of Pixels in Spectrum: 1024
>>>>>Begin Spectral Data<<<<<
801.071	28481
801.214	28417
801.356	28249
801.499	28268
801.641	27979
801.783	27994
801.926	28257
802.068	28253
802.211	27899
802.353	27884
802.496	27789
802.638	27827
802.78	27667
802.923	27679
803.065	27576
803.208	27656
803.35	27785
803.492	27926
803.635	27941
803.777	27766
803.919	27972
804.061	28367
804.204	28040
804.346	27793
804.488	27865
804.63	28055
804.773	27945
804.915	28093
805.057	28131
805.199	27956
805.341	27911
805.483	28086
805.626	28063
805.768	28017
805.91	27983
806.052	28230
806.194	28048
806.336	28207
806.478	28109
806.62	28185
806.762	28112
806.904	28382
807.046	28607
807.188	28599
807.33	28550
807.472	28683
807.614	28504
807.756	28527
807.898	28459
808.04	28401
808.182	28363
808.324	28360
808.465	28470
808.607	28557
808.749	28660
808.891	28786
809.033	28809
809.174	28816
809.316	28835
809.458	28752
809.6	28679
809.741	28839
809.883	28957
810.025	29014
810.166	28976
810.308	28927
810.45	29060
810.591	29071
810.733	28854
810.875	28919
811.016	28725
811.158	28694
811.299	28839
811.441	28942
811.582	28942
811.724	28774
811.865	28664
812.007	28809
812.148	28763
812.29	28790
812.431	28957
812.573	29086
812.714	29258
812.855	29296
812.997	29375
813.138	29444
813.279	29391
813.421	29387
813.562	29242
813.703	29090
813.845	29098
813.986	28850
814.127	28500
814.268	28447
814.41	28417
814.551	28371
814.692	28493
814.833	28432
814.974	28516
815.115	28546
815.256	28306
815.397	28424
815.539	28341
815.68	28299
815.821	28162
815.962	28363
816.103	28280
816.244	28192
816.385	28109
816.526	28051
816.666	27975
816.807	27819
816.948	27842
817.089	27816
817.23	27865
817.371	27823
817.512	27781
817.653	27797
817.793	27633
817.934	27941
818.075	27759
818.216	27831
818.356	27694
818.497	27618
818.638	27576
818.778	27557
818.919	27504
819.06	27625
819.2	27580
819.341	27762
819.481	27819
819.622	27964
819.762	28181
819.903	27846
820.043	27865
820.184	27911
820.324	27899
820.465	28074
820.605	28051
820.746	28051
820.886	27747
821.026	27918
821.167	27892
821.307	27994
821.447	27816
821.588	27682
821.728	27629
821.868	27408
822.008	27332
822.149	27275
822.289	27260
822.429	27108
822.569	26902
822.709	27104
822.849	26849
822.99	26804
823.13	26788
823.27	26644
823.41	26598
823.55	26362
823.69	26556
823.83	26556
823.97	26469
824.11	26317
824.25	26461
824.389	26419
824.529	26476
824.669	26404
824.809	26476
824.949	26495
825.089	26511
825.228	26541
825.368	26244
825.508	26320
825.648	26278
825.787	26202
825.927	26362
826.067	26320
826.206	26347
826.346	26343
826.485	26332
826.625	26332
826.765	26317
826.904	26358
827.044	26088
827.183	25966
827.323	25970
827.462	26084
827.601	26077
827.741	25947
827.88	26134
828.02	25811
828.159	26027
828.298	26012
828.437	26012
828.577	25963
828.716	26027
828.855	25780
828.994	25826
829.134	25696
829.273	25795
829.412	25715
829.551	25761
829.69	25738
829.829	25715
829.968	25791
830.107	25681
830.246	25799
830.385	25651
830.524	25605
830.663	25559
830.802	25411
830.941	25346
831.08	25194
831.219	25293
831.357	25483
831.496	25620
831.635	25327
831.774	25141
831.913	25126
832.051	25126
832.19	24973
832.329	25103
832.467	24916
832.606	24935
832.744	24928
832.883	24905
833.022	24966
833.16	25000
833.299	25076
833.437	25046
833.576	25088
833.714	25031
833.852	25110
833.991	25015
834.129	25050
834.267	25198
834.406	25015
834.544	25088
834.682	25038
834.821	25080
834.959	25213
835.097	24962
835.235	25129
835.373	25023
835.511	25004
835.65	24901
835.788	24871
835.926	24787
836.064	24658
836.202	24635
836.34	24848
836.478	24916
836.615	24783
836.753	24871
836.891	24905
837.029	24913
837.167	24783
837.305	24719
837.443	24677
837.58	24677
837.718	24631
837.856	24669
837.993	24540
838.131	24703
838.269	24559
838.406	24585
838.544	24532
838.681	24254
838.819	24380
838.956	24152
839.094	24087
839.231	24251
839.369	24315
839.506	24517
839.643	24426
839.781	24174
839.918	24106
840.055	24174
840.193	23984
840.33	24167
840.467	24026
840.604	24087
840.742	24254
840.879	24079
841.016	23901
841.153	23988
841.29	24197
841.427	24015
841.564	24068
841.701	24015
841.838	24095
841.975	23946
842.112	23965
842.249	23893
842.385	23676
842.522	23992
842.659	23885
842.796	23828
842.933	23988
843.069	23718
843.206	23756
843.343	23866
843.479	23802
843.616	23699
843.752	23524
843.889	23638
844.025	23718
844.162	23596
844.298	23668
844.435	23615
844.571	23592
844.708	23558
844.844	23653
844.98	23661
845.117	23691
845.253	23395
845.389	23459
845.525	23608
845.661	23231
845.798	23181
845.934	23223
846.07	23414
846.206	23242
846.342	23516
846.478	23170
846.614	23227
846.75	23022
846.886	22999
847.022	23086
847.158	23044
847.294	23109
847.429	23166
847.565	22984
847.701	23223
847.837	22729
847.972	22744
848.108	22869
848.244	22752
848.379	22748
848.515	22527
848.65	22561
848.786	22675
848.921	22603
849.057	22740
849.192	22748
849.328	22736
849.463	22653
849.598	22577
849.734	22535
849.869	22485
850.004	22402
850.14	22485
850.275	22413
850.41	22188
850.545	22413
850.68	22348
850.815	22527
850.95	22287
851.085	22538
851.22	22641
851.355	22333
851.49	22485
851.625	22386
851.76	22409
851.895	22367
852.03	22344
852.165	22421
852.299	22394
852.434	22481
852.569	22421
852.703	22344
852.838	22443
852.973	22409
853.107	22421
853.242	22284
853.376	22306
853.511	22082
853.645	22242
853.78	22409
853.914	22234
854.048	22303
854.183	22360
854.317	22226
854.451	22295
854.585	22131
854.72	22405
854.854	22363
854.988	22257
855.122	22150
855.256	22143
855.39	22265
855.524	22272
855.658	22226
855.792	22128
855.926	22341
856.06	22382
856.194	22291
856.327	22185
856.461	22116
856.595	22223
856.729	22303
856.862	22223
856.996	22226
857.13	22295
857.263	22344
857.397	22299
857.53	22344
857.664	22196
857.797	22333
857.931	22329
858.064	22329
858.197	22299
858.331	22287
858.464	22211
858.597	22147
858.731	22261
858.864	22177
858.997	22147
859.13	22211
859.263	22284
859.396	22207
859.529	22143
859.662	22097
859.795	22192
859.928	22246
860.061	22466
860.194	22436
860.327	22150
860.46	22306
860.592	22295
860.725	22333
860.858	22341
860.99	22257
861.123	22169
861.256	22082
861.388	22162
861.521	22919
861.653	21994
861.786	22044
861.918	22029
862.05	22116
862.183	22204
862.315	22181
862.447	22219
862.58	22105
862.712	21937
862.844	21854
862.976	21956
863.108	21895
863.24	22363
863.372	21857
863.504	21922
863.636	21812
863.768	21926
863.9	21934
864.032	21911
864.164	21918
864.296	21972
864.428	21937
864.559	21930
864.691	22029
864.823	21861
864.954	21865
865.086	22032
865.217	21812
865.349	21743
865.48	21827
865.612	21835
865.743	21979
865.875	21895
866.006	21846
866.137	21808
866.269	21698
866.4	21819
866.531	21797
866.662	21869
866.793	21816
866.924	21842
867.055	21743
867.186	21720
867.317	21671
867.448	21652
867.579	21743
867.71	21648
867.841	21686
867.972	21751
868.103	21724
868.233	21747
868.364	21835
868.495	21953
868.625	22025
868.756	22109
868.886	21907
869.017	22150
869.147	21979
869.278	21979
869.408	21926
869.539	21911
869.669	21983
869.799	21873
869.929	22177
870.06	22090
870.19	22295
870.32	22295
870.45	22325
870.58	22424
870.71	22432
870.84	22569
870.97	22348
871.1	22409
871.23	22554
871.36	22519
871.489	22527
871.619	22440
871.749	22645
871.879	22729
872.008	22736
872.138	22615
872.267	22592
872.397	22535
872.526	22432
872.656	22409
872.785	22284
872.915	22653
873.044	22698
873.173	22694
873.303	22588
873.432	22599
873.561	22656
873.69	22733
873.819	22561
873.948	22721
874.077	22569
874.206	22485
874.335	22459
874.464	22755
874.593	22828
874.722	22786
874.851	22927
874.979	22725
875.108	22896
875.237	22725
875.365	22694
875.494	22774
875.623	22930
875.751	22713
875.88	22915
876.008	23052
876.136	23098
876.265	23204
876.393	23440
876.521	23143
876.65	23387
876.778	23273
876.906	23098
877.034	23334
877.162	23220
877.29	23083
877.418	23273
877.546	23155
877.674	23105
877.802	23018
877.93	23075
878.058	23098
878.185	23155
878.313	23060
878.441	23124
878.568	23041
878.696	23208
878.824	23147
878.951	23147
879.079	23341
879.206	23376
879.333	23330
879.461	23128
879.588	23208
879.715	23345
879.842	23383
879.97	23296
880.097	23064
880.224	22900
880.351	23014
880.478	22938
880.605	22801
880.732	23083
880.859	23064
880.986	22934
881.112	23056
881.239	22904
881.366	22740
881.493	22565
881.619	22557
881.746	22649
881.872	22584
881.999	22474
882.125	22516
882.252	22584
882.378	22421
882.505	22603
882.631	22382
882.757	22257
882.883	22386
883.01	22207
883.136	22169
883.262	21964
883.388	22109
883.514	22223
883.64	22226
883.766	22090
883.892	22055
884.018	22109
884.143	22078
884.269	22390
884.395	21922
884.52	21838
884.646	21827
884.772	21808
884.897	21846
885.023	21838
885.148	22021
885.274	21903
885.399	21850
885.524	21781
885.65	21949
885.775	21956
885.9	21850
886.025	21994
886.15	21918
886.275	21823
886.4	21850
886.525	21854
886.65	21831
886.775	21743
886.9	21876
887.025	21983
887.149	21926
887.274	21637
887.399	21641
887.523	21618
887.648	21492
887.773	21568
887.897	21660
888.021	21698
888.146	21526
888.27	21724
888.395	21618
888.519	21671
888.643	21523
888.767	21553
888.891	21492
889.015	21382
889.139	21420
889.263	21370
889.387	21644
889.511	21686
889.635	21568
889.759	21332
889.883	21412
890.006	21542
890.13	21454
890.254	21226
890.377	21214
890.501	21256
890.624	21017
890.748	21260
890.871	21089
890.995	20960
891.118	20887
891.241	20868
891.364	20979
891.488	20967
891.611	20967
891.734	20883
891.857	21017
891.98	20891
892.103	20906
892.226	21028
892.349	20861
892.471	20739
892.594	20925
892.717	20937
892.839	20880
892.962	20743
893.085	20925
893.207	20960
893.33	20754
893.452	20754
893.575	20899
893.697	20781
893.819	21039
893.941	21100
894.064	20941
894.186	20724
894.308	20815
894.43	20952
894.552	20929
894.674	20880
894.796	20746
894.918	20838
895.04	20792
895.161	20956
895.283	20937
895.405	20876
895.526	20876
895.648	20804
895.769	20902
895.891	20864
896.012	20887
896.134	20872
896.255	20804
896.376	20773
896.498	20804
896.619	20971
896.74	20811
896.861	20910
896.982	21203
897.103	21188
897.224	21047
897.345	21104
897.466	20849
897.587	21104
897.708	21150
897.828	21077
897.949	20952
898.07	20823
898.19	20986
898.311	21077
898.431	21005
898.552	21028
898.672	21074
898.792	21131
898.913	21119
899.033	20891
899.153	20830
899.273	20686
899.393	20724
899.513	20834
899.633	20788
899.753	20842
899.873	20705
899.993	20640
900.113	20773
900.232	20811
900.352	20701
900.472	20587
900.591	20480
900.711	20492
900.83	20549
900.95	20644
901.069	20644
901.189	20431
901.308	20301
901.427	20153
901.546	20134
901.665	20168
901.784	20153
901.904	19974
902.023	19822
902.141	19708
902.26	19670
902.379	19738
902.498	19700
902.617	19635
902.735	19639
902.854	19632
902.973	19544
903.091	19388
903.21	19240
903.328	19415
903.446	19206
903.565	19103
903.683	19091
903.801	19015
903.919	19008
904.038	18962
904.156	18795
904.274	18859
904.392	18837
904.51	18829
904.627	18791
904.745	18878
904.863	18947
904.981	18498
905.098	18467
905.216	18521
905.334	18627
905.451	18551
905.569	18467
905.686	18506
905.803	18506
905.921	18311
906.038	18262
906.155	18292
906.272	18209
906.389	18224
906.506	18034
906.623	18155
906.74	18068
906.857	17935
906.974	17840
907.091	18110
907.208	18186
907.324	17988
907.441	17897
907.557	17794
907.674	17794
907.79	17668
907.907	17714
908.023	17771
908.139	17779
908.256	17627
908.372	17680
908.488	17608
908.604	17566
908.72	17493
908.836	17532
908.952	17490
909.068	17474
909.184	17547
909.3	17474
909.415	17452
909.531	17547
909.647	17273
909.762	17121
909.878	17200
909.993	17143
910.108	17151
910.224	17083
910.339	17060
910.454	17105
910.57	17060
910.685	16911
910.8	17239
910.915	17151
911.03	16900
911.145	16790
911.259	16752
911.374	16698
911.489	16626
911.604	16573
911.718	16466
911.833	16523
911.947	16481
912.062	16344
912.176	16508
912.291	16546
912.405	16481
912.519	16702
912.633	16698
912.748	16565
912.862	16478
912.976	16246
913.09	16287
913.204	16291
913.318	16322
913.431	16394
913.545	16325
913.659	16375
913.772	16337
913.886	16204
914	16147
914.113	16276
914.226	16192
914.34	16242
914.453	16006
914.566	16166
914.68	15991
914.793	15903
914.906	15823
915.019	15713
915.132	15523
915.245	15591
915.358	15690
915.47	15682
915.583	15663
915.696	15747
915.809	15816
915.921	15705
916.034	15644
916.146	15523
916.259	15538
916.371	15485
916.483	15614
916.595	15462
916.708	15568
916.82	15405
916.932	15424
917.044	15466
917.156	15416
917.268	15370
917.38	15386
917.491	15256
917.603	15389
917.715	15321
917.826	15469
917.938	15268
918.049	15169
918.161	15351
918.272	15393
918.384	15393
918.495	15294
918.606	15154
918.717	15020
918.828	15127
918.939	15119
919.05	14914
919.161	14948
919.272	14918
919.383	14834
919.494	14937
919.604	15245
919.715	14998
919.826	14967
919.936	15039
920.047	15017
920.157	15081
920.267	15173
920.378	15081
920.488	14998
920.598	15146
920.708	15321
920.818	15173
920.928	15165
921.038	15226
921.148	15214
921.258	14941
921.368	14918
921.477	14792
921.587	14735
921.697	14606
921.806	14663
921.916	14556
922.025	14484
922.134	14355
922.244	14248
922.353	14377
922.462	14248
922.571	14157
922.68	14065
922.789	14050
922.898	14069
923.007	13974
923.116	14130
923.224	14043
923.333	13974
923.442	13833
923.55	13757
923.659	13822
923.767	13875
923.876	13864
923.984	13814
924.092	13734
924.201	13719
924.309	13845
924.417	13723
924.525	13803
924.633	13681
924.741	14454
924.849	13468
924.956	13620
925.064	13487
925.172	13312
925.279	13403
925.387	13529
925.494	13453
925.602	13609
925.709	13445
925.816	13362
925.924	13407
926.031	13384
926.138	13278
926.245	13445
926.352	13316
926.459	13335
926.566	13388
926.673	13297
926.779	13095
926.886	13061
926.993	13103
927.099	12958
927.206	12989
927.312	12935
927.419	13008
927.525	12920
927.631	12981
927.737	12875
927.843	12829
927.95	12658
928.056	12715
928.162	12829
928.267	12821
928.373	13441
928.479	12837
928.585	12559
928.69	12681
928.796	12703
928.901	12540
929.007	12566
929.112	12555
929.218	12623
929.323	12445
929.428	12475
929.533	12646
929.638	12410
929.743	12471
929.848	12452
929.953	12445
930.058	12330
930.163	12235
930.267	12209
930.372	12308
930.477	12095
930.581	12262
930.685	12121
930.79	11980
930.894	12110
930.998	12034
931.103	12152
931.207	11745
931.311	11710
931.415	11589
931.519	11379
931.623	11341
