Data from test_V78500241_1664.txt Node
Date: Fri Mar 25 15:53:19 CST 2022
User: usil
Spectrometer: V785-0024
Trigger mode: 0
Integration Time (sec): 4.000000E-1
Scans to average: 1
Nonlinearity correction enabled: false
Boxcar width: 0
Storing dark spectrum: false
XAxis mode: Wavelengths
Number of Pixels in Spectrum: 1024
>>>>>Begin Spectral Data<<<<<
801.071	28280
801.214	28284
801.356	28040
801.499	27914
801.641	27869
801.783	27827
801.926	27857
802.068	27800
802.211	27705
802.353	27652
802.496	27568
802.638	27572
802.78	27542
802.923	27412
803.065	27500
803.208	27538
803.35	27427
803.492	27728
803.635	27686
803.777	27557
803.919	27728
804.061	28032
804.204	27774
804.346	27622
804.488	27755
804.63	27846
804.773	27709
804.915	27854
805.057	27823
805.199	27747
805.341	27812
805.483	27869
805.626	27770
805.768	27724
805.91	27895
806.052	27953
806.194	27660
806.336	28025
806.478	28032
806.62	27816
806.762	27998
806.904	28139
807.046	28367
807.188	28120
807.33	28253
807.472	28287
807.614	28185
807.756	28284
807.898	28006
808.04	27994
808.182	28112
808.324	28093
808.465	28219
808.607	28379
808.749	28470
808.891	28793
809.033	28725
809.174	28615
809.316	28413
809.458	28550
809.6	28531
809.741	28717
809.883	28580
810.025	28828
810.166	28748
810.308	28843
810.45	28645
810.591	28611
810.733	28577
810.875	28497
811.016	28535
811.158	28394
811.299	28698
811.441	28618
811.582	28672
811.724	28523
811.865	28493
812.007	28459
812.148	28440
812.29	28455
812.431	28634
812.573	28862
812.714	28927
812.855	28949
812.997	29231
813.138	29265
813.279	29037
813.421	29014
813.562	28820
813.703	28873
813.845	28793
813.986	28398
814.127	28382
814.268	28295
814.41	28303
814.551	28246
814.692	28382
814.833	28215
814.974	28177
815.115	28329
815.256	28063
815.397	28021
815.539	28078
815.68	28109
815.821	28010
815.962	28048
816.103	27918
816.244	27895
816.385	27739
816.526	27827
816.666	27709
816.807	27583
816.948	27618
817.089	27523
817.23	27526
817.371	27485
817.512	27591
817.653	27523
817.793	27473
817.934	27542
818.075	27523
818.216	27492
818.356	27492
818.497	27454
818.638	27192
818.778	27184
818.919	27161
819.06	27344
819.2	27496
819.341	27481
819.481	27500
819.622	27564
819.762	27838
819.903	27751
820.043	27652
820.184	27603
820.324	27603
820.465	27671
820.605	27519
820.746	27667
820.886	27469
821.026	27557
821.167	27557
821.307	27530
821.447	27450
821.588	27348
821.728	27317
821.868	27195
822.008	27020
822.149	27032
822.289	26933
822.429	26880
822.569	26724
822.709	26659
822.849	26511
822.99	26476
823.13	26533
823.27	26499
823.41	26187
823.55	26191
823.69	26366
823.83	26351
823.97	26210
824.11	26122
824.25	26039
824.389	25982
824.529	26126
824.669	26096
824.809	26168
824.949	26237
825.089	26183
825.228	26218
825.368	25928
825.508	25890
825.648	26103
825.787	26039
825.927	26001
826.067	25864
826.206	26012
826.346	26020
826.485	26119
826.625	25940
826.765	26005
826.904	26035
827.044	25723
827.183	25734
827.323	25708
827.462	25609
827.601	25746
827.741	25700
827.88	25655
828.02	25643
828.159	25681
828.298	25822
828.437	25864
828.577	25624
828.716	25849
828.855	25578
828.994	25476
829.134	25377
829.273	25411
829.412	25449
829.551	25278
829.69	25339
829.829	25411
829.968	25479
830.107	25354
830.246	25331
830.385	25179
830.524	25255
830.663	25282
830.802	25156
830.941	25084
831.08	24916
831.219	25053
831.357	25019
831.496	25266
831.635	24856
831.774	24920
831.913	24814
832.051	24810
832.19	24833
832.329	24924
832.467	24688
832.606	24681
832.744	24734
832.883	24719
833.022	24658
833.16	24650
833.299	24623
833.437	24791
833.576	24738
833.714	24703
833.852	24837
833.991	24692
834.129	24806
834.267	24848
834.406	24730
834.544	24757
834.682	24627
834.821	24654
834.959	24856
835.097	24635
835.235	24677
835.373	24817
835.511	24783
835.65	24585
835.788	24669
835.926	24521
836.064	24388
836.202	24350
836.34	24551
836.478	24639
836.615	24521
836.753	24536
836.891	24608
837.029	24673
837.167	24456
837.305	24380
837.443	24388
837.58	24327
837.718	24399
837.856	24509
837.993	24448
838.131	24403
838.269	24216
838.406	24243
838.544	24213
838.681	24106
838.819	24117
838.956	23946
839.094	23878
839.231	23999
839.369	24072
839.506	24289
839.643	24083
839.781	23714
839.918	23756
840.055	23863
840.193	23836
840.33	23821
840.467	23828
840.604	23767
840.742	24057
840.879	23729
841.016	23687
841.153	23668
841.29	23908
841.427	23786
841.564	23767
841.701	23703
841.838	23726
841.975	23703
842.112	23783
842.249	23646
842.385	23528
842.522	23699
842.659	23642
842.796	23478
842.933	23589
843.069	23444
843.206	23486
843.343	23608
843.479	23562
843.616	23501
843.752	23334
843.889	23436
844.025	23486
844.162	23296
844.298	23414
844.435	23341
844.571	23353
844.708	23296
844.844	23505
844.98	23406
845.117	23414
845.253	23368
845.389	23151
845.525	23212
845.661	23337
845.798	23003
845.934	23014
846.07	22984
846.206	23048
846.342	23094
846.478	22987
846.614	22900
846.75	22812
846.886	22763
847.022	22881
847.158	22702
847.294	22702
847.429	22672
847.565	22763
847.701	23102
847.837	22516
847.972	22303
848.108	22466
848.244	22596
848.379	22318
848.515	22611
848.65	22348
848.786	22451
848.921	22303
849.057	22432
849.192	22436
849.328	22398
849.463	22200
849.598	22249
849.734	22226
849.869	22082
850.004	22109
850.14	22116
850.275	22055
850.41	22013
850.545	22021
850.68	21998
850.815	22173
850.95	22067
851.085	22268
851.22	22249
851.355	22109
851.49	22139
851.625	22051
851.76	22109
851.895	22025
852.03	21987
852.165	22131
852.299	22223
852.434	22185
852.569	22211
852.703	22147
852.838	22147
852.973	22238
853.107	22314
853.242	22112
853.376	21854
853.511	21789
853.645	21953
853.78	21972
853.914	22101
854.048	21880
854.183	21945
854.317	22040
854.451	22131
854.585	21994
854.72	21922
854.854	21911
854.988	21994
855.122	21968
855.256	21865
855.39	21827
855.524	21903
855.658	22006
855.792	21968
855.926	22074
856.06	21998
856.194	22093
856.327	22002
856.461	21876
856.595	21903
856.729	22017
856.862	22048
856.996	21895
857.13	21926
857.263	22021
857.397	22048
857.53	21945
857.664	21975
857.797	22021
857.931	22112
858.064	21857
858.197	22021
858.331	21823
858.464	21838
858.597	21888
858.731	21838
858.864	21899
858.997	21956
859.13	21869
859.263	21922
859.396	22032
859.529	21880
859.662	21979
859.795	21842
859.928	21991
860.061	22120
860.194	22097
860.327	21956
860.46	21899
860.592	22044
860.725	22063
860.858	22059
860.99	21884
861.123	21759
861.256	21941
861.388	21895
861.521	22599
861.653	21694
861.786	21595
861.918	21774
862.05	21713
862.183	21956
862.315	21865
862.447	22025
862.58	21892
862.712	21690
862.844	21583
862.976	21728
863.108	21732
863.24	21994
863.372	21538
863.504	21747
863.636	21629
863.768	21751
863.9	21648
864.032	21534
864.164	21561
864.296	21660
864.428	21770
864.559	21713
864.691	21808
864.823	21614
864.954	21644
865.086	21504
865.217	21572
865.349	21424
865.48	21599
865.612	21534
865.743	21720
865.875	21583
866.006	21519
866.137	21580
866.269	21504
866.4	21473
866.531	21538
866.662	21473
866.793	21370
866.924	21477
867.055	21485
867.186	21466
867.317	21367
867.448	21393
867.579	21401
867.71	21367
867.841	21317
867.972	21458
868.103	21420
868.233	21488
868.364	21405
868.495	21618
868.625	21644
868.756	21895
868.886	21644
869.017	21690
869.147	21690
869.278	21835
869.408	21701
869.539	21587
869.669	21816
869.799	21766
869.929	21873
870.06	21789
870.19	22025
870.32	21937
870.45	22044
870.58	21979
870.71	22303
870.84	22166
870.97	22192
871.1	22032
871.23	22196
871.36	22238
871.489	22215
871.619	22295
871.749	22352
871.879	22295
872.008	22459
872.138	22398
872.267	22428
872.397	22169
872.526	22162
872.656	22226
872.785	22162
872.915	22215
873.044	22367
873.173	22284
873.303	22402
873.432	22398
873.561	22390
873.69	22348
873.819	22394
873.948	22436
874.077	22272
874.206	22291
874.335	22314
874.464	22466
874.593	22561
874.722	22523
874.851	22626
874.979	22569
875.108	22538
875.237	22554
875.365	22447
875.494	22630
875.623	22588
875.751	22485
875.88	22630
876.008	22755
876.136	22752
876.265	22919
876.393	23025
876.521	22984
876.65	23102
876.778	22881
876.906	22828
877.034	22862
877.162	22923
877.29	22839
877.418	22987
877.546	22824
877.674	22938
877.802	22843
877.93	22847
878.058	22812
878.185	22828
878.313	22824
878.441	22896
878.568	22736
878.696	22858
878.824	22927
878.951	22896
879.079	23170
879.206	23117
879.333	23083
879.461	22942
879.588	23006
879.715	23029
879.842	23041
879.97	22873
880.097	22740
880.224	22767
880.351	22778
880.478	22679
880.605	22630
880.732	22691
880.859	22873
880.986	22710
881.112	22691
881.239	22489
881.366	22386
881.493	22280
881.619	22360
881.746	22246
881.872	22268
881.999	22272
882.125	22234
882.252	22363
882.378	22310
882.505	22287
882.631	22070
882.757	22025
882.883	22093
883.01	21953
883.136	21892
883.262	21804
883.388	21812
883.514	21903
883.64	21960
883.766	21903
883.892	21599
884.018	21747
884.143	21869
884.269	21991
884.395	21603
884.52	21496
884.646	21637
884.772	21603
884.897	21443
885.023	21580
885.148	21648
885.274	21648
885.399	21770
885.524	21568
885.65	21587
885.775	21568
885.9	21488
886.025	21648
886.15	21641
886.275	21462
886.4	21496
886.525	21534
886.65	21496
886.775	21523
886.9	21587
887.025	21842
887.149	21629
887.274	21450
887.399	21313
887.523	21454
887.648	21192
887.773	21249
887.897	21420
888.021	21408
888.146	21214
888.27	21386
888.395	21393
888.519	21488
888.643	21370
888.767	21469
888.891	21287
889.015	21214
889.139	21157
889.263	21154
889.387	21161
889.511	21283
889.635	21173
889.759	21199
889.883	21150
890.006	21157
890.13	21142
890.254	21039
890.377	21123
890.501	20872
890.624	20941
890.748	20933
890.871	20853
890.995	20735
891.118	20617
891.241	20796
891.364	20777
891.488	20838
891.611	20617
891.734	20720
891.857	20762
891.98	20765
892.103	20781
892.226	20765
892.349	20701
892.471	20446
892.594	20606
892.717	20716
892.839	20617
892.962	20598
893.085	20640
893.207	20621
893.33	20427
893.452	20552
893.575	20708
893.697	20484
893.819	20621
893.941	20670
894.064	20678
894.186	20568
894.308	20541
894.43	20621
894.552	20724
894.674	20632
894.796	20522
894.918	20598
895.04	20564
895.161	20735
895.283	20667
895.405	20602
895.526	20640
895.648	20644
895.769	20606
895.891	20632
896.012	20697
896.134	20587
896.255	20568
896.376	20571
896.498	20560
896.619	20739
896.74	20564
896.861	20613
896.982	20914
897.103	21116
897.224	20941
897.345	20788
897.466	20743
897.587	20750
897.708	20906
897.828	20849
897.949	20705
898.07	20621
898.19	20724
898.311	20788
898.431	20765
898.552	20754
898.672	20811
898.792	20944
898.913	20796
899.033	20785
899.153	20689
899.273	20507
899.393	20606
899.513	20644
899.633	20492
899.753	20609
899.873	20434
899.993	20617
900.113	20473
900.232	20457
900.352	20488
900.472	20237
900.591	20412
900.711	20374
900.83	20347
900.95	20488
901.069	20396
901.189	20161
901.308	20043
901.427	19837
901.546	19947
901.665	19906
901.784	19860
901.904	19715
902.023	19651
902.141	19483
902.26	19396
902.379	19362
902.498	19430
902.617	19358
902.735	19396
902.854	19304
902.973	19304
903.091	19038
903.21	19088
903.328	19168
903.446	18977
903.565	18806
903.683	18909
903.801	18627
903.919	18859
904.038	18787
904.156	18646
904.274	18692
904.392	18684
904.51	18608
904.627	18681
904.745	18658
904.863	18753
904.981	18433
905.098	18330
905.216	18384
905.334	18281
905.451	18281
905.569	18346
905.686	18452
905.803	18243
905.921	18159
906.038	18273
906.155	18095
906.272	17977
906.389	18003
906.506	17863
906.623	17809
906.74	17851
906.857	17722
906.974	17638
907.091	17855
907.208	17817
907.324	17836
907.441	17653
907.557	17554
907.674	17501
907.79	17577
907.907	17482
908.023	17634
908.139	17558
908.256	17391
908.372	17486
908.488	17433
908.604	17330
908.72	17151
908.836	17242
908.952	17242
909.068	17204
909.184	17299
909.3	17162
909.415	17223
909.531	17189
909.647	17071
909.762	16942
909.878	16976
909.993	16999
910.108	16866
910.224	16968
910.339	16862
910.454	16828
910.57	16816
910.685	16706
910.8	16930
910.915	16923
911.03	16786
911.145	16656
911.259	16462
911.374	16508
911.489	16489
911.604	16489
911.718	16360
911.833	16276
911.947	16242
912.062	16055
912.176	16257
912.291	16268
912.405	16219
912.519	16485
912.633	16519
912.748	16276
912.862	16173
912.976	16112
913.09	15937
913.204	16006
913.318	16120
913.431	16211
913.545	16120
913.659	16162
913.772	16051
913.886	16002
914	15903
914.113	16032
914.226	16002
914.34	15956
914.453	15694
914.566	15934
914.68	15797
914.793	15698
914.906	15534
915.019	15511
915.132	15500
915.245	15450
915.358	15405
915.47	15511
915.583	15466
915.696	15466
915.809	15591
915.921	15675
916.034	15408
916.146	15420
916.259	15336
916.371	15401
916.483	15405
916.595	15230
916.708	15279
916.82	15245
916.932	15249
917.044	15230
917.156	15252
917.268	15131
917.38	15169
917.491	15180
917.603	15116
917.715	15279
917.826	15203
917.938	15157
918.049	14975
918.161	15074
918.272	15165
918.384	15127
918.495	15020
918.606	14883
918.717	14823
918.828	14914
918.939	14902
919.05	14769
919.161	14868
919.272	14632
919.383	14640
919.494	14929
919.604	15043
919.715	14796
919.826	14815
919.936	14815
920.047	14876
920.157	14826
920.267	14982
920.378	14849
920.488	14758
920.598	14899
920.708	15119
920.818	15032
920.928	14929
921.038	15077
921.148	15005
921.258	14754
921.368	14621
921.477	14629
921.587	14693
921.697	14476
921.806	14625
921.916	14457
922.025	14218
922.134	14187
922.244	14183
922.353	14199
922.462	14161
922.571	14031
922.68	13917
922.789	13811
922.898	13860
923.007	13769
923.116	13833
923.224	13769
923.333	13830
923.442	13715
923.55	13719
923.659	13651
923.767	13731
923.876	13681
923.984	13639
924.092	13556
924.201	13670
924.309	13666
924.417	13586
924.525	13597
924.633	13537
924.741	14180
924.849	13282
924.956	13514
925.064	13236
925.172	13225
925.279	13297
925.387	13278
925.494	13187
925.602	13403
925.709	13343
925.816	13190
925.924	13187
926.031	13263
926.138	13232
926.245	13175
926.352	13042
926.459	13179
926.566	13255
926.673	13160
926.779	13019
926.886	13008
926.993	12894
927.099	12863
927.206	12703
927.312	12658
927.419	12856
927.525	12772
927.631	12856
927.737	12612
927.843	12658
927.95	12559
928.056	12673
928.162	12650
928.267	12696
928.373	13301
928.479	12753
928.585	12403
928.69	12517
928.796	12631
928.901	12547
929.007	12281
929.112	12433
929.218	12471
929.323	12365
929.428	12315
929.533	12429
929.638	12315
929.743	12311
929.848	12372
929.953	12308
930.058	12140
930.163	12022
930.267	12072
930.372	12167
930.477	12038
930.581	12289
930.685	12041
930.79	11889
930.894	11954
930.998	11843
931.103	11969
931.207	11653
931.311	11657
931.415	11433
931.519	11364
931.623	11265
