Data from test_V78500241_993.txt Node
Date: Fri Mar 25 15:48:40 CST 2022
User: usil
Spectrometer: V785-0024
Trigger mode: 0
Integration Time (sec): 4.000000E-1
Scans to average: 1
Nonlinearity correction enabled: false
Boxcar width: 0
Storing dark spectrum: false
XAxis mode: Wavelengths
Number of Pixels in Spectrum: 1024
>>>>>Begin Spectral Data<<<<<
801.071	28276
801.214	28280
801.356	27960
801.499	27930
801.641	27873
801.783	27759
801.926	27838
802.068	27823
802.211	27732
802.353	27667
802.496	27610
802.638	27568
802.78	27530
802.923	27447
803.065	27469
803.208	27511
803.35	27534
803.492	27701
803.635	27667
803.777	27736
803.919	27842
804.061	28090
804.204	27846
804.346	27736
804.488	27618
804.63	27816
804.773	27660
804.915	27774
805.057	27945
805.199	27739
805.341	27766
805.483	27842
805.626	27892
805.768	27717
805.91	28029
806.052	27850
806.194	27861
806.336	28173
806.478	27899
806.62	27949
806.762	28032
806.904	28181
807.046	28356
807.188	28459
807.33	28261
807.472	28382
807.614	28455
807.756	28185
807.898	28166
808.04	28162
808.182	28306
808.324	28188
808.465	28272
808.607	28344
808.749	28577
808.891	28721
809.033	28615
809.174	28618
809.316	28478
809.458	28672
809.6	28588
809.741	28752
809.883	28733
810.025	28911
810.166	28774
810.308	28763
810.45	28900
810.591	28858
810.733	28645
810.875	28489
811.016	28382
811.158	28432
811.299	28672
811.441	28755
811.582	28755
811.724	28618
811.865	28573
812.007	28641
812.148	28599
812.29	28584
812.431	28736
812.573	28892
812.714	28991
812.855	29174
812.997	29159
813.138	29379
813.279	29349
813.421	29056
813.562	29052
813.703	29003
813.845	28786
813.986	28577
814.127	28489
814.268	28325
814.41	28386
814.551	28265
814.692	28295
814.833	28257
814.974	28379
815.115	28196
815.256	28128
815.397	28196
815.539	28295
815.68	28082
815.821	28131
815.962	28040
816.103	28086
816.244	28109
816.385	27964
816.526	27751
816.666	27907
816.807	27641
816.948	27679
817.089	27724
817.23	27625
817.371	27606
817.512	27694
817.653	27633
817.793	27561
817.934	27652
818.075	27557
818.216	27667
818.356	27564
818.497	27523
818.638	27336
818.778	27374
818.919	27424
819.06	27424
819.2	27530
819.341	27701
819.481	27629
819.622	27747
819.762	27922
819.903	27812
820.043	27808
820.184	27827
820.324	27720
820.465	27743
820.605	27789
820.746	27762
820.886	27656
821.026	27603
821.167	27633
821.307	27747
821.447	27747
821.588	27526
821.728	27374
821.868	27222
822.008	27291
822.149	27089
822.289	27039
822.429	26842
822.569	26678
822.709	26636
822.849	26583
822.99	26609
823.13	26651
823.27	26545
823.41	26503
823.55	26317
823.69	26389
823.83	26412
823.97	26400
824.11	26221
824.25	26259
824.389	26301
824.529	26317
824.669	26225
824.809	26446
824.949	26389
825.089	26431
825.228	26366
825.368	26214
825.508	26115
825.648	26168
825.787	26183
825.927	26317
826.067	26221
826.206	26157
826.346	26202
826.485	26259
826.625	26180
826.765	26191
826.904	26206
827.044	25993
827.183	25978
827.323	25753
827.462	25890
827.601	25944
827.741	25814
827.88	25830
828.02	25818
828.159	25666
828.298	25875
828.437	25902
828.577	25772
828.716	25849
828.855	25826
828.994	25681
829.134	25552
829.273	25616
829.412	25495
829.551	25525
829.69	25704
829.829	25540
829.968	25693
830.107	25647
830.246	25643
830.385	25449
830.524	25438
830.663	25430
830.802	25396
830.941	25129
831.08	25187
831.219	25236
831.357	25236
831.496	25483
831.635	25061
831.774	25202
831.913	25236
832.051	25000
832.19	24996
832.329	25091
832.467	24996
832.606	24886
832.744	24840
832.883	24817
833.022	24825
833.16	24901
833.299	24894
833.437	24825
833.576	24966
833.714	24996
833.852	25050
833.991	24825
834.129	24954
834.267	25004
834.406	24825
834.544	24992
834.682	24738
834.821	24848
834.959	25065
835.097	24886
835.235	24973
835.373	24901
835.511	24924
835.65	24700
835.788	24745
835.926	24635
836.064	24540
836.202	24593
836.34	24837
836.478	24837
836.615	24753
836.753	24722
836.891	24798
837.029	24703
837.167	24623
837.305	24612
837.443	24593
837.58	24502
837.718	24661
837.856	24574
837.993	24357
838.131	24513
838.269	24429
838.406	24475
838.544	24353
838.681	24285
838.819	24064
838.956	24068
839.094	23965
839.231	24102
839.369	24338
839.506	24513
839.643	24426
839.781	24106
839.918	24060
840.055	23992
840.193	24026
840.33	23961
840.467	23965
840.604	23999
840.742	24262
840.879	23786
841.016	23836
841.153	23824
841.29	24114
841.427	24106
841.564	23874
841.701	23893
841.838	23726
841.975	23764
842.112	23752
842.249	23741
842.385	23600
842.522	23885
842.659	23798
842.796	23634
842.933	23752
843.069	23551
843.206	23630
843.343	23809
843.479	23775
843.616	23760
843.752	23520
843.889	23531
844.025	23562
844.162	23463
844.298	23509
844.435	23398
844.571	23600
844.708	23566
844.844	23646
844.98	23661
845.117	23505
845.253	23459
845.389	23330
845.525	23379
845.661	23284
845.798	23147
845.934	23216
846.07	23181
846.206	23117
846.342	23204
846.478	23178
846.614	23006
846.75	22828
846.886	22854
847.022	23067
847.158	22965
847.294	22797
847.429	22911
847.565	22934
847.701	23041
847.837	22645
847.972	22607
848.108	22698
848.244	22664
848.379	22634
848.515	22481
848.65	22478
848.786	22424
848.921	22596
849.057	22447
849.192	22599
849.328	22535
849.463	22470
849.598	22504
849.734	22344
849.869	22402
850.004	22265
850.14	22306
850.275	22261
850.41	22280
850.545	22211
850.68	22276
850.815	22329
850.95	22333
851.085	22554
851.22	22314
851.355	22291
851.49	22242
851.625	22200
851.76	22272
851.895	22188
852.03	22185
852.165	22215
852.299	22200
852.434	22356
852.569	22287
852.703	22257
852.838	22360
852.973	22360
853.107	22337
853.242	22211
853.376	22101
853.511	22105
853.645	21975
853.78	22044
853.914	22097
854.048	22044
854.183	22086
854.317	22166
854.451	22348
854.585	21975
854.72	22048
854.854	22143
854.988	22002
855.122	22059
855.256	22032
855.39	21972
855.524	22192
855.658	22200
855.792	22124
855.926	22215
856.06	22158
856.194	22112
856.327	22093
856.461	22013
856.595	22044
856.729	22166
856.862	22093
856.996	22230
857.13	22070
857.263	22204
857.397	22188
857.53	22059
857.664	22154
857.797	22135
857.931	22196
858.064	22131
858.197	22268
858.331	21979
858.464	22128
858.597	21926
858.731	22101
858.864	22086
858.997	22063
859.13	22158
859.263	22196
859.396	22192
859.529	22051
859.662	22109
859.795	22143
859.928	22173
860.061	22261
860.194	22280
860.327	22162
860.46	22150
860.592	22181
860.725	22363
860.858	22314
860.99	22135
861.123	22078
861.256	21922
861.388	22196
861.521	22778
861.653	21869
861.786	21873
861.918	21926
862.05	21956
862.183	22048
862.315	22086
862.447	22196
862.58	21941
862.712	21831
862.844	21808
862.976	21854
863.108	21880
863.24	22242
863.372	21827
863.504	21823
863.636	21838
863.768	21759
863.9	21720
864.032	21819
864.164	21766
864.296	21808
864.428	21972
864.559	21865
864.691	21831
864.823	21793
864.954	21766
865.086	21800
865.217	21641
865.349	21542
865.48	21766
865.612	21743
865.743	21850
865.875	21774
866.006	21739
866.137	21652
866.269	21629
866.4	21591
866.531	21477
866.662	21667
866.793	21701
866.924	21534
867.055	21724
867.186	21675
867.317	21583
867.448	21614
867.579	21519
867.71	21523
867.841	21564
867.972	21572
868.103	21679
868.233	21595
868.364	21511
868.495	21739
868.625	21778
868.756	21949
868.886	21759
869.017	21774
869.147	21987
869.278	21915
869.408	21850
869.539	21823
869.669	21899
869.799	21903
869.929	21998
870.06	21987
870.19	22147
870.32	22177
870.45	22234
870.58	22200
870.71	22249
870.84	22314
870.97	22207
871.1	22276
871.23	22386
871.36	22402
871.489	22318
871.619	22421
871.749	22519
871.879	22348
872.008	22497
872.138	22386
872.267	22440
872.397	22310
872.526	22238
872.656	22234
872.785	22284
872.915	22523
873.044	22565
873.173	22584
873.303	22519
873.432	22611
873.561	22538
873.69	22440
873.819	22527
873.948	22542
874.077	22371
874.206	22421
874.335	22424
874.464	22504
874.593	22710
874.722	22596
874.851	22698
874.979	22615
875.108	22771
875.237	22603
875.365	22554
875.494	22660
875.623	22740
875.751	22603
875.88	22736
876.008	22771
876.136	22946
876.265	23025
876.393	23140
876.521	23022
876.65	23140
876.778	23048
876.906	23037
877.034	22949
877.162	23048
877.29	22934
877.418	23044
877.546	23037
877.674	23048
877.802	23014
877.93	22972
878.058	23067
878.185	22934
878.313	22946
878.441	23048
878.568	22923
878.696	22995
878.824	23044
878.951	22980
879.079	23212
879.206	23349
879.333	23227
879.461	23064
879.588	23025
879.715	23200
879.842	23303
879.97	23079
880.097	22881
880.224	22748
880.351	22866
880.478	22698
880.605	22679
880.732	22847
880.859	23037
880.986	22778
881.112	22824
881.239	22793
881.366	22729
881.493	22504
881.619	22398
881.746	22417
881.872	22466
881.999	22360
882.125	22287
882.252	22493
882.378	22367
882.505	22447
882.631	22284
882.757	22082
882.883	22044
883.01	22131
883.136	21975
883.262	21968
883.388	21903
883.514	22093
883.64	22196
883.766	22055
883.892	21911
884.018	21800
884.143	22002
884.269	22078
884.395	21770
884.52	21660
884.646	21736
884.772	21648
884.897	21534
885.023	21759
885.148	21797
885.274	21873
885.399	21838
885.524	21747
885.65	21713
885.775	21732
885.9	21629
886.025	21854
886.15	21751
886.275	21713
886.4	21542
886.525	21793
886.65	21614
886.775	21587
886.9	21713
887.025	21937
887.149	21797
887.274	21557
887.399	21610
887.523	21538
887.648	21538
887.773	21268
887.897	21549
888.021	21553
888.146	21355
888.27	21481
888.395	21603
888.519	21488
888.643	21538
888.767	21648
888.891	21416
889.015	21241
889.139	21336
889.263	21363
889.387	21466
889.511	21477
889.635	21329
889.759	21184
889.883	21306
890.006	21291
890.13	21389
890.254	21195
890.377	21203
890.501	21047
890.624	20944
890.748	21108
890.871	20956
890.995	20785
891.118	20815
891.241	20921
891.364	20914
891.488	20994
891.611	20826
891.734	20823
891.857	20868
891.98	20853
892.103	20891
892.226	20895
892.349	20716
892.471	20556
892.594	20697
892.717	20773
892.839	20693
892.962	20697
893.085	20849
893.207	20838
893.33	20651
893.452	20655
893.575	20750
893.697	20731
893.819	20937
893.941	20914
894.064	20830
894.186	20743
894.308	20701
894.43	20834
894.552	21001
894.674	20788
894.796	20678
894.918	20731
895.04	20731
895.161	20842
895.283	20674
895.405	20571
895.526	20667
895.648	20678
895.769	20724
895.891	20735
896.012	20842
896.134	20811
896.255	20708
896.376	20708
896.498	20735
896.619	20746
896.74	20754
896.861	20754
896.982	20990
897.103	21180
897.224	21051
897.345	20921
897.466	20899
897.587	20845
897.708	21020
897.828	20982
897.949	20948
898.07	20819
898.19	20918
898.311	21028
898.431	20811
898.552	20849
898.672	20952
898.792	21036
898.913	20994
899.033	20758
899.153	20712
899.273	20587
899.393	20644
899.513	20781
899.633	20678
899.753	20659
899.873	20663
899.993	20686
900.113	20602
900.232	20682
900.352	20533
900.472	20556
900.591	20545
900.711	20450
900.83	20343
900.95	20404
901.069	20366
901.189	20305
901.308	20119
901.427	19947
901.546	20046
901.665	20088
901.784	20115
901.904	19795
902.023	19822
902.141	19609
902.26	19559
902.379	19651
902.498	19495
902.617	19499
902.735	19594
902.854	19422
902.973	19457
903.091	19160
903.21	19316
903.328	19194
903.446	19050
903.565	19053
903.683	18932
903.801	18821
903.919	18897
904.038	18867
904.156	18829
904.274	18817
904.392	18635
904.51	18844
904.627	18700
904.745	18642
904.863	18776
904.981	18494
905.098	18467
905.216	18270
905.334	18486
905.451	18475
905.569	18407
905.686	18315
905.803	18410
905.921	18243
906.038	18311
906.155	18209
906.272	18159
906.389	18110
906.506	17988
906.623	18030
906.74	17984
906.857	17828
906.974	17889
907.091	17969
907.208	18125
907.324	17912
907.441	17817
907.557	17707
907.674	17729
907.79	17532
907.907	17573
908.023	17764
908.139	17661
908.256	17604
908.372	17467
908.488	17649
908.604	17493
908.72	17318
908.836	17364
908.952	17284
909.068	17334
909.184	17379
909.3	17429
909.415	17360
909.531	17379
909.647	17025
909.762	17113
909.878	17056
909.993	17181
910.108	17006
910.224	17086
910.339	17105
910.454	16850
910.57	16911
910.685	16812
910.8	17041
910.915	16984
911.03	16786
911.145	16809
911.259	16668
911.374	16645
911.489	16554
911.604	16481
911.718	16421
911.833	16462
911.947	16421
912.062	16169
912.176	16409
912.291	16284
912.405	16363
912.519	16618
912.633	16603
912.748	16470
912.862	16299
912.976	16306
913.09	16067
913.204	16131
913.318	16196
913.431	16200
913.545	16158
913.659	16246
913.772	16131
913.886	16059
914	16074
914.113	16139
914.226	16048
914.34	16013
914.453	15850
914.566	15934
914.68	15785
914.793	15816
914.906	15622
915.019	15542
915.132	15610
915.245	15542
915.358	15644
915.47	15538
915.583	15644
915.696	15629
915.809	15584
915.921	15610
916.034	15526
916.146	15500
916.259	15545
916.371	15561
916.483	15561
916.595	15481
916.708	15408
916.82	15389
916.932	15344
917.044	15469
917.156	15275
917.268	15108
917.38	15233
917.491	15188
917.603	15203
917.715	15188
917.826	15370
917.938	15142
918.049	15024
918.161	15214
918.272	15310
918.384	15211
918.495	15176
918.606	15028
918.717	14876
918.828	14910
918.939	14994
919.05	14811
919.161	15001
919.272	14712
919.383	14811
919.494	15036
919.604	15112
919.715	14948
919.826	14796
919.936	14902
920.047	14906
920.157	14937
920.267	15195
920.378	14929
920.488	14990
920.598	15074
920.708	15161
920.818	15032
920.928	15047
921.038	15192
921.148	15146
921.258	14914
921.368	14762
921.477	14621
921.587	14621
921.697	14625
921.806	14598
921.916	14480
922.025	14374
922.134	14370
922.244	14301
922.353	14347
922.462	14153
922.571	14084
922.68	13967
922.789	13909
922.898	13883
923.007	13890
923.116	13822
923.224	13890
923.333	13883
923.442	13727
923.55	13689
923.659	13746
923.767	13811
923.876	13734
923.984	13799
924.092	13662
924.201	13776
924.309	13651
924.417	13643
924.525	13670
924.633	13681
924.741	14583
924.849	13350
924.956	13563
925.064	13449
925.172	13285
925.279	13377
925.387	13400
925.494	13335
925.602	13438
925.709	13331
925.816	13209
925.924	13190
926.031	13316
926.138	13244
926.245	13263
926.352	13244
926.459	13278
926.566	13388
926.673	13122
926.779	13080
926.886	12939
926.993	12886
927.099	12848
927.206	12833
927.312	12798
927.419	12909
927.525	12905
927.631	12928
927.737	12764
927.843	12760
927.95	12650
928.056	12696
928.162	12753
928.267	12741
928.373	13244
928.479	12681
928.585	12544
928.69	12582
928.796	12662
928.901	12566
929.007	12422
929.112	12486
929.218	12414
929.323	12445
929.428	12388
929.533	12597
929.638	12391
929.743	12357
929.848	12437
929.953	12452
930.058	12171
930.163	12022
930.267	12064
930.372	12220
930.477	12007
930.581	12300
930.685	12136
930.79	12015
930.894	12057
930.998	11980
931.103	11999
931.207	11802
931.311	11688
931.415	11558
931.519	11406
931.623	11372
