Data from test_V78500241_842.txt Node
Date: Fri Mar 25 15:47:38 CST 2022
User: usil
Spectrometer: V785-0024
Trigger mode: 0
Integration Time (sec): 4.000000E-1
Scans to average: 1
Nonlinearity correction enabled: false
Boxcar width: 0
Storing dark spectrum: false
XAxis mode: Wavelengths
Number of Pixels in Spectrum: 1024
>>>>>Begin Spectral Data<<<<<
801.071	27892
801.214	27759
801.356	27477
801.499	27420
801.641	27211
801.783	27355
801.926	27310
802.068	27256
802.211	27195
802.353	27214
802.496	26929
802.638	26960
802.78	26952
802.923	26868
803.065	26750
803.208	26910
803.35	26990
803.492	27112
803.635	27184
803.777	26998
803.919	27142
804.061	27481
804.204	27184
804.346	27066
804.488	27013
804.63	27051
804.773	26921
804.915	27036
805.057	27355
805.199	27039
805.341	27344
805.483	27310
805.626	27370
805.768	27230
805.91	27268
806.052	27294
806.194	27249
806.336	27321
806.478	27348
806.62	27363
806.762	27272
806.904	27458
807.046	27743
807.188	27759
807.33	27694
807.472	27751
807.614	27572
807.756	27720
807.898	27496
808.04	27530
808.182	27534
808.324	27477
808.465	27641
808.607	27846
808.749	27975
808.891	28040
809.033	28082
809.174	27987
809.316	27873
809.458	27835
809.6	27842
809.741	28086
809.883	28044
810.025	28177
810.166	28265
810.308	28166
810.45	28059
810.591	27968
810.733	28101
810.875	28025
811.016	27876
811.158	27873
811.299	27949
811.441	28124
811.582	28116
811.724	27956
811.865	27880
812.007	27941
812.148	27949
812.29	27899
812.431	28150
812.573	28166
812.714	28375
812.855	28466
812.997	28588
813.138	28672
813.279	28592
813.421	28474
813.562	28424
813.703	28314
813.845	28325
813.986	28010
814.127	27774
814.268	27549
814.41	27686
814.551	27488
814.692	27682
814.833	27443
814.974	27534
815.115	27534
815.256	27477
815.397	27313
815.539	27542
815.68	27310
815.821	27325
815.962	27332
816.103	27458
816.244	27367
816.385	27252
816.526	27161
816.666	27066
816.807	26906
816.948	26956
817.089	27119
817.23	27230
817.371	27058
817.512	26777
817.653	26899
817.793	26773
817.934	26910
818.075	26963
818.216	26956
818.356	26895
818.497	26777
818.638	26655
818.778	26583
818.919	26594
819.06	26674
819.2	26716
819.341	27123
819.481	26861
819.622	27096
819.762	27241
819.903	27039
820.043	27150
820.184	26990
820.324	27195
820.465	27074
820.605	26982
820.746	26982
820.886	26735
821.026	26994
821.167	26921
821.307	27138
821.447	26876
821.588	26857
821.728	26708
821.868	26579
822.008	26347
822.149	26427
822.289	26317
822.429	26073
822.569	26008
822.709	26062
822.849	25989
822.99	25791
823.13	25837
823.27	25833
823.41	25727
823.55	25651
823.69	25681
823.83	25609
823.97	25746
824.11	25499
824.25	25533
824.389	25533
824.529	25575
824.669	25552
824.809	25590
824.949	25533
825.089	25514
825.228	25354
825.368	25377
825.508	25301
825.648	25430
825.787	25449
825.927	25419
826.067	25434
826.206	25304
826.346	25308
826.485	25506
826.625	25392
826.765	25445
826.904	25396
827.044	25217
827.183	25187
827.323	25031
827.462	25282
827.601	25179
827.741	25046
827.88	25190
828.02	24951
828.159	25168
828.298	25148
828.437	25217
828.577	25110
828.716	25225
828.855	24909
828.994	24757
829.134	24844
829.273	24749
829.412	24681
829.551	24791
829.69	24711
829.829	24722
829.968	24897
830.107	24943
830.246	24825
830.385	24673
830.524	24745
830.663	24544
830.802	24570
830.941	24414
831.08	24289
831.219	24437
831.357	24536
831.496	24509
831.635	24471
831.774	24323
831.913	24388
832.051	24178
832.19	24251
832.329	24197
832.467	24038
832.606	24030
832.744	23935
832.883	24140
833.022	24163
833.16	24117
833.299	24186
833.437	23969
833.576	24174
833.714	24163
833.852	24182
833.991	24106
834.129	24243
834.267	24270
834.406	24182
834.544	24144
834.682	24129
834.821	24190
834.959	24232
835.097	24087
835.235	24117
835.373	24041
835.511	24015
835.65	23950
835.788	24095
835.926	23813
836.064	23748
836.202	23805
836.34	23965
836.478	24053
836.615	24045
836.753	23920
836.891	24049
837.029	23961
837.167	23901
837.305	24003
837.443	23813
837.58	23798
837.718	23817
837.856	23847
837.993	23764
838.131	23779
838.269	23657
838.406	23707
838.544	23627
838.681	23459
838.819	23345
838.956	23208
839.094	23242
839.231	23288
839.369	23452
839.506	23687
839.643	23592
839.781	23117
839.918	23121
840.055	23284
840.193	23265
840.33	23185
840.467	23246
840.604	23254
840.742	23493
840.879	23075
841.016	23067
841.153	23071
841.29	23356
841.427	23098
841.564	23246
841.701	23261
841.838	23121
841.975	23083
842.112	23033
842.249	23067
842.385	22911
842.522	23258
842.659	23010
842.796	23014
842.933	22889
843.069	22965
843.206	22927
843.343	22987
843.479	22991
843.616	22892
843.752	22778
843.889	22618
844.025	23018
844.162	22740
844.298	22763
844.435	22782
844.571	22729
844.708	22755
844.844	22869
844.98	22873
845.117	22744
845.253	22797
845.389	22561
845.525	22672
845.661	22615
845.798	22405
845.934	22538
846.07	22314
846.206	22512
846.342	22523
846.478	22500
846.614	22291
846.75	22093
846.886	22154
847.022	22299
847.158	22344
847.294	22150
847.429	22306
847.565	22135
847.701	22375
847.837	21759
847.972	21915
848.108	22006
848.244	21953
848.379	21762
848.515	21728
848.65	21743
848.786	21778
848.921	21804
849.057	21869
849.192	21823
849.328	21831
849.463	21880
849.598	21705
849.734	21625
849.869	21530
850.004	21523
850.14	21625
850.275	21530
850.41	21500
850.545	21515
850.68	21443
850.815	21595
850.95	21561
851.085	21660
851.22	21622
851.355	21526
851.49	21496
851.625	21393
851.76	21526
851.895	21466
852.03	21378
852.165	21500
852.299	21519
852.434	21606
852.569	21622
852.703	21454
852.838	21682
852.973	21785
853.107	21660
853.242	21469
853.376	21405
853.511	21287
853.645	21325
853.78	21348
853.914	21412
854.048	21332
854.183	21294
854.317	21336
854.451	21534
854.585	21389
854.72	21431
854.854	21389
854.988	21321
855.122	21313
855.256	21249
855.39	21363
855.524	21428
855.658	21370
855.792	21294
855.926	21378
856.06	21481
856.194	21435
856.327	21302
856.461	21237
856.595	21264
856.729	21462
856.862	21454
856.996	21405
857.13	21519
857.263	21523
857.397	21424
857.53	21405
857.664	21370
857.797	21526
857.931	21530
858.064	21401
858.197	21492
858.331	21302
858.464	21180
858.597	21317
858.731	21374
858.864	21317
858.997	21348
859.13	21389
859.263	21401
859.396	21496
859.529	21359
859.662	21378
859.795	21260
859.928	21420
860.061	21625
860.194	21622
860.327	21500
860.46	21393
860.592	21511
860.725	21454
860.858	21355
860.99	21363
861.123	21416
861.256	21226
861.388	21252
861.521	21972
861.653	21272
861.786	21165
861.918	21272
862.05	21203
862.183	21325
862.315	21367
862.447	21344
862.58	21268
862.712	21100
862.844	21036
862.976	21154
863.108	21180
863.24	21538
863.372	21005
863.504	20986
863.636	20963
863.768	21127
863.9	21161
864.032	21081
864.164	21085
864.296	21096
864.428	21279
864.559	21207
864.691	21135
864.823	21085
864.954	21138
865.086	20956
865.217	21024
865.349	20853
865.48	20990
865.612	20914
865.743	20986
865.875	21070
866.006	20948
866.137	20944
866.269	20975
866.4	21066
866.531	20925
866.662	20872
866.793	20891
866.924	20906
867.055	20963
867.186	21013
867.317	20944
867.448	20883
867.579	20830
867.71	20834
867.841	20891
867.972	20956
868.103	20826
868.233	20990
868.364	20891
868.495	20921
868.625	21123
868.756	21165
868.886	21096
869.017	21135
869.147	21211
869.278	21230
869.408	21184
869.539	21146
869.669	21214
869.799	21150
869.929	21260
870.06	21298
870.19	21439
870.32	21367
870.45	21488
870.58	21530
870.71	21614
870.84	21679
870.97	21629
871.1	21496
871.23	21728
871.36	21682
871.489	21629
871.619	21637
871.749	21701
871.879	21781
872.008	21850
872.138	21835
872.267	21819
872.397	21610
872.526	21606
872.656	21641
872.785	21610
872.915	21800
873.044	21915
873.173	21759
873.303	21717
873.432	21759
873.561	21812
873.69	21888
873.819	21797
873.948	21698
874.077	21732
874.206	21785
874.335	21675
874.464	21918
874.593	21987
874.722	21930
874.851	22116
874.979	22112
875.108	22029
875.237	21975
875.365	21831
875.494	21918
875.623	21991
875.751	21941
875.88	21979
876.008	22139
876.136	22223
876.265	22363
876.393	22455
876.521	22424
876.65	22382
876.778	22329
876.906	22268
877.034	22261
877.162	22356
877.29	22261
877.418	22242
877.546	22363
877.674	22462
877.802	22348
877.93	22257
878.058	22215
878.185	22261
878.313	22363
878.441	22386
878.568	22082
878.696	22284
878.824	22348
878.951	22360
879.079	22535
879.206	22683
879.333	22531
879.461	22344
879.588	22504
879.715	22470
879.842	22630
879.97	22276
880.097	22150
880.224	22154
880.351	22261
880.478	22055
880.605	22181
880.732	22181
880.859	22284
880.986	22226
881.112	22287
881.239	22032
881.366	21880
881.493	21789
881.619	21785
881.746	21736
881.872	21884
881.999	21778
882.125	21865
882.252	21648
882.378	21641
882.505	21739
882.631	21622
882.757	21519
882.883	21435
883.01	21462
883.136	21317
883.262	21329
883.388	21298
883.514	21431
883.64	21370
883.766	21302
883.892	21233
884.018	21142
884.143	21405
884.269	21344
884.395	21275
884.52	21066
884.646	21108
884.772	21093
884.897	20895
885.023	21051
885.148	21188
885.274	21245
885.399	21138
885.524	20998
885.65	21039
885.775	20998
885.9	21051
886.025	21055
886.15	21211
886.275	21009
886.4	21013
886.525	21184
886.65	21047
886.775	21089
886.9	21192
887.025	21165
887.149	21070
887.274	20979
887.399	20834
887.523	20899
887.648	20842
887.773	20762
887.897	21020
888.021	20899
888.146	20883
888.27	20937
888.395	20925
888.519	20906
888.643	20826
888.767	20845
888.891	20769
889.015	20663
889.139	20632
889.263	20686
889.387	20731
889.511	20853
889.635	20712
889.759	20686
889.883	20632
890.006	20655
890.13	20716
890.254	20598
890.377	20556
890.501	20339
890.624	20366
890.748	20336
890.871	20381
890.995	20206
891.118	20233
891.241	20214
891.364	20191
891.488	20221
891.611	20164
891.734	20267
891.857	20237
891.98	20210
892.103	20309
892.226	20126
892.349	20157
892.471	20031
892.594	20142
892.717	20157
892.839	20126
892.962	20081
893.085	20282
893.207	20153
893.33	20073
893.452	20005
893.575	20043
893.697	20134
893.819	20313
893.941	20358
894.064	20267
894.186	20142
894.308	20050
894.43	20168
894.552	20233
894.674	20301
894.796	19993
894.918	20031
895.04	20107
895.161	20157
895.283	20138
895.405	20027
895.526	20149
895.648	20134
895.769	20282
895.891	20130
896.012	20180
896.134	20096
896.255	20088
896.376	20195
896.498	20214
896.619	20134
896.74	20168
896.861	20183
896.982	20404
897.103	20533
897.224	20442
897.345	20301
897.466	20290
897.587	20396
897.708	20454
897.828	20446
897.949	20282
898.07	20153
898.19	20244
898.311	20514
898.431	20317
898.552	20320
898.672	20278
898.792	20362
898.913	20412
899.033	20324
899.153	20092
899.273	19978
899.393	20111
899.513	20115
899.633	20027
899.753	20130
899.873	19951
899.993	20164
900.113	19944
900.232	20054
900.352	20050
900.472	19921
900.591	19932
900.711	19921
900.83	19761
900.95	19909
901.069	19928
901.189	19833
901.308	19510
901.427	19495
901.546	19559
901.665	19464
901.784	19506
901.904	19255
902.023	19168
902.141	18989
902.26	19012
902.379	18939
902.498	18928
902.617	18859
902.735	19042
902.854	19000
902.973	18821
903.091	18597
903.21	18582
903.328	18692
903.446	18502
903.565	18479
903.683	18410
903.801	18232
903.919	18467
904.038	18357
904.156	18327
904.274	18277
904.392	18243
904.51	18213
904.627	18072
904.745	18129
904.863	18216
904.981	18114
905.098	17889
905.216	17821
905.334	17908
905.451	17870
905.569	17843
905.686	17912
905.803	17809
905.921	17707
906.038	17805
906.155	17619
906.272	17585
906.389	17535
906.506	17421
906.623	17421
906.74	17326
906.857	17307
906.974	17364
907.091	17433
907.208	17543
907.324	17429
907.441	17315
907.557	17193
907.674	17075
907.79	17071
907.907	17033
908.023	17147
908.139	17041
908.256	17121
908.372	17018
908.488	17010
908.604	16862
908.72	16748
908.836	16820
908.952	16934
909.068	16797
909.184	16938
909.3	16854
909.415	16824
909.531	16816
909.647	16580
909.762	16535
909.878	16474
909.993	16558
910.108	16455
910.224	16497
910.339	16500
910.454	16462
910.57	16272
910.685	16280
910.8	16596
910.915	16489
911.03	16284
911.145	16265
911.259	16131
911.374	16116
911.489	16116
911.604	16010
911.718	15831
911.833	15926
911.947	15846
912.062	15747
912.176	15888
912.291	15838
912.405	15937
912.519	16082
912.633	16128
912.748	15888
912.862	15713
912.976	15755
913.09	15614
913.204	15641
913.318	15732
913.431	15793
913.545	15789
913.659	15861
913.772	15698
913.886	15641
914	15447
914.113	15641
914.226	15568
914.34	15542
914.453	15393
914.566	15530
914.68	15492
914.793	15374
914.906	15157
915.019	15169
915.132	15127
915.245	15116
915.358	15214
915.47	15135
915.583	15135
915.696	15165
915.809	15173
915.921	15180
916.034	14998
916.146	14963
916.259	14982
916.371	15108
916.483	15123
916.595	14963
916.708	14906
916.82	14952
916.932	14921
917.044	14952
917.156	14807
917.268	14750
917.38	14853
917.491	14743
917.603	14842
917.715	14876
917.826	14887
917.938	14739
918.049	14644
918.161	14667
918.272	14876
918.384	14792
918.495	14651
918.606	14522
918.717	14598
918.828	14651
918.939	14602
919.05	14374
919.161	14602
919.272	14370
919.383	14294
919.494	14629
919.604	14670
919.715	14514
919.826	14465
919.936	14434
920.047	14556
920.157	14461
920.267	14708
920.378	14503
920.488	14461
920.598	14575
920.708	14758
920.818	14556
920.928	14648
921.038	14792
921.148	14712
921.258	14442
921.368	14358
921.477	14161
921.587	14199
921.697	14119
921.806	14202
921.916	14043
922.025	13967
922.134	13879
922.244	13795
922.353	13917
922.462	13712
922.571	13689
922.68	13613
922.789	13483
922.898	13575
923.007	13514
923.116	13571
923.224	13476
923.333	13438
923.442	13464
923.55	13358
923.659	13426
923.767	13426
923.876	13232
923.984	13270
924.092	13244
924.201	13373
924.309	13285
924.417	13270
924.525	13244
924.633	13251
924.741	14088
924.849	12951
924.956	13156
925.064	12954
925.172	12882
925.279	12798
925.387	12993
925.494	12882
925.602	13126
925.709	12878
925.816	12779
925.924	12848
926.031	13008
926.138	12848
926.245	12905
926.352	12776
926.459	12859
926.566	12989
926.673	12734
926.779	12646
926.886	12741
926.993	12479
927.099	12544
927.206	12582
927.312	12509
927.419	12547
927.525	12483
927.631	12563
927.737	12350
927.843	12380
927.95	12224
928.056	12315
928.162	12452
928.267	12494
928.373	12977
928.479	12445
928.585	12133
928.69	12334
928.796	12285
928.901	12243
929.007	12034
929.112	12194
929.218	12110
929.323	12087
929.428	12057
929.533	12148
929.638	12003
929.743	12057
929.848	12034
929.953	12095
930.058	11866
930.163	11680
930.267	11737
930.372	11813
930.477	11722
930.581	12015
930.685	11729
930.79	11577
930.894	11699
930.998	11710
931.103	11748
931.207	11364
931.311	11303
931.415	11246
931.519	10995
931.623	10949
