Data from test_V78500241_209.txt Node
Date: Fri Mar 25 15:43:14 CST 2022
User: usil
Spectrometer: V785-0024
Trigger mode: 0
Integration Time (sec): 4.000000E-1
Scans to average: 1
Nonlinearity correction enabled: false
Boxcar width: 0
Storing dark spectrum: false
XAxis mode: Wavelengths
Number of Pixels in Spectrum: 1024
>>>>>Begin Spectral Data<<<<<
801.071	29471
801.214	29657
801.356	29277
801.499	29258
801.641	29174
801.783	29064
801.926	29254
802.068	29003
802.211	29060
802.353	29003
802.496	28862
802.638	28664
802.78	28664
802.923	28588
803.065	28603
803.208	28710
803.35	28793
803.492	28843
803.635	28927
803.777	28740
803.919	28828
804.061	29193
804.204	28805
804.346	28900
804.488	28702
804.63	28763
804.773	28649
804.915	28843
805.057	28820
805.199	28927
805.341	28927
805.483	29014
805.626	28968
805.768	28862
805.91	29079
806.052	28843
806.194	28839
806.336	29166
806.478	29041
806.62	28995
806.762	29060
806.904	29330
807.046	29436
807.188	29341
807.33	29299
807.472	29425
807.614	29151
807.756	29254
807.898	29018
808.04	29109
808.182	29193
808.324	29181
808.465	29189
808.607	29395
808.749	29368
808.891	29459
809.033	29718
809.174	29490
809.316	29417
809.458	29356
809.6	29417
809.741	29577
809.883	29684
810.025	29710
810.166	29802
810.308	29828
810.45	29653
810.591	29638
810.733	29421
810.875	29619
811.016	29395
811.158	29414
811.299	29531
811.441	29748
811.582	29516
811.724	29303
811.865	29421
812.007	29478
812.148	29368
812.29	29379
812.431	29570
812.573	29760
812.714	29809
812.855	29980
812.997	30091
813.138	30045
813.279	30133
813.421	30007
813.562	29882
813.703	29756
813.845	29695
813.986	29429
814.127	29261
814.268	29094
814.41	29128
814.551	29075
814.692	29071
814.833	29037
814.974	29018
815.115	29083
815.256	28873
815.397	28961
815.539	28896
815.68	28904
815.821	28649
815.962	29022
816.103	28968
816.244	28740
816.385	28634
816.526	28637
816.666	28421
816.807	28363
816.948	28371
817.089	28417
817.23	28223
817.371	28242
817.512	28337
817.653	28219
817.793	28188
817.934	28257
818.075	28424
818.216	28299
818.356	28105
818.497	27994
818.638	27926
818.778	28029
818.919	27888
819.06	28021
819.2	28063
819.341	28162
819.481	28173
819.622	28226
819.762	28401
819.903	28417
820.043	28424
820.184	28223
820.324	28196
820.465	28405
820.605	28268
820.746	28318
820.886	28097
821.026	28318
821.167	28325
821.307	28390
821.447	28166
821.588	28074
821.728	27876
821.868	27861
822.008	27561
822.149	27789
822.289	27580
822.429	27466
822.569	27287
822.709	27291
822.849	27127
822.99	27199
823.13	27116
823.27	27123
823.41	26845
823.55	26762
823.69	26773
823.83	26895
823.97	26906
824.11	26758
824.25	26796
824.389	26708
824.529	26765
824.669	26750
824.809	26773
824.949	26823
825.089	26727
825.228	26773
825.368	26442
825.508	26431
825.648	26549
825.787	26522
825.927	26682
826.067	26488
826.206	26583
826.346	26674
826.485	26663
826.625	26465
826.765	26571
826.904	26549
827.044	26290
827.183	26237
827.323	26191
827.462	26271
827.601	26115
827.741	26138
827.88	26233
828.02	26020
828.159	26153
828.298	26271
828.437	26195
828.577	26142
828.716	26221
828.855	26008
828.994	25852
829.134	25955
829.273	25955
829.412	25890
829.551	25894
829.69	25947
829.829	25887
829.968	25936
830.107	25936
830.246	25868
830.385	25887
830.524	25731
830.663	25518
830.802	25506
830.941	25441
831.08	25381
831.219	25514
831.357	25578
831.496	25624
831.635	25422
831.774	25282
831.913	25213
832.051	25217
832.19	25080
832.329	25285
832.467	25110
832.606	25008
832.744	25069
832.883	25008
833.022	25027
833.16	25080
833.299	25046
833.437	25091
833.576	25183
833.714	25164
833.852	25145
833.991	25160
834.129	25365
834.267	25187
834.406	25076
834.544	25141
834.682	25000
834.821	25107
834.959	25118
835.097	24844
835.235	25152
835.373	25027
835.511	24943
835.65	24958
835.788	24787
835.926	24776
836.064	24696
836.202	24715
836.34	24905
836.478	24871
836.615	24951
836.753	24890
836.891	24810
837.029	24791
837.167	24719
837.305	24909
837.443	24840
837.58	24738
837.718	24776
837.856	24692
837.993	24654
838.131	24707
838.269	24494
838.406	24585
838.544	24536
838.681	24410
838.819	24300
838.956	24072
839.094	24072
839.231	24087
839.369	24205
839.506	24445
839.643	24422
839.781	24087
839.918	23992
840.055	23969
840.193	24015
840.33	23935
840.467	23935
840.604	24068
840.742	24361
840.879	23939
841.016	24018
841.153	23878
841.29	23999
841.427	23847
841.564	23999
841.701	23969
841.838	24038
841.975	23805
842.112	24007
842.249	23691
842.385	23649
842.522	23859
842.659	23775
842.796	23710
842.933	23745
843.069	23535
843.206	23646
843.343	23592
843.479	23680
843.616	23634
843.752	23478
843.889	23444
844.025	23566
844.162	23395
844.298	23505
844.435	23414
844.571	23444
844.708	23463
844.844	23547
844.98	23539
845.117	23520
845.253	23467
845.389	23303
845.525	23345
845.661	23334
845.798	23147
845.934	23216
846.07	23048
846.206	23204
846.342	23353
846.478	23022
846.614	22885
846.75	22869
846.886	22805
847.022	22889
847.158	22930
847.294	22949
847.429	22911
847.565	22835
847.701	22927
847.837	22588
847.972	22535
848.108	22607
848.244	22550
848.379	22348
848.515	22413
848.65	22443
848.786	22557
848.921	22424
849.057	22554
849.192	22432
849.328	22371
849.463	22329
849.598	22405
849.734	22287
849.869	22131
850.004	22139
850.14	22230
850.275	22116
850.41	22147
850.545	22154
850.68	22051
850.815	22322
850.95	22063
851.085	22192
851.22	22215
851.355	22238
851.49	22063
851.625	22010
851.76	22177
851.895	22097
852.03	22029
852.165	22150
852.299	22325
852.434	22154
852.569	22173
852.703	22173
852.838	22124
852.973	22188
853.107	22226
853.242	22017
853.376	21937
853.511	21679
853.645	21911
853.78	22040
853.914	21945
854.048	21861
854.183	21880
854.317	21911
854.451	22074
854.585	21823
854.72	21953
854.854	22082
854.988	21857
855.122	21888
855.256	21774
855.39	21838
855.524	21972
855.658	21861
855.792	21895
855.926	21964
856.06	21941
856.194	21983
856.327	21770
856.461	21873
856.595	21808
856.729	21819
856.862	21861
856.996	21945
857.13	21975
857.263	21975
857.397	21941
857.53	21797
857.664	21953
857.797	21945
857.931	21937
858.064	21884
858.197	21956
858.331	21854
858.464	21797
858.597	21781
858.731	21911
858.864	21827
858.997	21808
859.13	21884
859.263	21857
859.396	21991
859.529	21751
859.662	21713
859.795	21724
859.928	21838
860.061	21949
860.194	22044
860.327	21857
860.46	21797
860.592	21869
860.725	21964
860.858	21949
860.99	21918
861.123	21789
861.256	21568
861.388	21751
861.521	22466
861.653	21641
861.786	21603
861.918	21720
862.05	21732
862.183	21789
862.315	21930
862.447	21926
862.58	21804
862.712	21587
862.844	21450
862.976	21587
863.108	21538
863.24	21956
863.372	21507
863.504	21416
863.636	21469
863.768	21553
863.9	21564
864.032	21507
864.164	21473
864.296	21492
864.428	21561
864.559	21545
864.691	21564
864.823	21485
864.954	21603
865.086	21420
865.217	21447
865.349	21336
865.48	21363
865.612	21454
865.743	21485
865.875	21587
866.006	21245
866.137	21412
866.269	21405
866.4	21329
866.531	21447
866.662	21245
866.793	21325
866.924	21260
867.055	21405
867.186	21367
867.317	21279
867.448	21173
867.579	21329
867.71	21291
867.841	21154
867.972	21260
868.103	21268
868.233	21374
868.364	21340
868.495	21507
868.625	21466
868.756	21736
868.886	21568
869.017	21488
869.147	21663
869.278	21606
869.408	21610
869.539	21599
869.669	21549
869.799	21534
869.929	21591
870.06	21690
870.19	21930
870.32	21873
870.45	21873
870.58	21979
870.71	22040
870.84	22029
870.97	21907
871.1	21949
871.23	22139
871.36	22226
871.489	22074
871.619	22131
871.749	22120
871.879	22215
872.008	22299
872.138	22143
872.267	22093
872.397	22021
872.526	21930
872.656	21972
872.785	21956
872.915	22185
873.044	22051
873.173	22067
873.303	22230
873.432	22181
873.561	22272
873.69	22158
873.819	22226
873.948	22325
874.077	22154
874.206	22120
874.335	22135
874.464	22284
874.593	22375
874.722	22440
874.851	22500
874.979	22466
875.108	22386
875.237	22314
875.365	22325
875.494	22462
875.623	22459
875.751	22253
875.88	22451
876.008	22531
876.136	22519
876.265	22755
876.393	22885
876.521	22881
876.65	22919
876.778	22782
876.906	22660
877.034	22721
877.162	22710
877.29	22721
877.418	22812
877.546	22763
877.674	22744
877.802	22740
877.93	22679
878.058	22820
878.185	22687
878.313	22683
878.441	22771
878.568	22550
878.696	22961
878.824	22866
878.951	22854
879.079	22892
879.206	23014
879.333	22862
879.461	22774
879.588	22904
879.715	23010
879.842	23041
879.97	22824
880.097	22668
880.224	22584
880.351	22634
880.478	22569
880.605	22645
880.732	22516
880.859	22847
880.986	22550
881.112	22557
881.239	22497
881.366	22291
881.493	22150
881.619	22246
881.746	22162
881.872	22074
881.999	22017
882.125	22109
882.252	22135
882.378	22112
882.505	22215
882.631	22010
882.757	21892
882.883	21895
883.01	21819
883.136	21842
883.262	21660
883.388	21854
883.514	21804
883.64	21895
883.766	21739
883.892	21698
884.018	21644
884.143	21762
884.269	21827
884.395	21583
884.52	21538
884.646	21466
884.772	21386
884.897	21386
885.023	21523
885.148	21599
885.274	21568
885.399	21610
885.524	21447
885.65	21492
885.775	21431
885.9	21458
886.025	21603
886.15	21488
886.275	21374
886.4	21310
886.525	21317
886.65	21416
886.775	21473
886.9	21587
887.025	21675
887.149	21443
887.274	21230
887.399	21245
887.523	21340
887.648	21192
887.773	21096
887.897	21317
888.021	21252
888.146	21195
888.27	21249
888.395	21146
888.519	21214
888.643	21203
888.767	21264
888.891	21096
889.015	21123
889.139	21089
889.263	21055
889.387	21146
889.511	21180
889.635	21005
889.759	21013
889.883	20933
890.006	21100
890.13	21077
890.254	20823
890.377	20754
890.501	20686
890.624	20602
890.748	20758
890.871	20667
890.995	20419
891.118	20499
891.241	20473
891.364	20514
891.488	20708
891.611	20587
891.734	20518
891.857	20632
891.98	20594
892.103	20674
892.226	20514
892.349	20419
892.471	20286
892.594	20473
892.717	20511
892.839	20362
892.962	20560
893.085	20457
893.207	20465
893.33	20267
893.452	20366
893.575	20511
893.697	20267
893.819	20632
893.941	20765
894.064	20552
894.186	20328
894.308	20389
894.43	20606
894.552	20488
894.674	20545
894.796	20370
894.918	20339
895.04	20419
895.161	20541
895.283	20427
895.405	20389
895.526	20389
895.648	20480
895.769	20488
895.891	20434
896.012	20568
896.134	20556
896.255	20552
896.376	20484
896.498	20564
896.619	20450
896.74	20431
896.861	20450
896.982	20864
897.103	20994
897.224	20701
897.345	20697
897.466	20708
897.587	20712
897.708	20754
897.828	20754
897.949	20655
898.07	20571
898.19	20560
898.311	20731
898.431	20606
898.552	20667
898.672	20746
898.792	20765
898.913	20651
899.033	20450
899.153	20423
899.273	20309
899.393	20263
899.513	20431
899.633	20347
899.753	20412
899.873	20233
899.993	20518
900.113	20267
900.232	20218
900.352	20347
900.472	20244
900.591	20138
900.711	20145
900.83	20126
900.95	20157
901.069	20393
901.189	20107
901.308	19788
901.427	19696
901.546	19803
901.665	19849
901.784	19803
901.904	19681
902.023	19567
902.141	19263
902.26	19183
902.379	19362
902.498	19225
902.617	19278
902.735	19240
902.854	19175
902.973	19187
903.091	18909
903.21	18916
903.328	18779
903.446	18783
903.565	18711
903.683	18722
903.801	18654
903.919	18623
904.038	18635
904.156	18498
904.274	18589
904.392	18490
904.51	18369
904.627	18464
904.745	18460
904.863	18563
904.981	18163
905.098	18011
905.216	18087
905.334	18098
905.451	18133
905.569	18129
905.686	18079
905.803	18083
905.921	17984
906.038	17969
906.155	17904
906.272	17863
906.389	17927
906.506	17604
906.623	17596
906.74	17619
906.857	17425
906.974	17486
907.091	17547
907.208	17676
907.324	17638
907.441	17493
907.557	17395
907.674	17326
907.79	17318
907.907	17318
908.023	17292
908.139	17204
908.256	17151
908.372	17185
908.488	17140
908.604	16968
908.72	17010
908.836	17083
908.952	16980
909.068	16949
909.184	17117
909.3	17083
909.415	16919
909.531	16965
909.647	16725
909.762	16790
909.878	16653
909.993	16797
910.108	16710
910.224	16717
910.339	16607
910.454	16447
910.57	16455
910.685	16356
910.8	16736
910.915	16626
911.03	16436
911.145	16303
911.259	16173
911.374	16226
911.489	16192
911.604	16226
911.718	16071
911.833	16002
911.947	15941
912.062	15835
912.176	16074
912.291	16055
912.405	16059
912.519	16215
912.633	16150
912.748	15998
912.862	15937
912.976	15781
913.09	15736
913.204	15804
913.318	15720
913.431	15934
913.545	15797
913.659	15934
913.772	15808
913.886	15614
914	15538
914.113	15656
914.226	15667
914.34	15667
914.453	15481
914.566	15736
914.68	15523
914.793	15473
914.906	15230
915.019	15230
915.132	15173
915.245	15195
915.358	15245
915.47	15222
915.583	15268
915.696	15135
915.809	15363
915.921	15355
916.034	15176
916.146	15108
916.259	15081
916.371	15085
916.483	15252
916.595	14971
916.708	15074
916.82	15013
916.932	14944
917.044	14990
917.156	14975
917.268	14902
917.38	14864
917.491	14819
917.603	14864
917.715	15028
917.826	14853
917.938	14800
918.049	14697
918.161	14872
918.272	15020
918.384	14845
918.495	14857
918.606	14678
918.717	14602
918.828	14625
918.939	14659
919.05	14617
919.161	14598
919.272	14362
919.383	14381
919.494	14632
919.604	14838
919.715	14632
919.826	14469
919.936	14476
920.047	14613
920.157	14499
920.267	14750
920.378	14530
920.488	14518
920.598	14712
920.708	14902
920.818	14697
920.928	14678
921.038	14834
921.148	14769
921.258	14461
921.368	14370
921.477	14282
921.587	14286
921.697	14039
921.806	14317
921.916	14153
922.025	13993
922.134	13940
922.244	13788
922.353	13944
922.462	13791
922.571	13689
922.68	13594
922.789	13483
922.898	13601
923.007	13388
923.116	13578
923.224	13403
923.333	13480
923.442	13384
923.55	13369
923.659	13343
923.767	13392
923.876	13335
923.984	13377
924.092	13217
924.201	13297
924.309	13301
924.417	13209
924.525	13194
924.633	13152
924.741	13902
924.849	12966
924.956	13137
925.064	12962
925.172	12871
925.279	13004
925.387	12981
925.494	12913
925.602	13088
925.709	13031
925.816	12848
925.924	12905
926.031	13027
926.138	12875
926.245	12939
926.352	12753
926.459	12928
926.566	13012
926.673	12856
926.779	12719
926.886	12681
926.993	12642
927.099	12536
927.206	12437
927.312	12391
927.419	12555
927.525	12506
927.631	12486
927.737	12353
927.843	12289
927.95	12220
928.056	12247
928.162	12289
928.267	12376
928.373	12916
928.479	12407
928.585	12186
928.69	12224
928.796	12209
928.901	12216
929.007	12011
929.112	12209
929.218	12114
929.323	12015
929.428	12057
929.533	12144
929.638	11942
929.743	11965
929.848	12034
929.953	11893
930.058	11897
930.163	11680
930.267	11790
930.372	11767
930.477	11611
930.581	11904
930.685	11794
930.79	11543
930.894	11668
930.998	11642
931.103	11733
931.207	11296
931.311	11277
931.415	11254
931.519	10991
931.623	10915
