Data from test_V78500241_3175.txt Node
Date: Fri Mar 25 16:03:47 CST 2022
User: usil
Spectrometer: V785-0024
Trigger mode: 0
Integration Time (sec): 4.000000E-1
Scans to average: 1
Nonlinearity correction enabled: false
Boxcar width: 0
Storing dark spectrum: false
XAxis mode: Wavelengths
Number of Pixels in Spectrum: 1024
>>>>>Begin Spectral Data<<<<<
801.071	28561
801.214	28592
801.356	28314
801.499	28356
801.641	28204
801.783	28223
801.926	28223
802.068	28238
802.211	28067
802.353	28097
802.496	28002
802.638	27850
802.78	27724
802.923	27808
803.065	27667
803.208	27762
803.35	27739
803.492	27979
803.635	27960
803.777	28025
803.919	28032
804.061	28489
804.204	28109
804.346	28078
804.488	27975
804.63	27949
804.773	28070
804.915	28246
805.057	28329
805.199	28070
805.341	28246
805.483	28230
805.626	28246
805.768	28131
805.91	28276
806.052	28329
806.194	28226
806.336	28443
806.478	28196
806.62	28268
806.762	28276
806.904	28493
807.046	28759
807.188	28721
807.33	28683
807.472	28763
807.614	28607
807.756	28713
807.898	28618
808.04	28405
808.182	28523
808.324	28557
808.465	28630
808.607	28736
808.749	28866
808.891	29064
809.033	29094
809.174	28999
809.316	28881
809.458	28885
809.6	28888
809.741	28968
809.883	29109
810.025	29128
810.166	29166
810.308	29269
810.45	29170
810.591	29117
810.733	28854
810.875	28930
811.016	28858
811.158	28691
811.299	29033
811.441	29208
811.582	29143
811.724	28991
811.865	28908
812.007	29025
812.148	28733
812.29	28976
812.431	29044
812.573	29303
812.714	29433
812.855	29486
812.997	29615
813.138	29649
813.279	29611
813.421	29558
813.562	29429
813.703	29174
813.845	29250
813.986	28809
814.127	28774
814.268	28622
814.41	28706
814.551	28664
814.692	28778
814.833	28512
814.974	28599
815.115	28740
815.256	28436
815.397	28470
815.539	28637
815.68	28466
815.821	28276
815.962	28470
816.103	28375
816.244	28409
816.385	28257
816.526	28147
816.666	28067
816.807	27968
816.948	27975
817.089	28036
817.23	28032
817.371	28013
817.512	27876
817.653	27934
817.793	27903
817.934	27888
818.075	28059
818.216	28097
818.356	27755
818.497	27888
818.638	27724
818.778	27770
818.919	27789
819.06	27808
819.2	27835
819.341	27880
819.481	27892
819.622	28230
819.762	28428
819.903	28280
820.043	28242
820.184	28070
820.324	28078
820.465	28055
820.605	28139
820.746	28078
820.886	27956
821.026	28059
821.167	28211
821.307	28154
821.447	27899
821.588	27854
821.728	27854
821.868	27595
822.008	27351
822.149	27416
822.289	27401
822.429	27154
822.569	27176
822.709	27142
822.849	27001
822.99	26960
823.13	26899
823.27	26819
823.41	26895
823.55	26686
823.69	26773
823.83	27028
823.97	26849
824.11	26636
824.25	26613
824.389	26438
824.529	26708
824.669	26659
824.809	26693
824.949	26682
825.089	26720
825.228	26541
825.368	26545
825.508	26404
825.648	26499
825.787	26492
825.927	26568
826.067	26442
826.206	26530
826.346	26667
826.485	26438
826.625	26621
826.765	26640
826.904	26412
827.044	26438
827.183	26298
827.323	26187
827.462	26267
827.601	26088
827.741	26183
827.88	26199
828.02	26081
828.159	26149
828.298	26134
828.437	26240
828.577	26180
828.716	26187
828.855	26077
828.994	25928
829.134	25879
829.273	25978
829.412	25803
829.551	25780
829.69	25917
829.829	25898
829.968	25997
830.107	25913
830.246	25890
830.385	25780
830.524	25742
830.663	25765
830.802	25693
830.941	25601
831.08	25487
831.219	25613
831.357	25582
831.496	25628
831.635	25548
831.774	25411
831.913	25304
832.051	25179
832.19	25422
832.329	25377
832.467	25236
832.606	25050
832.744	25084
832.883	25187
833.022	25050
833.16	25171
833.299	25335
833.437	25152
833.576	25270
833.714	25175
833.852	25175
833.991	25327
834.129	25293
834.267	25255
834.406	25198
834.544	25327
834.682	25244
834.821	25164
834.959	25240
835.097	25141
835.235	25266
835.373	25247
835.511	25164
835.65	25061
835.788	25088
835.926	24954
836.064	24886
836.202	24821
836.34	25015
836.478	25080
836.615	25019
836.753	25004
836.891	25213
837.029	25038
837.167	25000
837.305	24973
837.443	24916
837.58	24821
837.718	25012
837.856	24962
837.993	24768
838.131	24859
838.269	24856
838.406	24776
838.544	24646
838.681	24540
838.819	24544
838.956	24372
839.094	24376
839.231	24483
839.369	24547
839.506	24726
839.643	24608
839.781	24429
839.918	24361
840.055	24296
840.193	24365
840.33	24144
840.467	24205
840.604	24281
840.742	24601
840.879	24079
841.016	24285
841.153	24205
841.29	24292
841.427	24205
841.564	24220
841.701	24247
841.838	24163
841.975	24197
842.112	24148
842.249	24079
842.385	24041
842.522	24190
842.659	24083
842.796	24068
842.933	24060
843.069	23897
843.206	24095
843.343	24117
843.479	24060
843.616	23942
843.752	23767
843.889	23783
844.025	23885
844.162	23771
844.298	23969
844.435	23840
844.571	23847
844.708	23809
844.844	24011
844.98	23882
845.117	24011
845.253	23794
845.389	23695
845.525	23657
845.661	23528
845.798	23505
845.934	23630
846.07	23577
846.206	23444
846.342	23558
846.478	23436
846.614	23254
846.75	23277
846.886	23288
847.022	23360
847.158	23356
847.294	23303
847.429	23246
847.565	23208
847.701	23467
847.837	22930
847.972	22980
848.108	23067
848.244	23064
848.379	22820
848.515	22782
848.65	22869
848.786	22877
848.921	22942
849.057	22896
849.192	22850
849.328	22854
849.463	22934
849.598	22869
849.734	22660
849.869	22706
850.004	22721
850.14	22565
850.275	22641
850.41	22500
850.545	22489
850.68	22626
850.815	22702
850.95	22622
851.085	22850
851.22	22774
851.355	22630
851.49	22649
851.625	22565
851.76	22710
851.895	22470
852.03	22451
852.165	22596
852.299	22675
852.434	22744
852.569	22668
852.703	22554
852.838	22573
852.973	22767
853.107	22713
853.242	22580
853.376	22394
853.511	22276
853.645	22360
853.78	22478
853.914	22459
854.048	22382
854.183	22527
854.317	22519
854.451	22542
854.585	22390
854.72	22390
854.854	22481
854.988	22249
855.122	22337
855.256	22333
855.39	22398
855.524	22447
855.658	22516
855.792	22421
855.926	22470
856.06	22447
856.194	22546
856.327	22447
856.461	22356
856.595	22352
856.729	22481
856.862	22462
856.996	22443
857.13	22455
857.263	22497
857.397	22565
857.53	22379
857.664	22489
857.797	22493
857.931	22527
858.064	22417
858.197	22478
858.331	22363
858.464	22382
858.597	22417
858.731	22367
858.864	22367
858.997	22382
859.13	22489
859.263	22390
859.396	22417
859.529	22356
859.662	22386
859.795	22287
859.928	22523
860.061	22603
860.194	22664
860.327	22459
860.46	22443
860.592	22660
860.725	22527
860.858	22554
860.99	22489
861.123	22375
861.256	22409
861.388	22371
861.521	23280
861.653	22185
861.786	22158
861.918	22238
862.05	22253
862.183	22390
862.315	22333
862.447	22485
862.58	22299
862.712	22131
862.844	22158
862.976	22371
863.108	22181
863.24	22531
863.372	22067
863.504	22116
863.636	22139
863.768	22124
863.9	22219
864.032	22059
864.164	22055
864.296	22185
864.428	22318
864.559	22284
864.691	22234
864.823	22177
864.954	22257
865.086	22147
865.217	22086
865.349	22036
865.48	22059
865.612	22029
865.743	22082
865.875	22090
866.006	22067
866.137	21949
866.269	22051
866.4	21972
866.531	21892
866.662	21953
866.793	22010
866.924	21964
867.055	21934
867.186	21975
867.317	21949
867.448	21838
867.579	21964
867.71	21915
867.841	21918
867.972	21972
868.103	21892
868.233	21911
868.364	21972
868.495	21953
868.625	22158
868.756	22253
868.886	22204
869.017	22329
869.147	22287
869.278	22329
869.408	22166
869.539	22116
869.669	22230
869.799	22211
869.929	22325
870.06	22333
870.19	22481
870.32	22352
870.45	22577
870.58	22611
870.71	22736
870.84	22736
870.97	22535
871.1	22611
871.23	22713
871.36	22797
871.489	22740
871.619	22786
871.749	22805
871.879	22812
872.008	22740
872.138	22767
872.267	22873
872.397	22683
872.526	22546
872.656	22573
872.785	22538
872.915	22809
873.044	22843
873.173	22816
873.303	22797
873.432	22938
873.561	22748
873.69	22736
873.819	22797
873.948	22793
874.077	22782
874.206	22710
874.335	22839
874.464	22889
874.593	22938
874.722	22987
874.851	23064
874.979	23090
875.108	23086
875.237	23022
875.365	22828
875.494	22889
875.623	23067
875.751	22965
875.88	23003
876.008	23220
876.136	23166
876.265	23360
876.393	23501
876.521	23425
876.65	23421
876.778	23417
876.906	23417
877.034	23414
877.162	23444
877.29	23132
877.418	23524
877.546	23341
877.674	23395
877.802	23372
877.93	23345
878.058	23414
878.185	23246
878.313	23322
878.441	23410
878.568	23109
878.696	23216
878.824	23303
878.951	23402
879.079	23452
879.206	23623
879.333	23630
879.461	23330
879.588	23516
879.715	23486
879.842	23600
879.97	23356
880.097	23143
880.224	23212
880.351	23269
880.478	23239
880.605	23178
880.732	23189
880.859	23292
880.986	23155
881.112	23197
881.239	23018
881.366	22889
881.493	22869
881.619	22725
881.746	22930
881.872	22733
881.999	22831
882.125	22691
882.252	22660
882.378	22675
882.505	22896
882.631	22615
882.757	22390
882.883	22402
883.01	22546
883.136	22421
883.262	22295
883.388	22284
883.514	22413
883.64	22344
883.766	22363
883.892	22238
884.018	22246
884.143	22341
884.269	22390
884.395	22188
884.52	22036
884.646	22067
884.772	21972
884.897	21983
885.023	21960
885.148	22150
885.274	22196
885.399	22162
885.524	22078
885.65	22025
885.775	22017
885.9	22025
886.025	22036
886.15	22154
886.275	21991
886.4	21892
886.525	22181
886.65	22013
886.775	21998
886.9	22124
887.025	22112
887.149	22059
887.274	21789
887.399	21835
887.523	21861
887.648	21793
887.773	21732
887.897	21873
888.021	21861
888.146	21785
888.27	21781
888.395	21991
888.519	21793
888.643	21937
888.767	21789
888.891	21713
889.015	21572
889.139	21656
889.263	21587
889.387	21861
889.511	21774
889.635	21720
889.759	21420
889.883	21603
890.006	21682
890.13	21595
890.254	21504
890.377	21416
890.501	21408
890.624	21302
890.748	21332
890.871	21207
890.995	21096
891.118	21081
891.241	21222
891.364	21085
891.488	21245
891.611	21055
891.734	21188
891.857	21161
891.98	21138
892.103	21306
892.226	21237
892.349	21173
892.471	21001
892.594	21013
892.717	21146
892.839	21062
892.962	21051
893.085	21047
893.207	20925
893.33	21032
893.452	20914
893.575	21199
893.697	21024
893.819	21192
893.941	21176
894.064	21230
894.186	20986
894.308	20956
894.43	21230
894.552	21154
894.674	21154
894.796	20963
894.918	20967
895.04	20956
895.161	21070
895.283	21017
895.405	20925
895.526	21013
895.648	20960
895.769	21001
895.891	21020
896.012	21066
896.134	21131
896.255	20941
896.376	20914
896.498	21131
896.619	20990
896.74	20986
896.861	21039
896.982	21382
897.103	21393
897.224	21203
897.345	21260
897.466	21207
897.587	21184
897.708	21325
897.828	21233
897.949	21108
898.07	21093
898.19	21222
898.311	21329
898.431	21218
898.552	21199
898.672	21157
898.792	21294
898.913	21249
899.033	21123
899.153	21055
899.273	20883
899.393	20910
899.513	20929
899.633	20960
899.753	20902
899.873	20929
899.993	20971
900.113	20762
900.232	20906
900.352	20838
900.472	20857
900.591	20629
900.711	20606
900.83	20632
900.95	20826
901.069	20769
901.189	20659
901.308	20454
901.427	20218
901.546	20164
901.665	20225
901.784	20309
901.904	20214
902.023	20069
902.141	19890
902.26	19712
902.379	19864
902.498	19784
902.617	19822
902.735	19727
902.854	19769
902.973	19635
903.091	19571
903.21	19407
903.328	19499
903.446	19396
903.565	19274
903.683	19168
903.801	19156
903.919	19187
904.038	19213
904.156	18993
904.274	19091
904.392	18935
904.51	18932
904.627	19114
904.745	19061
904.863	19019
904.981	18840
905.098	18627
905.216	18779
905.334	18616
905.451	18722
905.569	18623
905.686	18627
905.803	18604
905.921	18540
906.038	18513
906.155	18498
906.272	18464
906.389	18410
906.506	18232
906.623	18228
906.74	18163
906.857	18072
906.974	18201
907.091	18182
907.208	18304
907.324	18190
907.441	18041
907.557	17980
907.674	17996
907.79	17836
907.907	17984
908.023	17977
908.139	17870
908.256	17889
908.372	17813
908.488	17859
908.604	17649
908.72	17619
908.836	17623
908.952	17551
909.068	17733
909.184	17611
909.3	17699
909.415	17630
909.531	17490
909.647	17444
909.762	17368
909.878	17311
909.993	17242
910.108	17284
910.224	17223
910.339	17227
910.454	17132
910.57	17223
910.685	17083
910.8	17349
910.915	17200
911.03	17094
911.145	16949
911.259	16919
911.374	16892
911.489	16790
911.604	16820
911.718	16603
911.833	16630
911.947	16596
912.062	16443
912.176	16592
912.291	16740
912.405	16733
912.519	16755
912.633	16797
912.748	16668
912.862	16634
912.976	16618
913.09	16341
913.204	16417
913.318	16584
913.431	16622
913.545	16508
913.659	16519
913.772	16421
913.886	16375
914	16147
914.113	16379
914.226	16459
914.34	16299
914.453	16059
914.566	16280
914.68	16124
914.793	16162
914.906	15991
915.019	15869
915.132	15705
915.245	15918
915.358	15945
915.47	15907
915.583	15808
915.696	15926
915.809	15884
915.921	15953
916.034	15789
916.146	15705
916.259	15728
916.371	15728
916.483	15724
916.595	15644
916.708	15603
916.82	15606
916.932	15682
917.044	15591
917.156	15549
917.268	15435
917.38	15477
917.491	15370
917.603	15450
917.715	15507
917.826	15580
917.938	15325
918.049	15222
918.161	15355
918.272	15488
918.384	15523
918.495	15405
918.606	15169
918.717	15180
918.828	15214
918.939	15173
919.05	15241
919.161	15199
919.272	15047
919.383	14937
919.494	15222
919.604	15336
919.715	15241
919.826	15112
919.936	15112
920.047	15306
920.157	15116
920.267	15359
920.378	15150
920.488	15154
920.598	15249
920.708	15458
920.818	15275
920.928	15416
921.038	15424
921.148	15340
921.258	15047
921.368	15051
921.477	14857
921.587	14891
921.697	14735
921.806	14823
921.916	14693
922.025	14636
922.134	14594
922.244	14488
922.353	14530
922.462	14347
922.571	14328
922.68	14248
922.789	14134
922.898	14168
923.007	14111
923.116	14229
923.224	14065
923.333	14092
923.442	14043
923.55	13906
923.659	14024
923.767	14058
923.876	13940
923.984	13974
924.092	13917
924.201	13875
924.309	13822
924.417	13909
924.525	13693
924.633	13833
924.741	14511
924.849	13647
924.956	13803
925.064	13601
925.172	13556
925.279	13533
925.387	13613
925.494	13464
925.602	13628
925.709	13605
925.816	13384
925.924	13426
926.031	13525
926.138	13415
926.245	13575
926.352	13343
926.459	13514
926.566	13518
926.673	13381
926.779	13190
926.886	13324
926.993	13129
927.099	13099
927.206	12939
927.312	13004
927.419	13126
927.525	13156
927.631	13126
927.737	12973
927.843	12928
927.95	12821
928.056	12905
928.162	12848
928.267	12844
928.373	13453
928.479	12954
928.585	12726
928.69	12791
928.796	12829
928.901	12677
929.007	12601
929.112	12772
929.218	12726
929.323	12635
929.428	12601
929.533	12772
929.638	12509
929.743	12563
929.848	12646
929.953	12536
930.058	12460
930.163	12289
930.267	12281
930.372	12410
930.477	12167
930.581	12369
930.685	12273
930.79	12209
930.894	12133
930.998	12034
931.103	12270
931.207	11821
931.311	11813
931.415	11779
931.519	11516
931.623	11448
