Data from test_V78500241_1461.txt Node
Date: Fri Mar 25 15:51:55 CST 2022
User: usil
Spectrometer: V785-0024
Trigger mode: 0
Integration Time (sec): 4.000000E-1
Scans to average: 1
Nonlinearity correction enabled: false
Boxcar width: 0
Storing dark spectrum: false
XAxis mode: Wavelengths
Number of Pixels in Spectrum: 1024
>>>>>Begin Spectral Data<<<<<
801.071	27603
801.214	27427
801.356	27363
801.499	27302
801.641	27127
801.783	26979
801.926	27260
802.068	27085
802.211	26998
802.353	27047
802.496	26918
802.638	26781
802.78	26682
802.923	26674
803.065	26590
803.208	26716
803.35	26724
803.492	26807
803.635	26914
803.777	26762
803.919	26971
804.061	27233
804.204	26971
804.346	27001
804.488	26777
804.63	26967
804.773	26948
804.915	26883
805.057	27123
805.199	26929
805.341	27039
805.483	27180
805.626	27028
805.768	26876
805.91	26979
806.052	27142
806.194	27028
806.336	27287
806.478	27127
806.62	27112
806.762	27127
806.904	27485
807.046	27622
807.188	27450
807.33	27477
807.472	27641
807.614	27439
807.756	27431
807.898	27397
808.04	27218
808.182	27367
808.324	27245
808.465	27534
808.607	27564
808.749	27644
808.891	27873
809.033	27861
809.174	27762
809.316	27835
809.458	27873
809.6	27698
809.741	27884
809.883	27808
810.025	27949
810.166	27876
810.308	28059
810.45	27926
810.591	27831
810.733	27648
810.875	27644
811.016	27644
811.158	27523
811.299	27743
811.441	27762
811.582	27827
811.724	27675
811.865	27671
812.007	27709
812.148	27504
812.29	27770
812.431	27800
812.573	28002
812.714	28162
812.855	28158
812.997	28226
813.138	28394
813.279	28367
813.421	28177
813.562	28010
813.703	27960
813.845	27713
813.986	27633
814.127	27412
814.268	27458
814.41	27427
814.551	27313
814.692	27313
814.833	27245
814.974	27382
815.115	27367
815.256	27096
815.397	27245
815.539	27157
815.68	27119
815.821	27005
815.962	27214
816.103	27039
816.244	27127
816.385	26940
816.526	26933
816.666	26739
816.807	26587
816.948	26575
817.089	26564
817.23	26670
817.371	26522
817.512	26545
817.653	26568
817.793	26575
817.934	26754
818.075	26621
818.216	26712
818.356	26648
818.497	26518
818.638	26328
818.778	26248
818.919	26393
819.06	26438
819.2	26469
819.341	26503
819.481	26541
819.622	26678
819.762	26872
819.903	26758
820.043	26750
820.184	26769
820.324	26830
820.465	26830
820.605	26701
820.746	26697
820.886	26545
821.026	26667
821.167	26575
821.307	26674
821.447	26682
821.588	26465
821.728	26427
821.868	26214
822.008	26168
822.149	26164
822.289	26077
822.429	25765
822.569	25830
822.709	25731
822.849	25567
822.99	25544
823.13	25510
823.27	25510
823.41	25506
823.55	25297
823.69	25369
823.83	25415
823.97	25373
824.11	25297
824.25	25225
824.389	25266
824.529	25251
824.669	25225
824.809	25438
824.949	25362
825.089	25331
825.228	25297
825.368	25213
825.508	24943
825.648	25103
825.787	25244
825.927	25084
826.067	25046
826.206	25012
826.346	25107
826.485	25221
826.625	25088
826.765	25225
826.904	25084
827.044	24886
827.183	24833
827.323	24665
827.462	24837
827.601	24787
827.741	24837
827.88	24825
828.02	24650
828.159	24852
828.298	24856
828.437	24951
828.577	24703
828.716	24894
828.855	24616
828.994	24517
829.134	24475
829.273	24532
829.412	24407
829.551	24479
829.69	24540
829.829	24509
829.968	24616
830.107	24350
830.246	24536
830.385	24277
830.524	24380
830.663	24285
830.802	24205
830.941	24163
831.08	24125
831.219	24083
831.357	24201
831.496	24403
831.635	24167
831.774	23999
831.913	23958
832.051	23874
832.19	23859
832.329	23897
832.467	23805
832.606	23649
832.744	23741
832.883	23790
833.022	23756
833.16	23661
833.299	23790
833.437	23748
833.576	23836
833.714	23752
833.852	23969
833.991	23847
834.129	23840
834.267	23958
834.406	23870
834.544	23840
834.682	23901
834.821	23866
834.959	24060
835.097	23832
835.235	23866
835.373	23756
835.511	23843
835.65	23748
835.788	23699
835.926	23615
836.064	23440
836.202	23493
836.34	23707
836.478	23733
836.615	23531
836.753	23653
836.891	23809
837.029	23630
837.167	23661
837.305	23406
837.443	23566
837.58	23520
837.718	23634
837.856	23421
837.993	23299
838.131	23452
838.269	23284
838.406	23356
838.544	23288
838.681	23083
838.819	23178
838.956	22930
839.094	22927
839.231	23105
839.369	23128
839.506	23273
839.643	23128
839.781	22946
839.918	22835
840.055	22934
840.193	22900
840.33	23018
840.467	23003
840.604	22839
840.742	23151
840.879	22805
841.016	22698
841.153	22706
841.29	22942
841.427	22942
841.564	22999
841.701	22885
841.838	22801
841.975	22748
842.112	22911
842.249	22725
842.385	22626
842.522	22889
842.659	22733
842.796	22668
842.933	22649
843.069	22588
843.206	22561
843.343	22698
843.479	22702
843.616	22474
843.752	22443
843.889	22493
844.025	22580
844.162	22432
844.298	22443
844.435	22447
844.571	22386
844.708	22417
844.844	22519
844.98	22683
845.117	22500
845.253	22390
845.389	22268
845.525	22371
845.661	22246
845.798	22295
845.934	22188
846.07	22185
846.206	22246
846.342	22333
846.478	22097
846.614	21979
846.75	21846
846.886	22010
847.022	21998
847.158	21907
847.294	21903
847.429	21911
847.565	22070
847.701	22166
847.837	21591
847.972	21557
848.108	21762
848.244	21876
848.379	21485
848.515	21477
848.65	21428
848.786	21431
848.921	21549
849.057	21591
849.192	21477
849.328	21553
849.463	21435
849.598	21435
849.734	21420
849.869	21321
850.004	21180
850.14	21321
850.275	21241
850.41	21127
850.545	21135
850.68	21176
850.815	21283
850.95	21233
851.085	21420
851.22	21325
851.355	21252
851.49	21287
851.625	21272
851.76	21195
851.895	21154
852.03	21268
852.165	21252
852.299	21302
852.434	21382
852.569	21275
852.703	21283
852.838	21370
852.973	21378
853.107	21408
853.242	21287
853.376	21157
853.511	21024
853.645	21077
853.78	21135
853.914	21051
854.048	21005
854.183	21119
854.317	21074
854.451	21329
854.585	21131
854.72	21085
854.854	21192
854.988	21001
855.122	21066
855.256	21093
855.39	21142
855.524	21146
855.658	21058
855.792	20952
855.926	21058
856.06	21089
856.194	21176
856.327	21055
856.461	21032
856.595	21074
856.729	21081
856.862	21241
856.996	21085
857.13	21165
857.263	21070
857.397	21116
857.53	21096
857.664	21230
857.797	21157
857.931	21116
858.064	21077
858.197	21154
858.331	21085
858.464	21055
858.597	20952
858.731	20925
858.864	21081
858.997	21028
859.13	21043
859.263	21043
859.396	21218
859.529	21024
859.662	21096
859.795	20979
859.928	21066
860.061	21188
860.194	21214
860.327	21161
860.46	21116
860.592	21013
860.725	21138
860.858	21119
860.99	21043
861.123	21028
861.256	21032
861.388	21146
861.521	21937
861.653	21020
861.786	20921
861.918	20815
862.05	21032
862.183	20933
862.315	21017
862.447	21039
862.58	20994
862.712	20686
862.844	20883
862.976	20834
863.108	20788
863.24	21363
863.372	20716
863.504	20785
863.636	20743
863.768	20785
863.9	20792
864.032	20743
864.164	20686
864.296	20857
864.428	20876
864.559	20788
864.691	20815
864.823	20845
864.954	20724
865.086	20826
865.217	20720
865.349	20568
865.48	20686
865.612	20724
865.743	20819
865.875	20743
866.006	20632
866.137	20606
866.269	20632
866.4	20613
866.531	20621
866.662	20571
866.793	20708
866.924	20655
867.055	20670
867.186	20674
867.317	20625
867.448	20568
867.579	20587
867.71	20541
867.841	20609
867.972	20648
868.103	20613
868.233	20583
868.364	20632
868.495	20682
868.625	20868
868.756	20967
868.886	20807
869.017	20891
869.147	20868
869.278	21013
869.408	20963
869.539	20834
869.669	20956
869.799	20944
869.929	20902
870.06	20998
870.19	21180
870.32	21116
870.45	21100
870.58	21249
870.71	21256
870.84	21420
870.97	21222
871.1	21214
871.23	21473
871.36	21564
871.489	21344
871.619	21450
871.749	21378
871.879	21473
872.008	21466
872.138	21405
872.267	21538
872.397	21386
872.526	21321
872.656	21306
872.785	21256
872.915	21481
873.044	21660
873.173	21462
873.303	21439
873.432	21408
873.561	21717
873.69	21549
873.819	21564
873.948	21557
874.077	21572
874.206	21435
874.335	21564
874.464	21534
874.593	21800
874.722	21713
874.851	21812
874.979	21804
875.108	21793
875.237	21660
875.365	21671
875.494	21759
875.623	21686
875.751	21720
875.88	21800
876.008	21899
876.136	21865
876.265	22196
876.393	22226
876.521	22196
876.65	22177
876.778	22082
876.906	22169
877.034	22040
877.162	22086
877.29	22013
877.418	21983
877.546	22128
877.674	21998
877.802	22150
877.93	22021
878.058	22044
878.185	21926
878.313	22078
878.441	22090
878.568	21922
878.696	22002
878.824	22116
878.951	22093
879.079	22394
879.206	22409
879.333	22242
879.461	22059
879.588	22204
879.715	22192
879.842	22367
879.97	22040
880.097	21945
880.224	21846
880.351	21956
880.478	21972
880.605	21804
880.732	21854
880.859	22074
880.986	21949
881.112	21865
881.239	21739
881.366	21614
881.493	21583
881.619	21542
881.746	21545
881.872	21553
881.999	21443
882.125	21374
882.252	21538
882.378	21511
882.505	21500
882.631	21348
882.757	21131
882.883	21252
883.01	21154
883.136	21119
883.262	20982
883.388	21135
883.514	21203
883.64	21123
883.766	21104
883.892	20914
884.018	21039
884.143	21199
884.269	21233
884.395	20872
884.52	20819
884.646	20876
884.772	20686
884.897	20762
885.023	20895
885.148	20906
885.274	20944
885.399	20925
885.524	20902
885.65	20823
885.775	20853
885.9	20697
886.025	20929
886.15	20823
886.275	20735
886.4	20644
886.525	20800
886.65	20769
886.775	20697
886.9	20857
887.025	21131
887.149	20705
887.274	20613
887.399	20636
887.523	20579
887.648	20613
887.773	20587
887.897	20575
888.021	20549
888.146	20522
888.27	20674
888.395	20632
888.519	20594
888.643	20724
888.767	20678
888.891	20549
889.015	20377
889.139	20457
889.263	20358
889.387	20461
889.511	20507
889.635	20598
889.759	20328
889.883	20446
890.006	20545
890.13	20488
890.254	20381
890.377	20332
890.501	20206
890.624	20221
890.748	20161
890.871	20103
890.995	19864
891.118	19890
891.241	19982
891.364	20012
891.488	20142
891.611	20088
891.734	19902
891.857	20096
891.98	19913
892.103	19959
892.226	20005
892.349	19925
892.471	19807
892.594	19860
892.717	19871
892.839	19936
892.962	19932
893.085	19917
893.207	20020
893.33	19780
893.452	19742
893.575	19879
893.697	19909
893.819	20065
893.941	20138
894.064	19989
894.186	19845
894.308	19856
894.43	20012
894.552	20058
894.674	19967
894.796	19784
894.918	19921
895.04	19791
895.161	19955
895.283	19894
895.405	19738
895.526	19871
895.648	19959
895.769	19947
895.891	19947
896.012	19947
896.134	19830
896.255	19974
896.376	19772
896.498	19967
896.619	20020
896.74	19978
896.861	19978
896.982	20286
897.103	20370
897.224	20088
897.345	20046
897.466	19982
897.587	20210
897.708	20256
897.828	20256
897.949	20005
898.07	19963
898.19	20069
898.311	20259
898.431	20035
898.552	20191
898.672	20286
898.792	20278
898.913	20138
899.033	20073
899.153	19849
899.273	19875
899.393	19875
899.513	19997
899.633	20050
899.753	19879
899.873	19795
899.993	19982
900.113	19803
900.232	19925
900.352	19704
900.472	19772
900.591	19609
900.711	19795
900.83	19559
900.95	19776
901.069	19765
901.189	19620
901.308	19377
901.427	19263
901.546	19339
901.665	19202
901.784	19225
901.904	19171
902.023	19095
902.141	18852
902.26	18814
902.379	18867
902.498	18844
902.617	18654
902.735	18894
902.854	18757
902.973	18593
903.091	18486
903.21	18521
903.328	18502
903.446	18353
903.565	18338
903.683	18277
903.801	18076
903.919	18190
904.038	18228
904.156	18072
904.274	18076
904.392	18026
904.51	18041
904.627	17927
904.745	17973
904.863	18117
904.981	17904
905.098	17855
905.216	17752
905.334	17771
905.451	17783
905.569	17668
905.686	17771
905.803	17733
905.921	17482
906.038	17646
906.155	17539
906.272	17440
906.389	17516
906.506	17242
906.623	17231
906.74	17265
906.857	17128
906.974	17147
907.091	17288
907.208	17326
907.324	17265
907.441	17117
907.557	16965
907.674	16885
907.79	16828
907.907	16938
908.023	16972
908.139	16923
908.256	16919
908.372	16927
908.488	16835
908.604	16660
908.72	16683
908.836	16763
908.952	16664
909.068	16755
909.184	16809
909.3	16660
909.415	16672
909.531	16668
909.647	16360
909.762	16481
909.878	16421
909.993	16394
910.108	16470
910.224	16333
910.339	16310
910.454	16329
910.57	16215
910.685	16177
910.8	16337
910.915	16344
911.03	16173
911.145	16044
911.259	16082
911.374	15907
911.489	15922
911.604	15903
911.718	15656
911.833	15698
911.947	15686
912.062	15622
912.176	15732
912.291	15610
912.405	15751
912.519	15865
912.633	15876
912.748	15694
912.862	15682
912.976	15603
913.09	15519
913.204	15450
913.318	15504
913.431	15663
913.545	15576
913.659	15614
913.772	15488
913.886	15313
914	15344
914.113	15416
914.226	15367
914.34	15412
914.453	15195
914.566	15393
914.68	15275
914.793	15237
914.906	15017
915.019	14960
915.132	14895
915.245	15070
915.358	14929
915.47	15051
915.583	14979
915.696	14971
915.809	15020
915.921	15047
916.034	14902
916.146	14861
916.259	14823
916.371	14929
916.483	14876
916.595	14830
916.708	14826
916.82	14842
916.932	14769
917.044	14883
917.156	14750
917.268	14708
917.38	14735
917.491	14606
917.603	14621
917.715	14682
917.826	14640
917.938	14617
918.049	14415
918.161	14549
918.272	14716
918.384	14716
918.495	14552
918.606	14396
918.717	14336
918.828	14526
918.939	14450
919.05	14229
919.161	14393
919.272	14168
919.383	14183
919.494	14393
919.604	14598
919.715	14343
919.826	14157
919.936	14336
920.047	14351
920.157	14332
920.267	14530
920.378	14423
920.488	14343
920.598	14568
920.708	14674
920.818	14393
920.928	14469
921.038	14583
921.148	14598
921.258	14301
921.368	14244
921.477	14115
921.587	14107
921.697	14016
921.806	14130
921.916	14035
922.025	13799
922.134	13780
922.244	13704
922.353	13803
922.462	13658
922.571	13552
922.68	13419
922.789	13384
922.898	13403
923.007	13343
923.116	13415
923.224	13304
923.333	13343
923.442	13228
923.55	13236
923.659	13282
923.767	13308
923.876	13221
923.984	13251
924.092	13099
924.201	13152
924.309	13221
924.417	13137
924.525	13031
924.633	13084
924.741	13833
924.849	12916
924.956	12897
925.064	12878
925.172	12707
925.279	12795
925.387	12863
925.494	12894
925.602	12973
925.709	12848
925.816	12681
925.924	12829
926.031	12829
926.138	12719
926.245	12935
926.352	12772
926.459	12810
926.566	12890
926.673	12707
926.779	12555
926.886	12547
926.993	12502
927.099	12498
927.206	12357
927.312	12395
927.419	12365
927.525	12353
927.631	12395
927.737	12247
927.843	12289
927.95	12102
928.056	12186
928.162	12258
928.267	12201
928.373	12814
928.479	12376
928.585	12095
928.69	12129
928.796	12175
928.901	12011
929.007	11908
929.112	12064
929.218	12076
929.323	11961
929.428	11920
929.533	12053
929.638	11923
929.743	11901
929.848	12026
929.953	11923
930.058	11821
930.163	11623
930.267	11615
930.372	11828
930.477	11543
930.581	11855
930.685	11665
930.79	11551
930.894	11554
930.998	11402
931.103	11661
931.207	11201
931.311	11220
931.415	11128
931.519	10930
931.623	10866
