Data from test_V78500241_1800.txt Node
Date: Fri Mar 25 15:54:16 CST 2022
User: usil
Spectrometer: V785-0024
Trigger mode: 0
Integration Time (sec): 4.000000E-1
Scans to average: 1
Nonlinearity correction enabled: false
Boxcar width: 0
Storing dark spectrum: false
XAxis mode: Wavelengths
Number of Pixels in Spectrum: 1024
>>>>>Begin Spectral Data<<<<<
801.071	28500
801.214	28561
801.356	28333
801.499	28234
801.641	28287
801.783	28120
801.926	28348
802.068	28306
802.211	28048
802.353	27937
802.496	27797
802.638	27850
802.78	27755
802.923	27709
803.065	27682
803.208	27808
803.35	27876
803.492	28044
803.635	27960
803.777	27922
803.919	28074
804.061	28489
804.204	28097
804.346	28044
804.488	28006
804.63	28219
804.773	28036
804.915	28029
805.057	28303
805.199	28223
805.341	28192
805.483	28268
805.626	28310
805.768	28139
805.91	28348
806.052	28242
806.194	28120
806.336	28417
806.478	28303
806.62	28253
806.762	28341
806.904	28497
807.046	28725
807.188	28580
807.33	28687
807.472	28725
807.614	28698
807.756	28774
807.898	28584
808.04	28504
808.182	28592
808.324	28580
808.465	28523
808.607	28923
808.749	28908
808.891	29060
809.033	29174
809.174	28923
809.316	28923
809.458	28965
809.6	28987
809.741	28938
809.883	29060
810.025	29231
810.166	29223
810.308	29242
810.45	29322
810.591	29212
810.733	29022
810.875	28946
811.016	28862
811.158	28774
811.299	28991
811.441	29086
811.582	29185
811.724	28881
811.865	28938
812.007	28923
812.148	28854
812.29	29067
812.431	29208
812.573	29277
812.714	29326
812.855	29551
812.997	29467
813.138	29608
813.279	29638
813.421	29501
813.562	29539
813.703	29227
813.845	29242
813.986	28968
814.127	28782
814.268	28755
814.41	28679
814.551	28740
814.692	28816
814.833	28630
814.974	28546
815.115	28649
815.256	28516
815.397	28641
815.539	28417
815.68	28466
815.821	28360
815.962	28519
816.103	28527
816.244	28371
816.385	28325
816.526	28223
816.666	28158
816.807	28017
816.948	28101
817.089	28215
817.23	28135
817.371	28067
817.512	27983
817.653	27983
817.793	27873
817.934	27918
818.075	27930
818.216	27994
818.356	27888
818.497	27800
818.638	27842
818.778	27781
818.919	27755
819.06	27759
819.2	27838
819.341	27972
819.481	27987
819.622	28310
819.762	28322
819.903	28223
820.043	28120
820.184	28169
820.324	28109
820.465	28154
820.605	28116
820.746	28036
820.886	27983
821.026	28139
821.167	27998
821.307	28055
821.447	28070
821.588	28051
821.728	27698
821.868	27717
822.008	27572
822.149	27427
822.289	27408
822.429	27378
822.569	27252
822.709	27119
822.849	27070
822.99	27028
823.13	27005
823.27	26944
823.41	26842
823.55	26629
823.69	26883
823.83	26777
823.97	26731
824.11	26590
824.25	26488
824.389	26773
824.529	26590
824.669	26693
824.809	26697
824.949	26720
825.089	26621
825.228	26686
825.368	26366
825.508	26240
825.648	26518
825.787	26492
825.927	26480
826.067	26404
826.206	26431
826.346	26541
826.485	26446
826.625	26469
826.765	26564
826.904	26438
827.044	26404
827.183	26275
827.323	26240
827.462	26214
827.601	26199
827.741	26191
827.88	26339
828.02	25978
828.159	26191
828.298	26103
828.437	26240
828.577	26084
828.716	26248
828.855	26256
828.994	25955
829.134	25909
829.273	25936
829.412	25757
829.551	25841
829.69	25970
829.829	25993
829.968	26012
830.107	26008
830.246	25894
830.385	25799
830.524	25822
830.663	25613
830.802	25624
830.941	25472
831.08	25457
831.219	25594
831.357	25567
831.496	25700
831.635	25559
831.774	25434
831.913	25438
832.051	25358
832.19	25358
832.329	25266
832.467	25213
832.606	25080
832.744	25118
832.883	25175
833.022	25137
833.16	25141
833.299	25084
833.437	25225
833.576	25160
833.714	25270
833.852	25209
833.991	25365
834.129	25327
834.267	25312
834.406	25209
834.544	25152
834.682	25270
834.821	25259
834.959	25384
835.097	25122
835.235	25251
835.373	25129
835.511	25110
835.65	25148
835.788	25065
835.926	24886
836.064	24787
836.202	24985
836.34	24977
836.478	25232
836.615	24996
836.753	24985
836.891	25084
837.029	25107
837.167	24871
837.305	24760
837.443	24951
837.58	24863
837.718	24951
837.856	24829
837.993	24833
838.131	24791
838.269	24802
838.406	24760
838.544	24654
838.681	24563
838.819	24532
838.956	24403
839.094	24277
839.231	24479
839.369	24631
839.506	24738
839.643	24509
839.781	24311
839.918	24296
840.055	24361
840.193	24338
840.33	24144
840.467	24327
840.604	24319
840.742	24547
840.879	24136
841.016	24106
841.153	23996
841.29	24311
841.427	24330
841.564	24262
841.701	24289
841.838	24194
841.975	24205
842.112	24064
842.249	24095
842.385	24133
842.522	24315
842.659	24098
842.796	24079
842.933	24098
843.069	23946
843.206	24003
843.343	23961
843.479	24003
843.616	23958
843.752	23821
843.889	23790
844.025	23908
844.162	23680
844.298	23855
844.435	23802
844.571	23809
844.708	23840
844.844	23847
844.98	23901
845.117	23901
845.253	23691
845.389	23577
845.525	23630
845.661	23733
845.798	23611
845.934	23581
846.07	23455
846.206	23570
846.342	23649
846.478	23623
846.614	23258
846.75	23208
846.886	23185
847.022	23292
847.158	23239
847.294	23242
847.429	23174
847.565	23136
847.701	23474
847.837	22946
847.972	23044
848.108	23083
848.244	23098
848.379	22866
848.515	22816
848.65	22892
848.786	22900
848.921	22896
849.057	22949
849.192	22873
849.328	22984
849.463	22904
849.598	22869
849.734	22691
849.869	22645
850.004	22618
850.14	22664
850.275	22599
850.41	22596
850.545	22546
850.68	22599
850.815	22630
850.95	22569
851.085	22767
851.22	22656
851.355	22580
851.49	22577
851.625	22588
851.76	22622
851.895	22436
852.03	22519
852.165	22538
852.299	22622
852.434	22687
852.569	22694
852.703	22615
852.838	22637
852.973	22683
853.107	22748
853.242	22390
853.376	22470
853.511	22268
853.645	22390
853.78	22409
853.914	22443
854.048	22451
854.183	22249
854.317	22402
854.451	22725
854.585	22329
854.72	22367
854.854	22436
854.988	22226
855.122	22386
855.256	22223
855.39	22424
855.524	22443
855.658	22493
855.792	22462
855.926	22329
856.06	22440
856.194	22527
856.327	22303
856.461	22318
856.595	22284
856.729	22398
856.862	22561
856.996	22394
857.13	22356
857.263	22538
857.397	22580
857.53	22367
857.664	22440
857.797	22527
857.931	22504
858.064	22394
858.197	22500
858.331	22432
858.464	22318
858.597	22287
858.731	22341
858.864	22436
858.997	22356
859.13	22402
859.263	22386
859.396	22500
859.529	22466
859.662	22303
859.795	22314
859.928	22466
860.061	22569
860.194	22725
860.327	22489
860.46	22382
860.592	22455
860.725	22428
860.858	22519
860.99	22341
861.123	22367
861.256	22360
861.388	22398
861.521	23090
861.653	22329
861.786	22272
861.918	22253
862.05	22424
862.183	22325
862.315	22344
862.447	22440
862.58	22344
862.712	22166
862.844	22147
862.976	22185
863.108	22238
863.24	22348
863.372	22131
863.504	22090
863.636	22158
863.768	22109
863.9	22082
864.032	22090
864.164	22131
864.296	22150
864.428	22211
864.559	22162
864.691	22181
864.823	22029
864.954	22105
865.086	22059
865.217	22017
865.349	21880
865.48	22090
865.612	22032
865.743	22150
865.875	21934
866.006	21876
866.137	21949
866.269	22021
866.4	21899
866.531	22055
866.662	21842
866.793	21899
866.924	21865
867.055	21880
867.186	21930
867.317	21915
867.448	21793
867.579	21937
867.71	21804
867.841	21812
867.972	21953
868.103	21869
868.233	21865
868.364	21884
868.495	21968
868.625	22143
868.756	22234
868.886	22109
869.017	22188
869.147	22249
869.278	22253
869.408	22226
869.539	22234
869.669	22265
869.799	22200
869.929	22291
870.06	22337
870.19	22611
870.32	22390
870.45	22436
870.58	22424
870.71	22588
870.84	22637
870.97	22512
871.1	22599
871.23	22698
871.36	22793
871.489	22710
871.619	22748
871.749	22683
871.879	22839
872.008	22812
872.138	22771
872.267	22698
872.397	22664
872.526	22672
872.656	22630
872.785	22561
872.915	22816
873.044	23022
873.173	22790
873.303	22831
873.432	22774
873.561	22919
873.69	22790
873.819	22733
873.948	22812
874.077	22809
874.206	22702
874.335	22889
874.464	22900
874.593	23170
874.722	22881
874.851	22946
874.979	23022
875.108	22961
875.237	22942
875.365	22900
875.494	22999
875.623	23037
875.751	22984
875.88	22991
876.008	23083
876.136	23174
876.265	23417
876.393	23539
876.521	23493
876.65	23288
876.778	23353
876.906	23326
877.034	23170
877.162	23197
877.29	23220
877.418	23269
877.546	23383
877.674	23330
877.802	23273
877.93	23181
878.058	23246
878.185	23162
878.313	23265
878.441	23303
878.568	23200
878.696	23284
878.824	23223
878.951	23414
879.079	23520
879.206	23592
879.333	23376
879.461	23383
879.588	23429
879.715	23368
879.842	23604
879.97	23410
880.097	22968
880.224	23246
880.351	23231
880.478	23147
880.605	22953
880.732	23121
880.859	23417
880.986	23189
881.112	23220
881.239	22930
881.366	22812
881.493	22835
881.619	22843
881.746	22683
881.872	22649
881.999	22801
882.125	22569
882.252	22691
882.378	22725
882.505	22771
882.631	22630
882.757	22478
882.883	22550
883.01	22379
883.136	22173
883.262	22344
883.388	22226
883.514	22485
883.64	22516
883.766	22360
883.892	22124
884.018	22162
884.143	22402
884.269	22306
884.395	22097
884.52	21987
884.646	22021
884.772	22055
884.897	22025
885.023	21972
885.148	22055
885.274	22246
885.399	22051
885.524	21930
885.65	22086
885.775	21979
885.9	22093
886.025	22185
886.15	22059
886.275	21956
886.4	21991
886.525	22013
886.65	21869
886.775	21808
886.9	22162
887.025	22143
887.149	21983
887.274	21800
887.399	21892
887.523	21804
887.648	21762
887.773	21568
887.897	21747
888.021	21869
888.146	21606
888.27	21865
888.395	21823
888.519	21751
888.643	21861
888.767	21816
888.891	21641
889.015	21587
889.139	21648
889.263	21473
889.387	21656
889.511	21732
889.635	21751
889.759	21572
889.883	21549
890.006	21416
890.13	21663
890.254	21507
890.377	21450
890.501	21313
890.624	21180
890.748	21249
890.871	21184
890.995	21142
891.118	21108
891.241	21131
891.364	21161
891.488	21291
891.611	21108
891.734	21135
891.857	21195
891.98	21169
892.103	21256
892.226	21058
892.349	21070
892.471	20819
892.594	21001
892.717	20952
892.839	21066
892.962	20891
893.085	21066
893.207	21020
893.33	20792
893.452	20853
893.575	20929
893.697	20921
893.819	21104
893.941	21241
894.064	21154
894.186	20956
894.308	20967
894.43	21055
894.552	21131
894.674	21123
894.796	21013
894.918	20918
895.04	20918
895.161	21093
895.283	20925
895.405	20883
895.526	21066
895.648	20918
895.769	20952
895.891	21055
896.012	21028
896.134	20998
896.255	21051
896.376	20956
896.498	21100
896.619	21013
896.74	20963
896.861	20994
896.982	21176
897.103	21378
897.224	21287
897.345	21256
897.466	21100
897.587	21074
897.708	21233
897.828	21264
897.949	21279
898.07	21077
898.19	21127
898.311	21272
898.431	21157
898.552	21252
898.672	21378
898.792	21245
898.913	21146
899.033	21062
899.153	20982
899.273	20834
899.393	20944
899.513	20857
899.633	20849
899.753	20975
899.873	20807
899.993	21032
900.113	20982
900.232	20960
900.352	20853
900.472	20785
900.591	20575
900.711	20716
900.83	20705
900.95	20773
901.069	20739
901.189	20556
901.308	20298
901.427	20176
901.546	20252
901.665	20389
901.784	20248
901.904	20122
902.023	20024
902.141	19788
902.26	19814
902.379	19845
902.498	19681
902.617	19620
902.735	19784
902.854	19651
902.973	19647
903.091	19373
903.21	19453
903.328	19377
903.446	19308
903.565	19221
903.683	19255
903.801	19137
903.919	19168
904.038	19194
904.156	19031
904.274	19008
904.392	19027
904.51	18894
904.627	18901
904.745	18985
904.863	19046
904.981	18715
905.098	18612
905.216	18696
905.334	18688
905.451	18696
905.569	18661
905.686	18692
905.803	18631
905.921	18494
906.038	18585
906.155	18433
906.272	18323
906.389	18277
906.506	18155
906.623	18083
906.74	18209
906.857	18045
906.974	18015
907.091	18209
907.208	18300
907.324	18216
907.441	18091
907.557	17893
907.674	17916
907.79	17843
907.907	17859
908.023	17901
908.139	17817
908.256	17809
908.372	17726
908.488	17813
908.604	17627
908.72	17532
908.836	17623
908.952	17558
909.068	17634
909.184	17718
909.3	17630
909.415	17634
909.531	17676
909.647	17330
909.762	17360
909.878	17235
909.993	17284
910.108	17246
910.224	17288
910.339	17227
910.454	17231
910.57	17090
910.685	16953
910.8	17307
910.915	17208
911.03	17136
911.145	16900
911.259	16873
911.374	16847
911.489	16820
911.604	16767
911.718	16611
911.833	16618
911.947	16558
912.062	16493
912.176	16611
912.291	16577
912.405	16637
912.519	16824
912.633	16866
912.748	16649
912.862	16634
912.976	16466
913.09	16230
913.204	16447
913.318	16493
913.431	16523
913.545	16440
913.659	16474
913.772	16413
913.886	16299
914	16093
914.113	16291
914.226	16265
914.34	16223
914.453	16105
914.566	16173
914.68	16135
914.793	16078
914.906	15861
915.019	15846
915.132	15709
915.245	15785
915.358	15842
915.47	15869
915.583	15831
915.696	15823
915.809	15888
915.921	15972
916.034	15755
916.146	15728
916.259	15641
916.371	15762
916.483	15648
916.595	15633
916.708	15629
916.82	15637
916.932	15530
917.044	15587
917.156	15576
917.268	15408
917.38	15466
917.491	15325
917.603	15534
917.715	15553
917.826	15534
917.938	15424
918.049	15230
918.161	15389
918.272	15405
918.384	15477
918.495	15256
918.606	15214
918.717	15051
918.828	15138
918.939	15226
919.05	15097
919.161	15036
919.272	14975
919.383	15055
919.494	15180
919.604	15367
919.715	15192
919.826	15127
919.936	15180
920.047	15119
920.157	15142
920.267	15405
920.378	15161
920.488	15089
920.598	15268
920.708	15485
920.818	15211
920.928	15237
921.038	15370
921.148	15340
921.258	15081
921.368	14960
921.477	14864
921.587	14838
921.697	14773
921.806	14804
921.916	14678
922.025	14575
922.134	14476
922.244	14484
922.353	14488
922.462	14465
922.571	14336
922.68	14191
922.789	14115
922.898	14016
923.007	14073
923.116	14168
923.224	14123
923.333	14031
923.442	14027
923.55	13803
923.659	13978
923.767	14001
923.876	13830
923.984	13974
924.092	13830
924.201	13875
924.309	13879
924.417	13890
924.525	13791
924.633	13791
924.741	14374
924.849	13601
924.956	13575
925.064	13533
925.172	13472
925.279	13400
925.387	13575
925.494	13483
925.602	13651
925.709	13495
925.816	13384
925.924	13422
926.031	13491
926.138	13392
926.245	13449
926.352	13369
926.459	13407
926.566	13590
926.673	13415
926.779	13236
926.886	13285
926.993	13160
927.099	13069
927.206	13061
927.312	13084
927.419	13095
927.525	13114
927.631	13057
927.737	12932
927.843	12890
927.95	12798
928.056	12859
928.162	12932
928.267	12939
928.373	13613
928.479	13015
928.585	12703
928.69	12840
928.796	12821
928.901	12760
929.007	12635
929.112	12791
929.218	12669
929.323	12673
929.428	12688
929.533	12787
929.638	12494
929.743	12528
929.848	12570
929.953	12551
930.058	12437
930.163	12369
930.267	12266
930.372	12407
930.477	12311
930.581	12498
930.685	12304
930.79	12239
930.894	12266
930.998	12144
931.103	12361
931.207	11935
931.311	11821
931.415	11733
931.519	11528
931.623	11604
