Data from test_V78500241_285.txt Node
Date: Fri Mar 25 15:43:46 CST 2022
User: usil
Spectrometer: V785-0024
Trigger mode: 0
Integration Time (sec): 4.000000E-1
Scans to average: 1
Nonlinearity correction enabled: false
Boxcar width: 0
Storing dark spectrum: false
XAxis mode: Wavelengths
Number of Pixels in Spectrum: 1024
>>>>>Begin Spectral Data<<<<<
801.071	29741
801.214	29589
801.356	29341
801.499	29379
801.641	29349
801.783	29330
801.926	29284
802.068	29071
802.211	29265
802.353	29166
802.496	28828
802.638	29075
802.78	28820
802.923	28873
803.065	28831
803.208	28873
803.35	29037
803.492	29147
803.635	29044
803.777	29098
803.919	29071
804.061	29395
804.204	29105
804.346	28919
804.488	28976
804.63	28987
804.773	28911
804.915	29132
805.057	29227
805.199	29098
805.341	29147
805.483	29410
805.626	29189
805.768	29071
805.91	29239
806.052	29208
806.194	29124
806.336	29330
806.478	29143
806.62	29216
806.762	29455
806.904	29627
807.046	29672
807.188	29623
807.33	29642
807.472	29779
807.614	29528
807.756	29691
807.898	29463
808.04	29261
808.182	29497
808.324	29383
808.465	29474
808.607	29520
808.749	29684
808.891	29969
809.033	29939
809.174	29847
809.316	29828
809.458	29927
809.6	29878
809.741	29897
809.883	29942
810.025	30174
810.166	30178
810.308	30114
810.45	30155
810.591	29954
810.733	29859
810.875	29908
811.016	29783
811.158	29737
811.299	30007
811.441	30098
811.582	29950
811.724	29874
811.865	29714
812.007	29836
812.148	29714
812.29	29729
812.431	30030
812.573	30163
812.714	30186
812.855	30475
812.997	30517
813.138	30593
813.279	30471
813.421	30372
813.562	30441
813.703	30057
813.845	29912
813.986	29691
814.127	29493
814.268	29520
814.41	29467
814.551	29387
814.692	29478
814.833	29391
814.974	29516
815.115	29410
815.256	29395
815.397	29189
815.539	29414
815.68	29284
815.821	29162
815.962	29231
816.103	29269
816.244	29220
816.385	29117
816.526	29003
816.666	28824
816.807	28782
816.948	28706
817.089	28866
817.23	28691
817.371	28828
817.512	28653
817.653	28596
817.793	28782
817.934	28653
818.075	28706
818.216	28687
818.356	28538
818.497	28561
818.638	28401
818.778	28466
818.919	28375
819.06	28607
819.2	28516
819.341	28569
819.481	28641
819.622	28755
819.762	29098
819.903	28873
820.043	28820
820.184	28767
820.324	28793
820.465	28843
820.605	28550
820.746	28653
820.886	28611
821.026	28706
821.167	28767
821.307	28771
821.447	28519
821.588	28455
821.728	28375
821.868	28242
822.008	28086
822.149	28044
822.289	28029
822.429	27827
822.569	27705
822.709	27797
822.849	27564
822.99	27770
823.13	27496
823.27	27519
823.41	27443
823.55	27188
823.69	27325
823.83	27344
823.97	27313
824.11	27100
824.25	27230
824.389	27184
824.529	27336
824.669	27218
824.809	27199
824.949	27233
825.089	27313
825.228	27195
825.368	27096
825.508	27146
825.648	27055
825.787	27001
825.927	27108
826.067	27005
826.206	27074
826.346	27211
826.485	27081
826.625	27005
826.765	27169
826.904	26990
827.044	27001
827.183	26746
827.323	26735
827.462	26880
827.601	26796
827.741	26708
827.88	26708
828.02	26765
828.159	26659
828.298	26762
828.437	26743
828.577	26625
828.716	26701
828.855	26564
828.994	26457
829.134	26480
829.273	26568
829.412	26423
829.551	26419
829.69	26408
829.829	26434
829.968	26442
830.107	26526
830.246	26457
830.385	26282
830.524	26313
830.663	26142
830.802	26111
830.941	25902
831.08	25852
831.219	26115
831.357	26092
831.496	26073
831.635	26058
831.774	25887
831.913	25841
832.051	25685
832.19	25677
832.329	25799
832.467	25674
832.606	25567
832.744	25586
832.883	25571
833.022	25529
833.16	25658
833.299	25784
833.437	25681
833.576	25791
833.714	25586
833.852	25578
833.991	25689
834.129	25674
834.267	25750
834.406	25582
834.544	25734
834.682	25715
834.821	25693
834.959	25818
835.097	25548
835.235	25578
835.373	25525
835.511	25674
835.65	25506
835.788	25521
835.926	25331
836.064	25270
836.202	25339
836.34	25358
836.478	25362
836.615	25369
836.753	25537
836.891	25510
837.029	25476
837.167	25438
837.305	25293
837.443	25365
837.58	25365
837.718	25514
837.856	25297
837.993	25217
838.131	25236
838.269	25095
838.406	25171
838.544	25091
838.681	24848
838.819	24973
838.956	24730
839.094	24776
839.231	24814
839.369	24837
839.506	25099
839.643	24920
839.781	24658
839.918	24612
840.055	24661
840.193	24642
840.33	24528
840.467	24555
840.604	24582
840.742	24817
840.879	24353
841.016	24452
841.153	24570
841.29	24642
841.427	24399
841.564	24665
841.701	24574
841.838	24513
841.975	24528
842.112	24483
842.249	24441
842.385	24277
842.522	24582
842.659	24338
842.796	24315
842.933	24456
843.069	24289
843.206	24213
843.343	24308
843.479	24209
843.616	24384
843.752	23988
843.889	24018
844.025	24201
844.162	23961
844.298	24144
844.435	23965
844.571	23965
844.708	24018
844.844	24163
844.98	24030
845.117	24133
845.253	23946
845.389	23813
845.525	23904
845.661	23885
845.798	23703
845.934	23668
846.07	23726
846.206	23733
846.342	23832
846.478	23695
846.614	23516
846.75	23425
846.886	23516
847.022	23585
847.158	23379
847.294	23467
847.429	23501
847.565	23337
847.701	23752
847.837	23143
847.972	23227
848.108	23334
848.244	23242
848.379	23006
848.515	23071
848.65	23041
848.786	23102
848.921	23143
849.057	23121
849.192	23037
849.328	23083
849.463	22961
849.598	22942
849.734	22816
849.869	22805
850.004	22782
850.14	22881
850.275	22675
850.41	22664
850.545	22729
850.68	22740
850.815	22607
850.95	22736
851.085	22843
851.22	22805
851.355	22805
851.49	22744
851.625	22713
851.76	22759
851.895	22706
852.03	22626
852.165	22698
852.299	22748
852.434	22847
852.569	22717
852.703	22668
852.838	22740
852.973	22873
853.107	22717
853.242	22713
853.376	22740
853.511	22485
853.645	22436
853.78	22763
853.914	22588
854.048	22535
854.183	22375
854.317	22630
854.451	22656
854.585	22618
854.72	22557
854.854	22493
854.988	22394
855.122	22645
855.256	22363
855.39	22508
855.524	22653
855.658	22519
855.792	22546
855.926	22478
856.06	22542
856.194	22626
856.327	22508
856.461	22474
856.595	22493
856.729	22489
856.862	22649
856.996	22405
857.13	22618
857.263	22626
857.397	22611
857.53	22409
857.664	22630
857.797	22546
857.931	22569
858.064	22432
858.197	22535
858.331	22481
858.464	22489
858.597	22371
858.731	22497
858.864	22462
858.997	22394
859.13	22500
859.263	22523
859.396	22527
859.529	22402
859.662	22500
859.795	22481
859.928	22554
860.061	22626
860.194	22653
860.327	22535
860.46	22557
860.592	22698
860.725	22607
860.858	22592
860.99	22516
861.123	22417
861.256	22466
861.388	22542
861.521	23166
861.653	22470
861.786	22192
861.918	22177
862.05	22440
862.183	22535
862.315	22504
862.447	22489
862.58	22478
862.712	22379
862.844	22105
862.976	22185
863.108	22234
863.24	22573
863.372	22074
863.504	22215
863.636	22162
863.768	22124
863.9	22200
864.032	22166
864.164	22158
864.296	22207
864.428	22246
864.559	22215
864.691	22238
864.823	22147
864.954	22128
865.086	22169
865.217	22147
865.349	22021
865.48	22078
865.612	22002
865.743	22211
865.875	22120
866.006	21926
866.137	21975
866.269	22013
866.4	22055
866.531	22006
866.662	22002
866.793	22013
866.924	21869
867.055	21926
867.186	21880
867.317	21945
867.448	21827
867.579	21911
867.71	21819
867.841	21880
867.972	22063
868.103	21983
868.233	21857
868.364	21895
868.495	22044
868.625	22219
868.756	22287
868.886	22166
869.017	22124
869.147	22379
869.278	22314
869.408	22268
869.539	22166
869.669	22265
869.799	22223
869.929	22337
870.06	22265
870.19	22481
870.32	22462
870.45	22531
870.58	22675
870.71	22862
870.84	22626
870.97	22538
871.1	22660
871.23	22713
871.36	22919
871.489	22687
871.619	22675
871.749	22896
871.879	22843
872.008	22892
872.138	22694
872.267	22782
872.397	22504
872.526	22573
872.656	22516
872.785	22519
872.915	22862
873.044	22892
873.173	22778
873.303	22908
873.432	22755
873.561	22900
873.69	22847
873.819	22736
873.948	22869
874.077	22828
874.206	22672
874.335	22809
874.464	22869
874.593	23048
874.722	22980
874.851	23022
874.979	23044
875.108	23170
875.237	22915
875.365	22896
875.494	22949
875.623	23143
875.751	22995
875.88	23041
876.008	23132
876.136	23193
876.265	23387
876.393	23596
876.521	23486
876.65	23505
876.778	23398
876.906	23368
877.034	23356
877.162	23349
877.29	23501
877.418	23402
877.546	23436
877.674	23433
877.802	23368
877.93	23356
878.058	23478
878.185	23284
878.313	23280
878.441	23368
878.568	23189
878.696	23223
878.824	23334
878.951	23379
879.079	23589
879.206	23684
879.333	23414
879.461	23383
879.588	23486
879.715	23463
879.842	23649
879.97	23368
880.097	23326
880.224	23178
880.351	23197
880.478	23216
880.605	23193
880.732	23155
880.859	23372
880.986	23174
881.112	23242
881.239	23159
881.366	22869
881.493	22786
881.619	22679
881.746	22816
881.872	22782
881.999	22831
882.125	22698
882.252	22683
882.378	22733
882.505	22831
882.631	22580
882.757	22485
882.883	22542
883.01	22462
883.136	22333
883.262	22299
883.388	22303
883.514	22314
883.64	22348
883.766	22360
883.892	22173
884.018	22246
884.143	22386
884.269	22466
884.395	22150
884.52	21941
884.646	22150
884.772	21930
884.897	22002
885.023	22032
885.148	22261
885.274	22211
885.399	22131
885.524	22002
885.65	21998
885.775	22002
885.9	22017
886.025	22204
886.15	22070
886.275	22010
886.4	21892
886.525	21987
886.65	22048
886.775	21831
886.9	22143
887.025	22295
887.149	22040
887.274	21937
887.399	21759
887.523	21937
887.648	21850
887.773	21724
887.897	21804
888.021	21926
888.146	21751
888.27	21895
888.395	21903
888.519	21827
888.643	21857
888.767	21831
888.891	21606
889.015	21564
889.139	21614
889.263	21568
889.387	21675
889.511	21819
889.635	21614
889.759	21583
889.883	21572
890.006	21553
890.13	21622
890.254	21507
890.377	21488
890.501	21378
890.624	21351
890.748	21412
890.871	21195
890.995	21218
891.118	20925
891.241	21131
891.364	21218
891.488	21279
891.611	21195
891.734	21161
891.857	21207
891.98	21146
892.103	21195
892.226	21173
892.349	21112
892.471	20941
892.594	21108
892.717	21036
892.839	20929
892.962	21047
893.085	21055
893.207	20979
893.33	20979
893.452	20971
893.575	21066
893.697	20986
893.819	21207
893.941	21184
894.064	21184
894.186	20998
894.308	20982
894.43	20979
894.552	21047
894.674	21055
894.796	20876
894.918	20979
895.04	21032
895.161	20963
895.283	21005
895.405	20990
895.526	20956
895.648	21009
895.769	21032
895.891	21157
896.012	20986
896.134	21032
896.255	21096
896.376	20967
896.498	20990
896.619	20975
896.74	21077
896.861	21062
896.982	21325
897.103	21485
897.224	21393
897.345	21207
897.466	21283
897.587	21233
897.708	21275
897.828	21180
897.949	21165
898.07	21009
898.19	21195
898.311	21336
898.431	21226
898.552	21214
898.672	21386
898.792	21138
898.913	21138
899.033	21017
899.153	20963
899.273	20872
899.393	20895
899.513	20887
899.633	20887
899.753	20765
899.873	20834
899.993	20956
900.113	20944
900.232	20777
900.352	20891
900.472	20777
900.591	20621
900.711	20712
900.83	20712
900.95	20705
901.069	20777
901.189	20473
901.308	20358
901.427	20294
901.546	20229
901.665	20191
901.784	20282
901.904	20134
902.023	19928
902.141	19917
902.26	19799
902.379	19898
902.498	19662
902.617	19643
902.735	19765
902.854	19681
902.973	19704
903.091	19396
903.21	19266
903.328	19396
903.446	19369
903.565	19141
903.683	19244
903.801	19103
903.919	19206
904.038	19072
904.156	18996
904.274	19034
904.392	18973
904.51	19000
904.627	18916
904.745	19012
904.863	18924
904.981	18856
905.098	18597
905.216	18700
905.334	18772
905.451	18677
905.569	18627
905.686	18688
905.803	18616
905.921	18418
906.038	18540
906.155	18570
906.272	18357
906.389	18365
906.506	18121
906.623	18186
906.74	18110
906.857	18003
906.974	18045
907.091	18186
907.208	18353
907.324	18110
907.441	18129
907.557	17885
907.674	17923
907.79	17817
907.907	17783
908.023	17893
908.139	17786
908.256	17741
908.372	17672
908.488	17676
908.604	17528
908.72	17551
908.836	17554
908.952	17368
909.068	17703
909.184	17649
909.3	17619
909.415	17543
909.531	17493
909.647	17250
909.762	17162
909.878	17288
909.993	17170
910.108	17189
910.224	17037
910.339	17155
910.454	17140
910.57	17071
910.685	16923
910.8	17178
910.915	17060
911.03	17052
911.145	16862
911.259	16843
911.374	16869
911.489	16763
911.604	16733
911.718	16542
911.833	16523
911.947	16470
912.062	16306
912.176	16584
912.291	16542
912.405	16637
912.519	16809
912.633	16672
912.748	16527
912.862	16497
912.976	16363
913.09	16188
913.204	16329
913.318	16303
913.431	16386
913.545	16375
913.659	16398
913.772	16249
913.886	16112
914	16166
914.113	16238
914.226	16265
914.34	16196
914.453	16021
914.566	16128
914.68	16055
914.793	15937
914.906	15880
915.019	15701
915.132	15747
915.245	15766
915.358	15755
915.47	15713
915.583	15694
915.696	15679
915.809	15880
915.921	15876
916.034	15705
916.146	15663
916.259	15584
916.371	15705
916.483	15610
916.595	15576
916.708	15519
916.82	15561
916.932	15469
917.044	15439
917.156	15370
917.268	15351
917.38	15306
917.491	15306
917.603	15329
917.715	15485
917.826	15393
917.938	15332
918.049	15241
918.161	15272
918.272	15420
918.384	15420
918.495	15283
918.606	15146
918.717	15074
918.828	15100
918.939	15077
919.05	15001
919.161	15062
919.272	14861
919.383	14921
919.494	15062
919.604	15264
919.715	14948
919.826	14971
919.936	14921
920.047	15131
920.157	14929
920.267	15116
920.378	15051
920.488	15009
920.598	15123
920.708	15302
920.818	15173
920.928	15142
921.038	15184
921.148	15230
921.258	14952
921.368	14849
921.477	14819
921.587	14701
921.697	14598
921.806	14705
921.916	14522
922.025	14434
922.134	14324
922.244	14400
922.353	14309
922.462	14362
922.571	14168
922.68	14012
922.789	13982
922.898	13936
923.007	13959
923.116	14062
923.224	14027
923.333	14001
923.442	13887
923.55	13704
923.659	13811
923.767	13833
923.876	13750
923.984	13830
924.092	13670
924.201	13670
924.309	13689
924.417	13632
924.525	13571
924.633	13586
924.741	14537
924.849	13468
924.956	13636
925.064	13430
925.172	13270
925.279	13350
925.387	13384
925.494	13434
925.602	13578
925.709	13449
925.816	13244
925.924	13335
926.031	13422
926.138	13377
926.245	13384
926.352	13202
926.459	13297
926.566	13400
926.673	13209
926.779	13080
926.886	13107
926.993	12977
927.099	12943
927.206	12875
927.312	12878
927.419	13061
927.525	12859
927.631	12894
927.737	12757
927.843	12798
927.95	12631
928.056	12764
928.162	12711
928.267	12817
928.373	13331
928.479	12802
928.585	12555
928.69	12673
928.796	12719
928.901	12475
929.007	12376
929.112	12521
929.218	12639
929.323	12498
929.428	12452
929.533	12589
929.638	12410
929.743	12369
929.848	12437
929.953	12384
930.058	12273
930.163	12121
930.267	12144
930.372	12315
930.477	12057
930.581	12266
930.685	12133
930.79	11999
930.894	12022
930.998	12003
931.103	12125
931.207	11775
931.311	11589
931.415	11630
931.519	11402
931.623	11387
