Data from test_V78500241_612.txt Node
Date: Fri Mar 25 15:46:02 CST 2022
User: usil
Spectrometer: V785-0024
Trigger mode: 0
Integration Time (sec): 4.000000E-1
Scans to average: 1
Nonlinearity correction enabled: false
Boxcar width: 0
Storing dark spectrum: false
XAxis mode: Wavelengths
Number of Pixels in Spectrum: 1024
>>>>>Begin Spectral Data<<<<<
801.071	27914
801.214	28006
801.356	27637
801.499	27515
801.641	27572
801.783	27359
801.926	27618
802.068	27576
802.211	27504
802.353	27249
802.496	27123
802.638	27157
802.78	27195
802.923	27005
803.065	27020
803.208	27131
803.35	27108
803.492	27241
803.635	27378
803.777	27154
803.919	27249
804.061	27580
804.204	27412
804.346	27173
804.488	27157
804.63	27173
804.773	27169
804.915	27325
805.057	27405
805.199	27351
805.341	27389
805.483	27397
805.626	27492
805.768	27431
805.91	27363
806.052	27523
806.194	27431
806.336	27675
806.478	27367
806.62	27401
806.762	27686
806.904	27751
807.046	28021
807.188	27895
807.33	27819
807.472	27892
807.614	27804
807.756	27884
807.898	27736
808.04	27618
808.182	27675
808.324	27614
808.465	27785
808.607	27960
808.749	28128
808.891	28128
809.033	28329
809.174	28105
809.316	28067
809.458	28090
809.6	28135
809.741	28379
809.883	28226
810.025	28329
810.166	28287
810.308	28382
810.45	28325
810.591	28246
810.733	28226
810.875	28051
811.016	27983
811.158	28135
811.299	28185
811.441	28291
811.582	28310
811.724	28093
811.865	28101
812.007	28162
812.148	28055
812.29	28272
812.431	28226
812.573	28447
812.714	28630
812.855	28679
812.997	28710
813.138	28843
813.279	28831
813.421	28687
813.562	28531
813.703	28440
813.845	28409
813.986	28215
814.127	27873
814.268	27892
814.41	27857
814.551	27762
814.692	27793
814.833	27622
814.974	27644
815.115	28051
815.256	27724
815.397	27713
815.539	27698
815.68	27622
815.821	27599
815.962	27534
816.103	27709
816.244	27435
816.385	27557
816.526	27382
816.666	27317
816.807	27074
816.948	27218
817.089	27279
817.23	27150
817.371	27100
817.512	27233
817.653	27005
817.793	27074
817.934	27116
818.075	27108
818.216	27112
818.356	27245
818.497	26872
818.638	26940
818.778	26788
818.919	26902
819.06	27005
819.2	27066
819.341	27051
819.481	27138
819.622	27218
819.762	27492
819.903	27355
820.043	27283
820.184	27184
820.324	27237
820.465	27344
820.605	27199
820.746	27203
820.886	27066
821.026	27233
821.167	27188
821.307	27382
821.447	27119
821.588	27104
821.728	26971
821.868	26826
822.008	26541
822.149	26606
822.289	26621
822.429	26324
822.569	26381
822.709	26206
822.849	26088
822.99	26081
823.13	26145
823.27	25959
823.41	26005
823.55	25887
823.69	25947
823.83	25902
823.97	25932
824.11	25643
824.25	25548
824.389	25677
824.529	25852
824.669	25757
824.809	25894
824.949	25947
825.089	25776
825.228	25841
825.368	25537
825.508	25521
825.648	25544
825.787	25696
825.927	25666
826.067	25548
826.206	25563
826.346	25537
826.485	25628
826.625	25571
826.765	25818
826.904	25639
827.044	25449
827.183	25373
827.323	25255
827.462	25312
827.601	25270
827.741	25415
827.88	25339
828.02	25080
828.159	25285
828.298	25373
828.437	25407
828.577	25324
828.716	25438
828.855	25270
828.994	24920
829.134	24913
829.273	24981
829.412	24935
829.551	25031
829.69	25069
829.829	25076
829.968	25008
830.107	25069
830.246	25053
830.385	24973
830.524	24913
830.663	24848
830.802	24791
830.941	24608
831.08	24475
831.219	24734
831.357	24669
831.496	24726
831.635	24707
831.774	24418
831.913	24479
832.051	24384
832.19	24292
832.329	24445
832.467	24228
832.606	24365
832.744	24178
832.883	24178
833.022	24239
833.16	24289
833.299	24372
833.437	24509
833.576	24410
833.714	24311
833.852	24399
833.991	24330
834.129	24475
834.267	24380
834.406	24277
834.544	24384
834.682	24399
834.821	24289
834.959	24300
835.097	24304
835.235	24456
835.373	24239
835.511	24407
835.65	24178
835.788	24270
835.926	24136
836.064	23954
836.202	24034
836.34	24205
836.478	24285
836.615	24174
836.753	24159
836.891	24239
837.029	24159
837.167	24167
837.305	23992
837.443	24053
837.58	24049
837.718	24015
837.856	24174
837.993	23942
838.131	23920
838.269	23786
838.406	24011
838.544	23802
838.681	23653
838.819	23634
838.956	23425
839.094	23474
839.231	23444
839.369	23668
839.506	23889
839.643	23729
839.781	23505
839.918	23395
840.055	23516
840.193	23459
840.33	23429
840.467	23414
840.604	23524
840.742	23748
840.879	23223
841.016	23239
841.153	23280
841.29	23516
841.427	23326
841.564	23490
841.701	23265
841.838	23360
841.975	23318
842.112	23318
842.249	23269
842.385	23277
842.522	23254
842.659	23178
842.796	23136
842.933	23136
843.069	23178
843.206	23064
843.343	23132
843.479	23109
843.616	23094
843.752	22957
843.889	22965
844.025	23022
844.162	22908
844.298	23003
844.435	22843
844.571	22885
844.708	22843
844.844	23136
844.98	23056
845.117	23102
845.253	22831
845.389	22687
845.525	22873
845.661	22809
845.798	22721
845.934	22736
846.07	22668
846.206	22755
846.342	22748
846.478	22744
846.614	22421
846.75	22417
846.886	22386
847.022	22440
847.158	22356
847.294	22382
847.429	22424
847.565	22390
847.701	22527
847.837	22090
847.972	22124
848.108	22211
848.244	22265
848.379	22032
848.515	21998
848.65	22002
848.786	21903
848.921	21983
849.057	22029
849.192	22063
849.328	22074
849.463	22063
849.598	21907
849.734	21838
849.869	21774
850.004	21739
850.14	21747
850.275	21667
850.41	21519
850.545	21759
850.68	21671
850.815	21701
850.95	21751
851.085	22040
851.22	21873
851.355	21739
851.49	21774
851.625	21690
851.76	21778
851.895	21542
852.03	21618
852.165	21705
852.299	21800
852.434	21789
852.569	21816
852.703	21819
852.838	21793
852.973	21895
853.107	21907
853.242	21663
853.376	21591
853.511	21450
853.645	21496
853.78	21675
853.914	21492
854.048	21500
854.183	21515
854.317	21523
854.451	21770
854.585	21618
854.72	21686
854.854	21545
854.988	21450
855.122	21507
855.256	21526
855.39	21507
855.524	21603
855.658	21671
855.792	21622
855.926	21576
856.06	21568
856.194	21663
856.327	21515
856.461	21496
856.595	21530
856.729	21580
856.862	21595
856.996	21644
857.13	21545
857.263	21656
857.397	21576
857.53	21450
857.664	21625
857.797	21553
857.931	21637
858.064	21523
858.197	21656
858.331	21644
858.464	21473
858.597	21401
858.731	21545
858.864	21576
858.997	21606
859.13	21561
859.263	21523
859.396	21622
859.529	21511
859.662	21538
859.795	21610
859.928	21553
860.061	21671
860.194	21603
860.327	21644
860.46	21625
860.592	21816
860.725	21625
860.858	21583
860.99	21511
861.123	21492
861.256	21500
861.388	21450
861.521	21991
861.653	21462
861.786	21226
861.918	21359
862.05	21393
862.183	21458
862.315	21469
862.447	21492
862.58	21405
862.712	21249
862.844	21233
862.976	21298
863.108	21420
863.24	21663
863.372	21241
863.504	21142
863.636	21287
863.768	21306
863.9	21370
864.032	21154
864.164	21313
864.296	21256
864.428	21397
864.559	21180
864.691	21256
864.823	21237
864.954	21287
865.086	21135
865.217	21169
865.349	21169
865.48	21096
865.612	21104
865.743	21195
865.875	21085
866.006	21085
866.137	21173
866.269	21169
866.4	21108
866.531	21142
866.662	20982
866.793	21062
866.924	21112
867.055	21062
867.186	21195
867.317	21055
867.448	20998
867.579	21135
867.71	21108
867.841	21013
867.972	20990
868.103	21055
868.233	21051
868.364	21108
868.495	21154
868.625	21237
868.756	21450
868.886	21378
869.017	21302
869.147	21389
869.278	21382
869.408	21298
869.539	21351
869.669	21534
869.799	21466
869.929	21386
870.06	21359
870.19	21656
870.32	21587
870.45	21542
870.58	21743
870.71	21808
870.84	21945
870.97	21679
871.1	21713
871.23	21953
871.36	21819
871.489	21812
871.619	21945
871.749	21892
871.879	21861
872.008	22059
872.138	21838
872.267	21857
872.397	21743
872.526	21743
872.656	21793
872.785	21766
872.915	21892
873.044	22044
873.173	21987
873.303	22010
873.432	21945
873.561	21915
873.69	21899
873.819	21953
873.948	21983
874.077	21854
874.206	21907
874.335	21937
874.464	22147
874.593	22101
874.722	22090
874.851	22109
874.979	22211
875.108	22344
875.237	22143
875.365	22093
875.494	22116
875.623	22169
875.751	22173
875.88	22204
876.008	22207
876.136	22272
876.265	22497
876.393	22634
876.521	22573
876.65	22592
876.778	22588
876.906	22455
877.034	22527
877.162	22550
877.29	22413
877.418	22432
877.546	22611
877.674	22451
877.802	22489
877.93	22497
878.058	22504
878.185	22344
878.313	22493
878.441	22421
878.568	22352
878.696	22493
878.824	22447
878.951	22584
879.079	22683
879.206	22816
879.333	22702
879.461	22599
879.588	22462
879.715	22656
879.842	22694
879.97	22577
880.097	22348
880.224	22337
880.351	22333
880.478	22356
880.605	22253
880.732	22379
880.859	22645
880.986	22375
881.112	22371
881.239	22211
881.366	22067
881.493	22013
881.619	21911
881.746	21850
881.872	21922
881.999	21854
882.125	21865
882.252	22078
882.378	21865
882.505	22063
882.631	21770
882.757	21652
882.883	21618
883.01	21675
883.136	21561
883.262	21443
883.388	21458
883.514	21583
883.64	21660
883.766	21507
883.892	21325
884.018	21374
884.143	21591
884.269	21561
884.395	21363
884.52	21165
884.646	21218
884.772	21173
884.897	21116
885.023	21272
885.148	21332
885.274	21287
885.399	21424
885.524	21291
885.65	21275
885.775	21291
885.9	21150
886.025	21336
886.15	21218
886.275	21287
886.4	21154
886.525	21039
886.65	21256
886.775	21180
886.9	21340
887.025	21397
887.149	21146
887.274	21230
887.399	20887
887.523	21013
887.648	21005
887.773	20887
887.897	21150
888.021	21047
888.146	21005
888.27	21055
888.395	21218
888.519	21013
888.643	21020
888.767	21081
888.891	20921
889.015	20845
889.139	20830
889.263	20773
889.387	20921
889.511	20941
889.635	20944
889.759	20720
889.883	20819
890.006	20785
890.13	20914
890.254	20705
890.377	20678
890.501	20598
890.624	20568
890.748	20495
890.871	20408
890.995	20347
891.118	20339
891.241	20377
891.364	20400
891.488	20522
891.611	20431
891.734	20347
891.857	20484
891.98	20442
892.103	20282
892.226	20252
892.349	20358
892.471	20119
892.594	20252
892.717	20358
892.839	20305
892.962	20252
893.085	20313
893.207	20339
893.33	20164
893.452	20183
893.575	20294
893.697	20210
893.819	20396
893.941	20351
894.064	20442
894.186	20290
894.308	20210
894.43	20339
894.552	20480
894.674	20332
894.796	20286
894.918	20278
895.04	20195
895.161	20358
895.283	20305
895.405	20202
895.526	20275
895.648	20187
895.769	20263
895.891	20278
896.012	20256
896.134	20336
896.255	20248
896.376	20214
896.498	20404
896.619	20400
896.74	20195
896.861	20377
896.982	20598
897.103	20674
897.224	20530
897.345	20450
897.466	20389
897.587	20431
897.708	20689
897.828	20511
897.949	20366
898.07	20412
898.19	20511
898.311	20571
898.431	20473
898.552	20549
898.672	20526
898.792	20480
898.913	20450
899.033	20370
899.153	20298
899.273	20278
899.393	20282
899.513	20294
899.633	20290
899.753	20202
899.873	20096
899.993	20199
900.113	20195
900.232	20210
900.352	20103
900.472	20081
900.591	20016
900.711	19932
900.83	20001
900.95	20172
901.069	20088
901.189	19959
901.308	19613
901.427	19681
901.546	19666
901.665	19643
901.784	19567
901.904	19441
902.023	19362
902.141	19194
902.26	19236
902.379	19274
902.498	19012
902.617	18932
902.735	19156
902.854	19114
902.973	18985
903.091	18795
903.21	18795
903.328	18688
903.446	18661
903.565	18578
903.683	18509
903.801	18350
903.919	18521
904.038	18593
904.156	18422
904.274	18471
904.392	18186
904.51	18315
904.627	18338
904.745	18445
904.863	18323
904.981	18072
905.098	18083
905.216	18057
905.334	18091
905.451	18026
905.569	17920
905.686	18034
905.803	17984
905.921	17794
906.038	17942
906.155	17821
906.272	17699
906.389	17707
906.506	17634
906.623	17638
906.74	17577
906.857	17463
906.974	17474
907.091	17547
907.208	17596
907.324	17653
907.441	17471
907.557	17326
907.674	17250
907.79	17208
907.907	17277
908.023	17318
908.139	17265
908.256	17140
908.372	17204
908.488	17258
908.604	17075
908.72	16968
908.836	17029
908.952	16854
909.068	16957
909.184	17041
909.3	16972
909.415	17025
909.531	17006
909.647	16805
909.762	16687
909.878	16622
909.993	16603
910.108	16767
910.224	16649
910.339	16622
910.454	16558
910.57	16421
910.685	16512
910.8	16641
910.915	16599
911.03	16497
911.145	16352
911.259	16207
911.374	16238
911.489	16272
911.604	16177
911.718	16021
911.833	16021
911.947	15949
912.062	15972
912.176	16105
912.291	16101
912.405	16032
912.519	16131
912.633	16196
912.748	16036
912.862	16013
912.976	15854
913.09	15743
913.204	15819
913.318	15831
913.431	16017
913.545	15831
913.659	15892
913.772	15846
913.886	15701
914	15561
914.113	15728
914.226	15739
914.34	15652
914.453	15500
914.566	15694
914.68	15504
914.793	15420
914.906	15329
915.019	15230
915.132	15150
915.245	15241
915.358	15275
915.47	15302
915.583	15233
915.696	15241
915.809	15336
915.921	15386
916.034	15192
916.146	15203
916.259	15024
916.371	15146
916.483	15184
916.595	15116
916.708	15112
916.82	15165
916.932	15005
917.044	15051
917.156	14921
917.268	14891
917.38	14918
917.491	14929
917.603	14883
917.715	14944
917.826	14918
917.938	14785
918.049	14689
918.161	14811
918.272	14990
918.384	14933
918.495	14872
918.606	14686
918.717	14610
918.828	14724
918.939	14735
919.05	14590
919.161	14564
919.272	14480
919.383	14556
919.494	14758
919.604	14811
919.715	14659
919.826	14503
919.936	14568
920.047	14678
920.157	14568
920.267	14845
920.378	14686
920.488	14568
920.598	14724
920.708	14849
920.818	14731
920.928	14651
921.038	14899
921.148	14804
921.258	14545
921.368	14488
921.477	14469
921.587	14336
921.697	14240
921.806	14385
921.916	14157
922.025	13997
922.134	13951
922.244	13940
922.353	14016
922.462	13852
922.571	13818
922.68	13670
922.789	13609
922.898	13696
923.007	13502
923.116	13662
923.224	13586
923.333	13582
923.442	13476
923.55	13422
923.659	13529
923.767	13457
923.876	13422
923.984	13460
924.092	13339
924.201	13358
924.309	13324
924.417	13400
924.525	13247
924.633	13251
924.741	14313
924.849	13038
924.956	13251
925.064	13065
925.172	12924
925.279	13095
925.387	13000
925.494	13008
925.602	13149
925.709	13137
925.816	12962
925.924	13057
926.031	13107
926.138	12901
926.245	13012
926.352	12840
926.459	12920
926.566	13008
926.673	12810
926.779	12696
926.886	12768
926.993	12627
927.099	12612
927.206	12509
927.312	12464
927.419	12741
927.525	12574
927.631	12604
927.737	12509
927.843	12410
927.95	12315
928.056	12376
928.162	12483
928.267	12460
928.373	13046
928.479	12486
928.585	12205
928.69	12365
928.796	12441
928.901	12300
929.007	12171
929.112	12300
929.218	12216
929.323	12129
929.428	12163
929.533	12315
929.638	12087
929.743	12038
929.848	12182
929.953	12095
930.058	11942
930.163	11897
930.267	11855
930.372	11939
930.477	11764
930.581	12022
930.685	11882
930.79	11714
930.894	11684
930.998	11703
931.103	11843
931.207	11406
931.311	11402
931.415	11261
931.519	11105
931.623	11204
