Data from test_V78500241_418.txt Node
Date: Fri Mar 25 15:44:41 CST 2022
User: usil
Spectrometer: V785-0024
Trigger mode: 0
Integration Time (sec): 4.000000E-1
Scans to average: 1
Nonlinearity correction enabled: false
Boxcar width: 0
Storing dark spectrum: false
XAxis mode: Wavelengths
Number of Pixels in Spectrum: 1024
>>>>>Begin Spectral Data<<<<<
801.071	29140
801.214	29037
801.356	29018
801.499	28858
801.641	28771
801.783	28752
801.926	28736
802.068	28767
802.211	28550
802.353	28565
802.496	28459
802.638	28413
802.78	28386
802.923	28344
803.065	28226
803.208	28287
803.35	28432
803.492	28390
803.635	28413
803.777	28428
803.919	28512
804.061	28809
804.204	28596
804.346	28413
804.488	28569
804.63	28436
804.773	28432
804.915	28474
805.057	28618
805.199	28535
805.341	28584
805.483	28725
805.626	28744
805.768	28462
805.91	28489
806.052	28660
806.194	28550
806.336	28755
806.478	28656
806.62	28672
806.762	28797
806.904	28927
807.046	29155
807.188	29102
807.33	29033
807.472	29128
807.614	28957
807.756	29086
807.898	28908
808.04	28919
808.182	28824
808.324	28896
808.465	28847
808.607	29060
808.749	29208
808.891	29345
809.033	29421
809.174	29349
809.316	29398
809.458	29330
809.6	29220
809.741	29284
809.883	29463
810.025	29646
810.166	29539
810.308	29608
810.45	29429
810.591	29547
810.733	29516
810.875	29280
811.016	29193
811.158	29261
811.299	29410
811.441	29425
811.582	29421
811.724	29402
811.865	29170
812.007	29330
812.148	29265
812.29	29383
812.431	29528
812.573	29642
812.714	29745
812.855	29851
812.997	29790
813.138	29950
813.279	29969
813.421	29996
813.562	29904
813.703	29710
813.845	29482
813.986	29345
814.127	29075
814.268	29128
814.41	29056
814.551	28858
814.692	29128
814.833	28847
814.974	28888
815.115	29079
815.256	28862
815.397	28862
815.539	28713
815.68	28626
815.821	28702
815.962	28767
816.103	28733
816.244	28626
816.385	28512
816.526	28516
816.666	28272
816.807	28177
816.948	28287
817.089	28253
817.23	28268
817.371	28257
817.512	28322
817.653	28169
817.793	28044
817.934	28181
818.075	28242
818.216	28291
818.356	28048
818.497	28112
818.638	27911
818.778	27964
818.919	27968
819.06	27956
819.2	28150
819.341	28226
819.481	28097
819.622	28337
819.762	28512
819.903	28386
820.043	28337
820.184	28268
820.324	28360
820.465	28436
820.605	28268
820.746	28276
820.886	28097
821.026	28211
821.167	28230
821.307	28447
821.447	28268
821.588	28021
821.728	27983
821.868	27755
822.008	27675
822.149	27580
822.289	27572
822.429	27405
822.569	27348
822.709	27321
822.849	27017
822.99	27245
823.13	27085
823.27	27028
823.41	26914
823.55	26842
823.69	26933
823.83	27062
823.97	26853
824.11	26762
824.25	26663
824.389	26743
824.529	26960
824.669	26758
824.809	26811
824.949	26743
825.089	26777
825.228	26868
825.368	26499
825.508	26636
825.648	26708
825.787	26621
825.927	26701
826.067	26583
826.206	26545
826.346	26712
826.485	26606
826.625	26648
826.765	26564
826.904	26545
827.044	26415
827.183	26320
827.323	26199
827.462	26286
827.601	26351
827.741	26248
827.88	26298
828.02	26225
828.159	26240
828.298	26210
828.437	26225
828.577	26377
828.716	26343
828.855	26202
828.994	25944
829.134	25986
829.273	26027
829.412	25913
829.551	25860
829.69	26016
829.829	26043
829.968	26069
830.107	26043
830.246	25837
830.385	25841
830.524	25932
830.663	25666
830.802	25601
830.941	25514
831.08	25540
831.219	25643
831.357	25681
831.496	25685
831.635	25479
831.774	25502
831.913	25453
832.051	25293
832.19	25187
832.329	25343
832.467	25289
832.606	25263
832.744	25187
832.883	25263
833.022	25202
833.16	25206
833.299	25213
833.437	25168
833.576	25343
833.714	25297
833.852	25194
833.991	25228
834.129	25335
834.267	25362
834.406	25152
834.544	25217
834.682	25122
834.821	25141
834.959	25422
835.097	25126
835.235	25171
835.373	25297
835.511	25175
835.65	25084
835.788	25114
835.926	24856
836.064	24894
836.202	24970
836.34	25099
836.478	25152
836.615	25114
836.753	25084
836.891	25107
837.029	24981
837.167	25118
837.305	25027
837.443	25027
837.58	24894
837.718	24913
837.856	24863
837.993	24840
838.131	24920
838.269	24738
838.406	24741
838.544	24650
838.681	24547
838.819	24384
838.956	24178
839.094	24296
839.231	24361
839.369	24544
839.506	24749
839.643	24555
839.781	24300
839.918	24216
840.055	24292
840.193	24403
840.33	24216
840.467	24251
840.604	24243
840.742	24448
840.879	23992
841.016	24243
841.153	24026
841.29	24273
841.427	24232
841.564	24167
841.701	24144
841.838	24140
841.975	24018
842.112	24140
842.249	23939
842.385	23859
842.522	24079
842.659	23954
842.796	23847
842.933	23847
843.069	23809
843.206	23840
843.343	24030
843.479	23794
843.616	23893
843.752	23653
843.889	23695
844.025	23752
844.162	23680
844.298	23676
844.435	23733
844.571	23562
844.708	23623
844.844	23767
844.98	23786
845.117	23771
845.253	23600
845.389	23452
845.525	23554
845.661	23417
845.798	23284
845.934	23372
846.07	23337
846.206	23311
846.342	23452
846.478	23334
846.614	23128
846.75	23029
846.886	23155
847.022	23200
847.158	23075
847.294	23094
847.429	23033
847.565	23090
847.701	23345
847.837	22816
847.972	22691
848.108	22866
848.244	22843
848.379	22710
848.515	22622
848.65	22691
848.786	22649
848.921	22634
849.057	22885
849.192	22839
849.328	22649
849.463	22649
849.598	22561
849.734	22485
849.869	22538
850.004	22470
850.14	22447
850.275	22459
850.41	22402
850.545	22382
850.68	22382
850.815	22329
850.95	22348
851.085	22523
851.22	22413
851.355	22375
851.49	22348
851.625	22329
851.76	22386
851.895	22344
852.03	22344
852.165	22405
852.299	22447
852.434	22470
852.569	22474
852.703	22409
852.838	22546
852.973	22474
853.107	22531
853.242	22329
853.376	22280
853.511	22078
853.645	22051
853.78	22299
853.914	22295
854.048	22207
854.183	22150
854.317	22185
854.451	22398
854.585	22253
854.72	22139
854.854	22230
854.988	22196
855.122	22196
855.256	22025
855.39	22139
855.524	22318
855.658	22257
855.792	22200
855.926	22055
856.06	22303
856.194	22371
856.327	22139
856.461	22158
856.595	22093
856.729	22181
856.862	22257
856.996	22257
857.13	22287
857.263	22265
857.397	22284
857.53	22154
857.664	22215
857.797	22341
857.931	22337
858.064	22272
858.197	22200
858.331	22257
858.464	22044
858.597	22078
858.731	22135
858.864	22192
858.997	22150
859.13	22166
859.263	22097
859.396	22246
859.529	22150
859.662	22101
859.795	22097
859.928	22173
860.061	22261
860.194	22303
860.327	22154
860.46	22154
860.592	22234
860.725	22371
860.858	22200
860.99	22147
861.123	22120
861.256	22055
861.388	22086
861.521	22767
861.653	21960
861.786	21987
861.918	21956
862.05	22090
862.183	22147
862.315	22128
862.447	22112
862.58	22070
862.712	21873
862.844	21816
862.976	22036
863.108	21960
863.24	22447
863.372	21831
863.504	21850
863.636	21846
863.768	21903
863.9	21838
864.032	21800
864.164	21717
864.296	21937
864.428	22040
864.559	21865
864.691	21812
864.823	21945
864.954	21876
865.086	21808
865.217	21766
865.349	21736
865.48	21789
865.612	21781
865.743	21838
865.875	21751
866.006	21652
866.137	21732
866.269	21781
866.4	21679
866.531	21648
866.662	21656
866.793	21648
866.924	21637
867.055	21656
867.186	21690
867.317	21667
867.448	21526
867.579	21591
867.71	21542
867.841	21583
867.972	21610
868.103	21625
868.233	21816
868.364	21618
868.495	21766
868.625	21865
868.756	21953
868.886	21846
869.017	21895
869.147	21983
869.278	21964
869.408	21941
869.539	21907
869.669	21991
869.799	21797
869.929	22116
870.06	22116
870.19	22181
870.32	22036
870.45	22386
870.58	22276
870.71	22322
870.84	22459
870.97	22314
871.1	22261
871.23	22398
871.36	22523
871.489	22432
871.619	22512
871.749	22641
871.879	22573
872.008	22538
872.138	22481
872.267	22451
872.397	22379
872.526	22249
872.656	22344
872.785	22386
872.915	22626
873.044	22546
873.173	22531
873.303	22603
873.432	22561
873.561	22664
873.69	22634
873.819	22527
873.948	22500
874.077	22550
874.206	22443
874.335	22531
874.464	22691
874.593	22793
874.722	22584
874.851	22736
874.979	22873
875.108	22797
875.237	22713
875.365	22634
875.494	22653
875.623	22771
875.751	22516
875.88	22755
876.008	22885
876.136	22942
876.265	23147
876.393	23254
876.521	23143
876.65	23189
876.778	23094
876.906	23075
877.034	23056
877.162	23128
877.29	23052
877.418	22999
877.546	23075
877.674	23025
877.802	23140
877.93	23064
878.058	23140
878.185	22919
878.313	22976
878.441	22972
878.568	22900
878.696	22953
878.824	23029
878.951	23067
879.079	23254
879.206	23414
879.333	23204
879.461	23075
879.588	23155
879.715	23075
879.842	23376
879.97	23094
880.097	22904
880.224	22869
880.351	22877
880.478	22911
880.605	22835
880.732	22892
880.859	23128
880.986	22908
881.112	22835
881.239	22790
881.366	22660
881.493	22493
881.619	22462
881.746	22405
881.872	22516
881.999	22470
882.125	22451
882.252	22512
882.378	22424
882.505	22596
882.631	22379
882.757	22200
882.883	22257
883.01	22192
883.136	22055
883.262	21960
883.388	22040
883.514	22162
883.64	22185
883.766	22059
883.892	22017
884.018	21983
884.143	22131
884.269	22173
884.395	21823
884.52	21785
884.646	21873
884.772	21705
884.897	21778
885.023	21759
885.148	21785
885.274	21949
885.399	21907
885.524	21797
885.65	21774
885.775	21895
885.9	21736
886.025	21804
886.15	21816
886.275	21728
886.4	21648
886.525	21720
886.65	21698
886.775	21785
886.9	21911
887.025	21937
887.149	21743
887.274	21633
887.399	21530
887.523	21614
887.648	21485
887.773	21420
887.897	21614
888.021	21610
888.146	21420
888.27	21610
888.395	21720
888.519	21534
888.643	21500
888.767	21564
888.891	21492
889.015	21363
889.139	21462
889.263	21264
889.387	21382
889.511	21507
889.635	21389
889.759	21420
889.883	21329
890.006	21321
890.13	21355
890.254	21256
890.377	21169
890.501	21138
890.624	21005
890.748	21062
890.871	20963
890.995	20925
891.118	20819
891.241	20880
891.364	20880
891.488	21062
891.611	20880
891.734	20842
891.857	20876
891.98	20971
892.103	21013
892.226	20887
892.349	20830
892.471	20826
892.594	20811
892.717	20853
892.839	20773
892.962	20830
893.085	20746
893.207	20819
893.33	20659
893.452	20716
893.575	20815
893.697	20739
893.819	20918
893.941	20880
894.064	20921
894.186	20781
894.308	20727
894.43	20842
894.552	20849
894.674	20796
894.796	20632
894.918	20750
895.04	20689
895.161	20796
895.283	20743
895.405	20659
895.526	20765
895.648	20826
895.769	20648
895.891	20792
896.012	20823
896.134	20842
896.255	20777
896.376	20727
896.498	20724
896.619	20811
896.74	20705
896.861	20819
896.982	21142
897.103	21203
897.224	21051
897.345	20952
897.466	20937
897.587	20986
897.708	21135
897.828	20994
897.949	20880
898.07	20781
898.19	20864
898.311	21017
898.431	20823
898.552	20925
898.672	20967
898.792	20967
898.913	20944
899.033	20864
899.153	20735
899.273	20689
899.393	20750
899.513	20663
899.633	20746
899.753	20712
899.873	20625
899.993	20773
900.113	20606
900.232	20609
900.352	20598
900.472	20499
900.591	20461
900.711	20347
900.83	20404
900.95	20575
901.069	20442
901.189	20408
901.308	20214
901.427	20077
901.546	19925
901.665	20088
901.784	20054
901.904	19959
902.023	19894
902.141	19601
902.26	19578
902.379	19685
902.498	19567
902.617	19453
902.735	19487
902.854	19476
902.973	19495
903.091	19274
903.21	19217
903.328	19209
903.446	19110
903.565	18924
903.683	18973
903.801	18837
903.919	18890
904.038	18848
904.156	18783
904.274	18966
904.392	18795
904.51	18703
904.627	18608
904.745	18703
904.863	18753
904.981	18479
905.098	18372
905.216	18467
905.334	18498
905.451	18384
905.569	18369
905.686	18418
905.803	18490
905.921	18167
906.038	18235
906.155	18209
906.272	18053
906.389	18140
906.506	17977
906.623	17984
906.74	17874
906.857	17870
906.974	17840
907.091	18064
907.208	18022
907.324	17874
907.441	17836
907.557	17748
907.674	17676
907.79	17516
907.907	17573
908.023	17611
908.139	17535
908.256	17570
908.372	17410
908.488	17501
908.604	17455
908.72	17197
908.836	17387
908.952	17223
909.068	17265
909.184	17406
909.3	17277
909.415	17334
909.531	17258
909.647	17037
909.762	16984
909.878	16953
909.993	16968
910.108	16949
910.224	16965
910.339	17098
910.454	16915
910.57	16839
910.685	16767
910.8	16957
910.915	16972
911.03	16717
911.145	16626
911.259	16580
911.374	16615
911.489	16538
911.604	16466
911.718	16379
911.833	16402
911.947	16246
912.062	16196
912.176	16455
912.291	16379
912.405	16447
912.519	16531
912.633	16500
912.748	16356
912.862	16310
912.976	16139
913.09	16074
913.204	16074
913.318	16223
913.431	16261
913.545	16230
913.659	16253
913.772	16036
913.886	15926
914	15975
914.113	15949
914.226	16029
914.34	15983
914.453	15854
914.566	15949
914.68	15816
914.793	15835
914.906	15561
915.019	15542
915.132	15485
915.245	15534
915.358	15584
915.47	15553
915.583	15515
915.696	15549
915.809	15648
915.921	15625
916.034	15408
916.146	15485
916.259	15424
916.371	15450
916.483	15496
916.595	15325
916.708	15321
916.82	15416
916.932	15245
917.044	15313
917.156	15249
917.268	15173
917.38	15233
917.491	15188
917.603	15184
917.715	15165
917.826	15272
917.938	15142
918.049	14979
918.161	15039
918.272	15275
918.384	15203
918.495	15093
918.606	14872
918.717	14838
918.828	14944
918.939	14845
919.05	14777
919.161	14910
919.272	14686
919.383	14777
919.494	14971
919.604	15081
919.715	14906
919.826	14785
919.936	14788
920.047	14960
920.157	14921
920.267	14956
920.378	14891
920.488	14895
920.598	15009
920.708	15150
920.818	14986
920.928	15047
921.038	15154
921.148	15154
921.258	14796
921.368	14689
921.477	14625
921.587	14598
921.697	14469
921.806	14594
921.916	14396
922.025	14210
922.134	14191
922.244	14218
922.353	14271
922.462	14088
922.571	14039
922.68	13917
922.789	13841
922.898	13811
923.007	13856
923.116	13917
923.224	13875
923.333	13868
923.442	13780
923.55	13734
923.659	13609
923.767	13715
923.876	13681
923.984	13715
924.092	13552
924.201	13613
924.309	13483
924.417	13571
924.525	13491
924.633	13525
924.741	14221
924.849	13396
924.956	13441
925.064	13274
925.172	13206
925.279	13304
925.387	13278
925.494	13304
925.602	13350
925.709	13285
925.816	13187
925.924	13221
926.031	13225
926.138	13126
926.245	13209
926.352	13110
926.459	13225
926.566	13282
926.673	13053
926.779	13072
926.886	12996
926.993	12833
927.099	12825
927.206	12662
927.312	12760
927.419	12875
927.525	12825
927.631	12814
927.737	12597
927.843	12639
927.95	12642
928.056	12658
928.162	12551
928.267	12703
928.373	13266
928.479	12574
928.585	12589
928.69	12475
928.796	12639
928.901	12395
929.007	12350
929.112	12452
929.218	12422
929.323	12414
929.428	12346
929.533	12353
929.638	12239
929.743	12315
929.848	12273
929.953	12327
930.058	12258
930.163	12019
930.267	12019
930.372	12171
930.477	11923
930.581	12209
930.685	12026
930.79	11920
930.894	11939
930.998	11923
931.103	11942
931.207	11668
931.311	11482
931.415	11455
931.519	11223
931.623	11242
