Data from test_V78500241_2158.txt Node
Date: Fri Mar 25 15:56:45 CST 2022
User: usil
Spectrometer: V785-0024
Trigger mode: 0
Integration Time (sec): 4.000000E-1
Scans to average: 1
Nonlinearity correction enabled: false
Boxcar width: 0
Storing dark spectrum: false
XAxis mode: Wavelengths
Number of Pixels in Spectrum: 1024
>>>>>Begin Spectral Data<<<<<
801.071	28866
801.214	28740
801.356	28470
801.499	28580
801.641	28523
801.783	28272
801.926	28451
802.068	28348
802.211	28360
802.353	28470
802.496	28169
802.638	28086
802.78	28063
802.923	28150
803.065	27922
803.208	28177
803.35	28032
803.492	28272
803.635	28303
803.777	28265
803.919	28401
804.061	28812
804.204	28504
804.346	28322
804.488	28398
804.63	28299
804.773	28238
804.915	28299
805.057	28443
805.199	28344
805.341	28417
805.483	28592
805.626	28523
805.768	28348
805.91	28607
806.052	28413
806.194	28398
806.336	28782
806.478	28573
806.62	28599
806.762	28717
806.904	28915
807.046	29159
807.188	28946
807.33	29052
807.472	29147
807.614	28919
807.756	28991
807.898	28866
808.04	28828
808.182	28877
808.324	28797
808.465	28972
808.607	29212
808.749	29216
808.891	29303
809.033	29387
809.174	29193
809.316	29151
809.458	29208
809.6	29166
809.741	29364
809.883	29349
810.025	29573
810.166	29528
810.308	29585
810.45	29524
810.591	29551
810.733	29250
810.875	29212
811.016	29071
811.158	29102
811.299	29220
811.441	29433
811.582	29296
811.724	29303
811.865	29204
812.007	29235
812.148	29337
812.29	29265
812.431	29455
812.573	29524
812.714	29535
812.855	29786
812.997	29843
813.138	30026
813.279	29878
813.421	29775
813.562	29596
813.703	29592
813.845	29528
813.986	29197
814.127	28991
814.268	28915
814.41	28980
814.551	28987
814.692	28953
814.833	28828
814.974	28888
815.115	28869
815.256	28691
815.397	28873
815.539	28809
815.68	28748
815.821	28683
815.962	28797
816.103	28793
816.244	28603
816.385	28626
816.526	28668
816.666	28356
816.807	28253
816.948	28360
817.089	28459
817.23	28314
817.371	28432
817.512	28306
817.653	28284
817.793	28306
817.934	28219
818.075	28295
818.216	28306
818.356	28139
818.497	28074
818.638	28059
818.778	28188
818.919	28025
819.06	28093
819.2	28116
819.341	28242
819.481	28223
819.622	28436
819.762	28691
819.903	28607
820.043	28401
820.184	28436
820.324	28466
820.465	28440
820.605	28428
820.746	28474
820.886	28200
821.026	28363
821.167	28344
821.307	28344
821.447	28371
821.588	28169
821.728	28101
821.868	27930
822.008	27774
822.149	27800
822.289	27720
822.429	27427
822.569	27583
822.709	27454
822.849	27416
822.99	27260
823.13	27233
823.27	27131
823.41	27100
823.55	26975
823.69	27169
823.83	27070
823.97	27051
824.11	26918
824.25	26800
824.389	26861
824.529	27135
824.669	26948
824.809	27024
824.949	27150
825.089	26994
825.228	26845
825.368	26796
825.508	26781
825.648	26807
825.787	26880
825.927	26785
826.067	26887
826.206	26838
826.346	26849
826.485	26880
826.625	26819
826.765	26834
826.904	26845
827.044	26560
827.183	26644
827.323	26625
827.462	26598
827.601	26457
827.741	26609
827.88	26606
828.02	26419
828.159	26309
828.298	26484
828.437	26579
828.577	26488
828.716	26705
828.855	26503
828.994	26275
829.134	26176
829.273	26305
829.412	26237
829.551	26115
829.69	26187
829.829	26294
829.968	26168
830.107	26313
830.246	26263
830.385	26084
830.524	26183
830.663	26008
830.802	25860
830.941	25814
831.08	25795
831.219	25944
831.357	26005
831.496	26069
831.635	25898
831.774	25632
831.913	25727
832.051	25651
832.19	25563
832.329	25662
832.467	25624
832.606	25396
832.744	25529
832.883	25506
833.022	25472
833.16	25533
833.299	25597
833.437	25651
833.576	25514
833.714	25487
833.852	25521
833.991	25582
834.129	25734
834.267	25552
834.406	25483
834.544	25628
834.682	25582
834.821	25613
834.959	25658
835.097	25556
835.235	25476
835.373	25476
835.511	25438
835.65	25381
835.788	25293
835.926	25312
836.064	25152
836.202	25236
836.34	25377
836.478	25388
836.615	25369
836.753	25304
836.891	25377
837.029	25381
837.167	25331
837.305	25202
837.443	25320
837.58	25198
837.718	25145
837.856	25072
837.993	25129
838.131	25110
838.269	25019
838.406	25137
838.544	25038
838.681	24856
838.819	24776
838.956	24719
839.094	24749
839.231	24688
839.369	24806
839.506	24943
839.643	24924
839.781	24540
839.918	24566
840.055	24574
840.193	24589
840.33	24570
840.467	24677
840.604	24601
840.742	24764
840.879	24441
841.016	24544
841.153	24395
841.29	24525
841.427	24494
841.564	24585
841.701	24612
841.838	24403
841.975	24483
842.112	24426
842.249	24414
842.385	24365
842.522	24490
842.659	24418
842.796	24258
842.933	24292
843.069	24247
843.206	24384
843.343	24258
843.479	24300
843.616	24353
843.752	24190
843.889	24030
844.025	24216
844.162	24106
844.298	24186
844.435	24030
844.571	23958
844.708	24091
844.844	24258
844.98	24235
845.117	24079
845.253	24034
845.389	23988
845.525	24003
845.661	24076
845.798	23863
845.934	23786
846.07	23691
846.206	23859
846.342	23828
846.478	23802
846.614	23581
846.75	23531
846.886	23414
847.022	23638
847.158	23668
847.294	23619
847.429	23634
847.565	23592
847.701	23718
847.837	23345
847.972	23166
848.108	23349
848.244	23356
848.379	23239
848.515	23018
848.65	23174
848.786	23220
848.921	23060
849.057	23223
849.192	23204
849.328	23140
849.463	23208
849.598	23121
849.734	23064
849.869	22911
850.004	22793
850.14	22911
850.275	22862
850.41	22771
850.545	22809
850.68	22702
850.815	22984
850.95	22869
851.085	23086
851.22	22938
851.355	22854
851.49	22885
851.625	22942
851.76	22831
851.895	22877
852.03	22858
852.165	22820
852.299	22889
852.434	22934
852.569	22885
852.703	22847
852.838	23079
852.973	22904
853.107	22915
853.242	22778
853.376	22733
853.511	22649
853.645	22641
853.78	22694
853.914	22752
854.048	22755
854.183	22611
854.317	22820
854.451	22938
854.585	22599
854.72	22733
854.854	22797
854.988	22622
855.122	22615
855.256	22569
855.39	22698
855.524	22778
855.658	22717
855.792	22755
855.926	22664
856.06	22759
856.194	22759
856.327	22588
856.461	22622
856.595	22588
856.729	22698
856.862	22816
856.996	22584
857.13	22782
857.263	22793
857.397	22713
857.53	22733
857.664	22828
857.797	22774
857.931	22790
858.064	22763
858.197	22710
858.331	22713
858.464	22702
858.597	22607
858.731	22740
858.864	22615
858.997	22653
859.13	22687
859.263	22672
859.396	22858
859.529	22679
859.662	22599
859.795	22550
859.928	22698
860.061	22839
860.194	22885
860.327	22828
860.46	22637
860.592	22702
860.725	22839
860.858	22778
860.99	22755
861.123	22470
861.256	22596
861.388	22679
861.521	23337
861.653	22550
861.786	22535
861.918	22516
862.05	22626
862.183	22542
862.315	22577
862.447	22649
862.58	22535
862.712	22379
862.844	22348
862.976	22428
863.108	22413
863.24	22790
863.372	22337
863.504	22371
863.636	22386
863.768	22500
863.9	22443
864.032	22287
864.164	22303
864.296	22409
864.428	22481
864.559	22451
864.691	22478
864.823	22386
864.954	22402
865.086	22379
865.217	22348
865.349	22143
865.48	22219
865.612	22211
865.743	22443
865.875	22318
866.006	22211
866.137	22344
866.269	22360
866.4	22268
866.531	22128
866.662	22207
866.793	22196
866.924	22253
867.055	22268
867.186	22192
867.317	22265
867.448	22082
867.579	22234
867.71	21994
867.841	22120
867.972	22284
868.103	22204
868.233	22150
868.364	22276
868.495	22329
868.625	22504
868.756	22656
868.886	22371
869.017	22424
869.147	22542
869.278	22550
869.408	22462
869.539	22341
869.669	22493
869.799	22390
869.929	22428
870.06	22542
870.19	22675
870.32	22698
870.45	22641
870.58	22854
870.71	23018
870.84	22900
870.97	22839
871.1	22820
871.23	23071
871.36	22980
871.489	22889
871.619	22885
871.749	22987
871.879	23208
872.008	23174
872.138	22953
872.267	22987
872.397	22820
872.526	22839
872.656	22877
872.785	22797
872.915	23064
873.044	23033
873.173	23246
873.303	23124
873.432	23132
873.561	23227
873.69	23090
873.819	23006
873.948	23086
874.077	23048
874.206	23151
874.335	23140
874.464	23117
874.593	23277
874.722	23227
874.851	23372
874.979	23322
875.108	23376
875.237	23269
875.365	23166
875.494	23322
875.623	23318
875.751	23258
875.88	23372
876.008	23452
876.136	23501
876.265	23695
876.393	23756
876.521	23699
876.65	23805
876.778	23676
876.906	23520
877.034	23543
877.162	23520
877.29	23627
877.418	23608
877.546	23570
877.674	23695
877.802	23478
877.93	23646
878.058	23558
878.185	23501
878.313	23528
878.441	23646
878.568	23467
878.696	23581
878.824	23638
878.951	23699
879.079	23794
879.206	23958
879.333	23817
879.461	23585
879.588	23661
879.715	23802
879.842	23832
879.97	23608
880.097	23474
880.224	23531
880.351	23406
880.478	23452
880.605	23356
880.732	23330
880.859	23497
880.986	23551
881.112	23421
881.239	23436
881.366	23117
881.493	23079
881.619	22976
881.746	23003
881.872	23079
881.999	22934
882.125	22927
882.252	23064
882.378	23083
882.505	23086
882.631	22812
882.757	22710
882.883	22713
883.01	22485
883.136	22637
883.262	22637
883.388	22565
883.514	22687
883.64	22622
883.766	22577
883.892	22405
884.018	22474
884.143	22500
884.269	22603
884.395	22421
884.52	22333
884.646	22226
884.772	22131
884.897	22253
885.023	22284
885.148	22413
885.274	22299
885.399	22306
885.524	22268
885.65	22333
885.775	22261
885.9	22287
886.025	22443
886.15	22371
886.275	22188
886.4	22280
886.525	22261
886.65	22299
886.775	22101
886.9	22451
887.025	22519
887.149	22196
887.274	22101
887.399	22070
887.523	22044
887.648	21911
887.773	22017
887.897	22150
888.021	22105
888.146	21953
888.27	22143
888.395	22078
888.519	22078
888.643	22112
888.767	22112
888.891	22017
889.015	21861
889.139	21789
889.263	21842
889.387	21907
889.511	22029
889.635	21915
889.759	21778
889.883	21766
890.006	21835
890.13	21972
890.254	21717
890.377	21698
890.501	21641
890.624	21523
890.748	21572
890.871	21477
890.995	21256
891.118	21245
891.241	21564
891.364	21317
891.488	21477
891.611	21458
891.734	21325
891.857	21397
891.98	21332
892.103	21435
892.226	21340
892.349	21340
892.471	21169
892.594	21283
892.717	21397
892.839	21233
892.962	21275
893.085	21287
893.207	21348
893.33	21389
893.452	21116
893.575	21226
893.697	21230
893.819	21351
893.941	21447
894.064	21340
894.186	21127
894.308	21161
894.43	21344
894.552	21389
894.674	21351
894.796	21104
894.918	21218
895.04	21180
895.161	21275
895.283	21272
895.405	21123
895.526	21302
895.648	21112
895.769	21260
895.891	21245
896.012	21256
896.134	21317
896.255	21321
896.376	21142
896.498	21207
896.619	21329
896.74	21142
896.861	21214
896.982	21462
897.103	21705
897.224	21462
897.345	21466
897.466	21408
897.587	21450
897.708	21488
897.828	21504
897.949	21222
898.07	21275
898.19	21302
898.311	21443
898.431	21443
898.552	21428
898.672	21488
898.792	21553
898.913	21526
899.033	21355
899.153	21256
899.273	21062
899.393	21096
899.513	21157
899.633	21173
899.753	21230
899.873	21032
899.993	21176
900.113	21070
900.232	21165
900.352	21119
900.472	20986
900.591	20864
900.711	20956
900.83	20906
900.95	21062
901.069	20998
901.189	20762
901.308	20613
901.427	20492
901.546	20465
901.665	20526
901.784	20465
901.904	20317
902.023	20214
902.141	20069
902.26	20058
902.379	20122
902.498	19974
902.617	19982
902.735	19986
902.854	19963
902.973	19795
903.091	19689
903.21	19742
903.328	19723
903.446	19563
903.565	19384
903.683	19468
903.801	19438
903.919	19434
904.038	19495
904.156	19266
904.274	19301
904.392	19209
904.51	19190
904.627	19194
904.745	19137
904.863	19289
904.981	19012
905.098	18905
905.216	18916
905.334	18947
905.451	18882
905.569	18817
905.686	18867
905.803	18791
905.921	18654
906.038	18684
906.155	18585
906.272	18635
906.389	18536
906.506	18460
906.623	18407
906.74	18296
906.857	18292
906.974	18330
907.091	18342
907.208	18544
907.324	18323
907.441	18334
907.557	18152
907.674	18144
907.79	18068
907.907	18087
908.023	18273
908.139	18053
908.256	18076
908.372	18003
908.488	17950
908.604	17874
908.72	17836
908.836	17866
908.952	17783
909.068	17863
909.184	17908
909.3	17817
909.415	17828
909.531	17828
909.647	17535
909.762	17528
909.878	17539
909.993	17577
910.108	17524
910.224	17448
910.339	17383
910.454	17376
910.57	17322
910.685	17322
910.8	17429
910.915	17474
911.03	17250
911.145	17098
911.259	17067
911.374	17132
911.489	17018
911.604	16957
911.718	16736
911.833	16790
911.947	16763
912.062	16748
912.176	16812
912.291	16892
912.405	16828
912.519	17033
912.633	17018
912.748	16847
912.862	16896
912.976	16717
913.09	16645
913.204	16474
913.318	16683
913.431	16717
913.545	16706
913.659	16721
913.772	16542
913.886	16402
914	16405
914.113	16462
914.226	16519
914.34	16432
914.453	16299
914.566	16451
914.68	16386
914.793	16242
914.906	16048
915.019	15964
915.132	15941
915.245	16006
915.358	15991
915.47	16006
915.583	16029
915.696	15972
915.809	16093
915.921	16158
916.034	16025
916.146	15979
916.259	15953
916.371	15956
916.483	15903
916.595	15778
916.708	15808
916.82	15827
916.932	15762
917.044	15793
917.156	15789
917.268	15610
917.38	15652
917.491	15557
917.603	15603
917.715	15622
917.826	15667
917.938	15564
918.049	15439
918.161	15622
918.272	15641
918.384	15671
918.495	15545
918.606	15389
918.717	15252
918.828	15294
918.939	15424
919.05	15252
919.161	15397
919.272	15195
919.383	15321
919.494	15367
919.604	15466
919.715	15287
919.826	15351
919.936	15237
920.047	15408
920.157	15302
920.267	15485
920.378	15313
920.488	15329
920.598	15416
920.708	15625
920.818	15428
920.928	15382
921.038	15538
921.148	15595
921.258	15199
921.368	15135
921.477	15093
921.587	15123
921.697	14929
921.806	15081
921.916	14800
922.025	14689
922.134	14678
922.244	14636
922.353	14701
922.462	14598
922.571	14507
922.68	14275
922.789	14275
922.898	14332
923.007	14221
923.116	14336
923.224	14195
923.333	14259
923.442	14183
923.55	14126
923.659	14119
923.767	14111
923.876	14084
923.984	14134
924.092	14008
924.201	14001
924.309	13986
924.417	14039
924.525	13963
924.633	13894
924.741	14663
924.849	13734
924.956	13875
925.064	13772
925.172	13540
925.279	13624
925.387	13795
925.494	13689
925.602	13833
925.709	13674
925.816	13651
925.924	13594
926.031	13693
926.138	13605
926.245	13624
926.352	13556
926.459	13548
926.566	13613
926.673	13449
926.779	13400
926.886	13365
926.993	13285
927.099	13282
927.206	13152
927.312	13129
927.419	13247
927.525	13133
927.631	13168
927.737	13065
927.843	13072
927.95	12878
928.056	13004
928.162	13034
928.267	13149
928.373	13674
928.479	13069
928.585	12817
928.69	12951
928.796	13004
928.901	12867
929.007	12673
929.112	12863
929.218	12825
929.323	12757
929.428	12741
929.533	12833
929.638	12631
929.743	12684
929.848	12692
929.953	12574
930.058	12593
930.163	12380
930.267	12471
930.372	12578
930.477	12346
930.581	12506
930.685	12456
930.79	12194
930.894	12239
930.998	12254
931.103	12422
931.207	11961
931.311	12072
931.415	11863
931.519	11600
931.623	11668
