Data from test_V78500241_1855.txt Node
Date: Fri Mar 25 15:54:39 CST 2022
User: usil
Spectrometer: V785-0024
Trigger mode: 0
Integration Time (sec): 4.000000E-1
Scans to average: 1
Nonlinearity correction enabled: false
Boxcar width: 0
Storing dark spectrum: false
XAxis mode: Wavelengths
Number of Pixels in Spectrum: 1024
>>>>>Begin Spectral Data<<<<<
801.071	28447
801.214	28360
801.356	28048
801.499	28032
801.641	28002
801.783	28029
801.926	27956
802.068	28017
802.211	27914
802.353	27778
802.496	27625
802.638	27629
802.78	27515
802.923	27447
803.065	27568
803.208	27663
803.35	27686
803.492	27827
803.635	27880
803.777	27751
803.919	27793
804.061	28246
804.204	27865
804.346	27705
804.488	27797
804.63	27907
804.773	27663
804.915	27911
805.057	27994
805.199	27774
805.341	28032
805.483	28017
805.626	28055
805.768	27816
805.91	27895
806.052	28059
806.194	27953
806.336	28059
806.478	27987
806.62	28055
806.762	28185
806.904	28268
807.046	28500
807.188	28432
807.33	28401
807.472	28523
807.614	28436
807.756	28481
807.898	28314
808.04	28249
808.182	28276
808.324	28295
808.465	28421
808.607	28592
808.749	28546
808.891	28873
809.033	28949
809.174	28748
809.316	28618
809.458	28687
809.6	28596
809.741	28584
809.883	28729
810.025	28923
810.166	28862
810.308	28965
810.45	29041
810.591	28866
810.733	28755
810.875	28675
811.016	28523
811.158	28519
811.299	28809
811.441	28908
811.582	28828
811.724	28645
811.865	28748
812.007	28649
812.148	28691
812.29	28778
812.431	28847
812.573	29048
812.714	29075
812.855	29208
812.997	29212
813.138	29322
813.279	29303
813.421	29083
813.562	29162
813.703	29041
813.845	28896
813.986	28478
814.127	28580
814.268	28394
814.41	28386
814.551	28443
814.692	28386
814.833	28325
814.974	28257
815.115	28303
815.256	28196
815.397	28303
815.539	28223
815.68	28238
815.821	28010
815.962	28185
816.103	28135
816.244	28124
816.385	28017
816.526	27865
816.666	27755
816.807	27709
816.948	27838
817.089	27747
817.23	27698
817.371	27591
817.512	27614
817.653	27561
817.793	27595
817.934	27633
818.075	27599
818.216	27739
818.356	27519
818.497	27633
818.638	27268
818.778	27378
818.919	27405
819.06	27447
819.2	27580
819.341	27576
819.481	27705
819.622	27732
819.762	27994
819.903	27857
820.043	27888
820.184	27724
820.324	27793
820.465	27857
820.605	27743
820.746	27797
820.886	27564
821.026	27781
821.167	27648
821.307	27865
821.447	27728
821.588	27542
821.728	27431
821.868	27268
822.008	27203
822.149	27211
822.289	27207
822.429	26899
822.569	26861
822.709	26857
822.849	26629
822.99	26708
823.13	26670
823.27	26636
823.41	26396
823.55	26362
823.69	26370
823.83	26507
823.97	26412
824.11	26202
824.25	26278
824.389	26313
824.529	26343
824.669	26237
824.809	26408
824.949	26366
825.089	26294
825.228	26476
825.368	26176
825.508	26043
825.648	26218
825.787	26248
825.927	26240
826.067	26103
826.206	26100
826.346	26161
826.485	26343
826.625	26183
826.765	26210
826.904	26275
827.044	26054
827.183	25913
827.323	25875
827.462	26050
827.601	25856
827.741	25860
827.88	25978
828.02	25795
828.159	25925
828.298	25932
828.437	25887
828.577	25791
828.716	26092
828.855	25765
828.994	25521
829.134	25597
829.273	25628
829.412	25575
829.551	25594
829.69	25601
829.829	25624
829.968	25738
830.107	25529
830.246	25518
830.385	25575
830.524	25392
830.663	25468
830.802	25400
830.941	25160
831.08	25103
831.219	25202
831.357	25259
831.496	25407
831.635	25202
831.774	25156
831.913	25126
832.051	25050
832.19	24992
832.329	24943
832.467	25015
832.606	24825
832.744	24779
832.883	24890
833.022	24802
833.16	24894
833.299	24894
833.437	24924
833.576	24943
833.714	24844
833.852	25061
833.991	25065
834.129	24958
834.267	24939
834.406	25057
834.544	24932
834.682	24901
834.821	24909
834.959	25209
835.097	24878
835.235	24924
835.373	24924
835.511	24875
835.65	24829
835.788	24768
835.926	24597
836.064	24433
836.202	24570
836.34	24798
836.478	24783
836.615	24669
836.753	24749
836.891	24741
837.029	24821
837.167	24658
837.305	24661
837.443	24525
837.58	24521
837.718	24631
837.856	24650
837.993	24631
838.131	24661
838.269	24502
838.406	24559
838.544	24464
838.681	24315
838.819	24106
838.956	24087
839.094	24057
839.231	24182
839.369	24125
839.506	24471
839.643	24243
839.781	23996
839.918	24129
840.055	24053
840.193	24068
840.33	24007
840.467	23901
840.604	24087
840.742	24022
840.879	23863
841.016	23992
841.153	23798
841.29	24049
841.427	23942
841.564	23927
841.701	23939
841.838	23882
841.975	23767
842.112	23885
842.249	23611
842.385	23798
842.522	23851
842.659	23722
842.796	23756
842.933	23661
843.069	23680
843.206	23562
843.343	23771
843.479	23585
843.616	23665
843.752	23512
843.889	23501
844.025	23604
844.162	23474
844.298	23581
844.435	23478
844.571	23379
844.708	23417
844.844	23608
844.98	23592
845.117	23592
845.253	23414
845.389	23315
845.525	23334
845.661	23341
845.798	23193
845.934	23239
846.07	23250
846.206	23277
846.342	23334
846.478	23227
846.614	22995
846.75	22892
846.886	22972
847.022	23003
847.158	22976
847.294	22991
847.429	22919
847.565	22881
847.701	23155
847.837	22626
847.972	22565
848.108	22744
848.244	22820
848.379	22497
848.515	22554
848.65	22474
848.786	22561
848.921	22386
849.057	22557
849.192	22580
849.328	22698
849.463	22519
849.598	22516
849.734	22436
849.869	22451
850.004	22287
850.14	22280
850.275	22318
850.41	22226
850.545	22162
850.68	22329
850.815	22295
850.95	22048
851.085	22466
851.22	22367
851.355	22299
851.49	22325
851.625	22226
851.76	22272
851.895	22261
852.03	22181
852.165	22257
852.299	22402
852.434	22333
852.569	22363
852.703	22356
852.838	22409
852.973	22428
853.107	22367
853.242	22234
853.376	22101
853.511	21964
853.645	22158
853.78	22223
853.914	22166
854.048	22017
854.183	22158
854.317	22112
854.451	22223
854.585	22105
854.72	22154
854.854	22215
854.988	22109
855.122	22090
855.256	21960
855.39	22021
855.524	22280
855.658	22124
855.792	22162
855.926	22109
856.06	22082
856.194	22177
856.327	22036
856.461	22036
856.595	22040
856.729	22029
856.862	22150
856.996	22128
857.13	22116
857.263	22261
857.397	22169
857.53	21960
857.664	22078
857.797	21994
857.931	22116
858.064	22162
858.197	22158
858.331	22051
858.464	22067
858.597	22025
858.731	22059
858.864	22055
858.997	22070
859.13	22131
859.263	22112
859.396	22150
859.529	22143
859.662	22131
859.795	22116
859.928	22013
860.061	22299
860.194	22196
860.327	22093
860.46	22185
860.592	22360
860.725	22223
860.858	22173
860.99	22200
861.123	22139
861.256	22017
861.388	22067
861.521	22915
861.653	21964
861.786	21968
861.918	21934
862.05	21964
862.183	21968
862.315	22116
862.447	22169
862.58	22021
862.712	21766
862.844	21728
862.976	21903
863.108	21922
863.24	22348
863.372	21789
863.504	21755
863.636	21736
863.768	21884
863.9	21926
864.032	21736
864.164	21846
864.296	21831
864.428	21941
864.559	21937
864.691	21895
864.823	21762
864.954	21770
865.086	21797
865.217	21717
865.349	21614
865.48	21667
865.612	21785
865.743	21823
865.875	21701
866.006	21652
866.137	21724
866.269	21717
866.4	21701
866.531	21717
866.662	21549
866.793	21519
866.924	21507
867.055	21633
867.186	21682
867.317	21519
867.448	21485
867.579	21557
867.71	21542
867.841	21492
867.972	21686
868.103	21652
868.233	21633
868.364	21713
868.495	21720
868.625	21915
868.756	21937
868.886	21793
869.017	21816
869.147	21816
869.278	21930
869.408	21895
869.539	21899
869.669	21918
869.799	21930
869.929	21850
870.06	22013
870.19	22093
870.32	22143
870.45	22200
870.58	22257
870.71	22177
870.84	22531
870.97	22246
871.1	22382
871.23	22272
871.36	22474
871.489	22413
871.619	22481
871.749	22436
871.879	22538
872.008	22478
872.138	22531
872.267	22432
872.397	22398
872.526	22284
872.656	22246
872.785	22329
872.915	22577
873.044	22637
873.173	22470
873.303	22603
873.432	22542
873.561	22546
873.69	22504
873.819	22371
873.948	22573
874.077	22527
874.206	22409
874.335	22432
874.464	22546
874.593	22675
874.722	22687
874.851	22645
874.979	22713
875.108	22771
875.237	22637
875.365	22596
875.494	22691
875.623	22687
875.751	22744
875.88	22797
876.008	22938
876.136	22862
876.265	23220
876.393	23265
876.521	23185
876.65	23280
876.778	23197
876.906	23075
877.034	22961
877.162	23132
877.29	22953
877.418	22968
877.546	23136
877.674	23033
877.802	23121
877.93	23113
878.058	22911
878.185	22843
878.313	23044
878.441	23010
878.568	22759
878.696	22900
878.824	23159
878.951	23147
879.079	23197
879.206	23193
879.333	23326
879.461	23109
879.588	23220
879.715	23075
879.842	23360
879.97	23193
880.097	22824
880.224	22797
880.351	22839
880.478	22843
880.605	22828
880.732	22797
880.859	23220
880.986	22828
881.112	22828
881.239	22755
881.366	22599
881.493	22413
881.619	22462
881.746	22489
881.872	22519
881.999	22371
882.125	22348
882.252	22352
882.378	22341
882.505	22527
882.631	22306
882.757	22112
882.883	22188
883.01	21991
883.136	22048
883.262	22048
883.388	22059
883.514	22044
883.64	22154
883.766	22048
883.892	21865
884.018	21838
884.143	22048
884.269	22291
884.395	21804
884.52	21732
884.646	21728
884.772	21778
884.897	21675
885.023	21713
885.148	21857
885.274	21972
885.399	21759
885.524	21800
885.65	21766
885.775	21709
885.9	21694
886.025	21838
886.15	21918
886.275	21755
886.4	21656
886.525	21576
886.65	21595
886.775	21671
886.9	21823
887.025	21880
887.149	21739
887.274	21523
887.399	21580
887.523	21652
887.648	21408
887.773	21511
887.897	21530
888.021	21542
888.146	21477
888.27	21553
888.395	21660
888.519	21622
888.643	21519
888.767	21492
888.891	21466
889.015	21389
889.139	21363
889.263	21302
889.387	21321
889.511	21523
889.635	21591
889.759	21176
889.883	21298
890.006	21272
890.13	21458
890.254	21211
890.377	21188
890.501	21039
890.624	21047
890.748	21047
890.871	20918
890.995	20887
891.118	20667
891.241	20872
891.364	20891
891.488	21020
891.611	20849
891.734	20842
891.857	20910
891.98	20838
892.103	20918
892.226	20842
892.349	20910
892.471	20731
892.594	20716
892.717	20765
892.839	20842
892.962	20686
893.085	20743
893.207	20785
893.33	20636
893.452	20724
893.575	20819
893.697	20682
893.819	20823
893.941	20861
894.064	20880
894.186	20754
894.308	20682
894.43	20785
894.552	21013
894.674	20785
894.796	20708
894.918	20663
895.04	20731
895.161	20834
895.283	20739
895.405	20575
895.526	20777
895.648	20743
895.769	20743
895.891	20693
896.012	20800
896.134	20686
896.255	20735
896.376	20746
896.498	20697
896.619	20758
896.74	20762
896.861	20769
896.982	21043
897.103	21154
897.224	21001
897.345	20952
897.466	20853
897.587	20979
897.708	21005
897.828	21077
897.949	20933
898.07	20777
898.19	20918
898.311	20937
898.431	20914
898.552	20998
898.672	21096
898.792	21074
898.913	20975
899.033	20807
899.153	20788
899.273	20636
899.393	20750
899.513	20609
899.633	20716
899.753	20712
899.873	20648
899.993	20769
900.113	20651
900.232	20514
900.352	20575
900.472	20606
900.591	20514
900.711	20575
900.83	20305
900.95	20533
901.069	20507
901.189	20442
901.308	20153
901.427	19963
901.546	19909
901.665	20126
901.784	19986
901.904	19955
902.023	19746
902.141	19693
902.26	19472
902.379	19628
902.498	19571
902.617	19400
902.735	19548
902.854	19502
902.973	19369
903.091	19251
903.21	19206
903.328	19183
903.446	19156
903.565	18924
903.683	19031
903.801	18852
903.919	18989
904.038	18878
904.156	18677
904.274	18798
904.392	18738
904.51	18772
904.627	18844
904.745	18776
904.863	18810
904.981	18616
905.098	18429
905.216	18452
905.334	18414
905.451	18388
905.569	18422
905.686	18517
905.803	18380
905.921	18155
906.038	18350
906.155	18273
906.272	18133
906.389	18182
906.506	17996
906.623	17996
906.74	17988
906.857	17889
906.974	17798
907.091	18030
907.208	18026
907.324	17969
907.441	17939
907.557	17783
907.674	17695
907.79	17547
907.907	17680
908.023	17771
908.139	17665
908.256	17665
908.372	17543
908.488	17524
908.604	17486
908.72	17368
908.836	17383
908.952	17284
909.068	17364
909.184	17444
909.3	17421
909.415	17368
909.531	17330
909.647	17159
909.762	17094
909.878	17033
909.993	17090
910.108	17037
910.224	17094
910.339	17010
910.454	16984
910.57	16812
910.685	16759
910.8	17064
910.915	16953
911.03	16786
911.145	16702
911.259	16603
911.374	16717
911.489	16641
911.604	16428
911.718	16405
911.833	16413
911.947	16333
912.062	16249
912.176	16352
912.291	16432
912.405	16447
912.519	16645
912.633	16535
912.748	16375
912.862	16413
912.976	16291
913.09	16078
913.204	16116
913.318	16177
913.431	16310
913.545	16284
913.659	16215
913.772	16246
913.886	16040
914	16013
914.113	16158
914.226	16086
914.34	15983
914.453	15876
914.566	16017
914.68	15827
914.793	15831
914.906	15660
915.019	15679
915.132	15557
915.245	15542
915.358	15679
915.47	15557
915.583	15504
915.696	15507
915.809	15705
915.921	15823
916.034	15587
916.146	15466
916.259	15488
916.371	15545
916.483	15603
916.595	15530
916.708	15507
916.82	15439
916.932	15344
917.044	15272
917.156	15397
917.268	15245
917.38	15310
917.491	15165
917.603	15199
917.715	15370
917.826	15291
917.938	15112
918.049	15085
918.161	15260
918.272	15367
918.384	15298
918.495	15138
918.606	15024
918.717	14887
918.828	14982
918.939	15058
919.05	14998
919.161	14933
919.272	14773
919.383	14754
919.494	14971
919.604	15211
919.715	14891
919.826	14830
919.936	14902
920.047	15066
920.157	15024
920.267	15150
920.378	14956
920.488	14895
920.598	14998
920.708	15214
920.818	15005
920.928	15135
921.038	15199
921.148	15112
921.258	14960
921.368	14727
921.477	14598
921.587	14621
921.697	14560
921.806	14625
921.916	14438
922.025	14370
922.134	14351
922.244	14256
922.353	14294
922.462	14210
922.571	14092
922.68	14077
922.789	14005
922.898	13906
923.007	13913
923.116	13913
923.224	13925
923.333	13928
923.442	13788
923.55	13704
923.659	13780
923.767	13849
923.876	13746
923.984	13715
924.092	13670
924.201	13666
924.309	13647
924.417	13765
924.525	13658
924.633	13632
924.741	14343
924.849	13358
924.956	13476
925.064	13339
925.172	13274
925.279	13339
925.387	13266
925.494	13377
925.602	13392
925.709	13403
925.816	13240
925.924	13175
926.031	13480
926.138	13236
926.245	13282
926.352	13187
926.459	13346
926.566	13358
926.673	13187
926.779	13114
926.886	13042
926.993	12985
927.099	12848
927.206	12882
927.312	12848
927.419	12840
927.525	12871
927.631	12913
927.737	12863
927.843	12673
927.95	12627
928.056	12772
928.162	12802
928.267	12779
928.373	13343
928.479	12673
928.585	12563
928.69	12654
928.796	12696
928.901	12650
929.007	12399
929.112	12563
929.218	12540
929.323	12395
929.428	12350
929.533	12479
929.638	12262
929.743	12456
929.848	12445
929.953	12323
930.058	12239
930.163	12114
930.267	12106
930.372	12190
930.477	12106
930.581	12330
930.685	12114
930.79	12019
930.894	11984
930.998	11984
931.103	12110
931.207	11684
931.311	11653
931.415	11630
931.519	11315
931.623	11360
