Data from test_V78500241_888.txt Node
Date: Fri Mar 25 15:47:57 CST 2022
User: usil
Spectrometer: V785-0024
Trigger mode: 0
Integration Time (sec): 4.000000E-1
Scans to average: 1
Nonlinearity correction enabled: false
Boxcar width: 0
Storing dark spectrum: false
XAxis mode: Wavelengths
Number of Pixels in Spectrum: 1024
>>>>>Begin Spectral Data<<<<<
801.071	28234
801.214	28040
801.356	27800
801.499	27854
801.641	27751
801.783	27728
801.926	27686
802.068	27686
802.211	27648
802.353	27614
802.496	27488
802.638	27454
802.78	27374
802.923	27344
803.065	27355
803.208	27283
803.35	27332
803.492	27515
803.635	27549
803.777	27511
803.919	27542
804.061	27823
804.204	27644
804.346	27496
804.488	27431
804.63	27424
804.773	27439
804.915	27614
805.057	27690
805.199	27515
805.341	27644
805.483	27736
805.626	27774
805.768	27633
805.91	27538
806.052	27789
806.194	27637
806.336	27739
806.478	27694
806.62	27717
806.762	27831
806.904	27979
807.046	28215
807.188	28200
807.33	28181
807.472	28204
807.614	27926
807.756	28181
807.898	28025
808.04	27987
808.182	28010
808.324	28029
808.465	28063
808.607	28131
808.749	28401
808.891	28573
809.033	28596
809.174	28424
809.316	28325
809.458	28436
809.6	28421
809.741	28573
809.883	28588
810.025	28809
810.166	28793
810.308	28596
810.45	28645
810.591	28626
810.733	28363
810.875	28177
811.016	28261
811.158	28303
811.299	28508
811.441	28550
811.582	28462
811.724	28398
811.865	28371
812.007	28344
812.148	28489
812.29	28352
812.431	28519
812.573	28733
812.714	28847
812.855	28915
812.997	28987
813.138	29128
813.279	28984
813.421	29006
813.562	28885
813.703	28801
813.845	28554
813.986	28356
814.127	28265
814.268	28204
814.41	28070
814.551	27945
814.692	28139
814.833	28063
814.974	27949
815.115	28109
815.256	27968
815.397	27892
815.539	28013
815.68	27831
815.821	27888
815.962	27949
816.103	27793
816.244	27888
816.385	27652
816.526	27644
816.666	27561
816.807	27488
816.948	27416
817.089	27458
817.23	27412
817.371	27431
817.512	27443
817.653	27363
817.793	27355
817.934	27325
818.075	27450
818.216	27485
818.356	27317
818.497	27252
818.638	27066
818.778	27249
818.919	27237
819.06	27272
819.2	27340
819.341	27477
819.481	27272
819.622	27568
819.762	27656
819.903	27679
820.043	27557
820.184	27538
820.324	27564
820.465	27458
820.605	27530
820.746	27572
820.886	27355
821.026	27526
821.167	27507
821.307	27469
821.447	27424
821.588	27348
821.728	27272
821.868	27100
822.008	26823
822.149	26781
822.289	26826
822.429	26621
822.569	26549
822.709	26564
822.849	26412
822.99	26404
823.13	26355
823.27	26446
823.41	26100
823.55	26153
823.69	26225
823.83	26221
823.97	26153
824.11	26092
824.25	25997
824.389	25959
824.529	26157
824.669	26077
824.809	26183
824.949	26100
825.089	26100
825.228	25940
825.368	25830
825.508	25947
825.648	25951
825.787	25852
825.927	25913
826.067	25776
826.206	25791
826.346	25986
826.485	25849
826.625	25856
826.765	25951
826.904	25947
827.044	25658
827.183	25708
827.323	25594
827.462	25689
827.601	25704
827.741	25616
827.88	25597
828.02	25438
828.159	25521
828.298	25666
828.437	25750
828.577	25525
828.716	25689
828.855	25388
828.994	25350
829.134	25381
829.273	25362
829.412	25324
829.551	25384
829.69	25278
829.829	25282
829.968	25468
830.107	25293
830.246	25388
830.385	25228
830.524	25206
830.663	25152
830.802	24977
830.941	24901
831.08	24867
831.219	25038
831.357	24951
831.496	25137
831.635	24943
831.774	24817
831.913	24806
832.051	24707
832.19	24764
832.329	24768
832.467	24563
832.606	24604
832.744	24616
832.883	24631
833.022	24620
833.16	24551
833.299	24753
833.437	24684
833.576	24650
833.714	24612
833.852	24623
833.991	24608
834.129	24726
834.267	24798
834.406	24719
834.544	24635
834.682	24692
834.821	24654
834.959	24745
835.097	24544
835.235	24578
835.373	24745
835.511	24707
835.65	24502
835.788	24623
835.926	24350
836.064	24311
836.202	24445
836.34	24505
836.478	24372
836.615	24422
836.753	24407
836.891	24479
837.029	24532
837.167	24247
837.305	24464
837.443	24350
837.58	24281
837.718	24350
837.856	24285
837.993	24292
838.131	24380
838.269	24159
838.406	24148
838.544	24064
838.681	23954
838.819	23984
838.956	23855
839.094	23859
839.231	23832
839.369	23961
839.506	24129
839.643	23999
839.781	23851
839.918	23665
840.055	23840
840.193	23828
840.33	23661
840.467	23710
840.604	23714
840.742	23954
840.879	23471
841.016	23634
841.153	23623
841.29	23653
841.427	23786
841.564	23691
841.701	23745
841.838	23630
841.975	23615
842.112	23611
842.249	23543
842.385	23474
842.522	23855
842.659	23512
842.796	23429
842.933	23493
843.069	23562
843.206	23402
843.343	23478
843.479	23410
843.616	23539
843.752	23280
843.889	23246
844.025	23421
844.162	23315
844.298	23296
844.435	23113
844.571	23197
844.708	23235
844.844	23311
844.98	23391
845.117	23330
845.253	23056
845.389	23102
845.525	23052
845.661	23025
845.798	22946
845.934	23083
846.07	23018
846.206	22892
846.342	23067
846.478	22953
846.614	22713
846.75	22687
846.886	22816
847.022	22801
847.158	22706
847.294	22653
847.429	22748
847.565	22725
847.701	22968
847.837	22417
847.972	22451
848.108	22519
848.244	22622
848.379	22394
848.515	22257
848.65	22200
848.786	22280
848.921	22318
849.057	22352
849.192	22322
849.328	22413
849.463	22287
849.598	22318
849.734	22120
849.869	22109
850.004	21888
850.14	22097
850.275	22002
850.41	22040
850.545	21873
850.68	22032
850.815	22017
850.95	22093
851.085	22211
851.22	22177
851.355	21964
851.49	21994
851.625	22025
851.76	21991
851.895	21964
852.03	21998
852.165	21915
852.299	22101
852.434	22177
852.569	22082
852.703	22055
852.838	22093
852.973	22303
853.107	22158
853.242	22070
853.376	21918
853.511	21827
853.645	21854
853.78	22101
853.914	21835
854.048	21842
854.183	21892
854.317	21968
854.451	22086
854.585	21850
854.72	21846
854.854	21945
854.988	21854
855.122	21922
855.256	21739
855.39	21865
855.524	21857
855.658	21823
855.792	21934
855.926	21793
856.06	21930
856.194	22006
856.327	21800
856.461	21884
856.595	21876
856.729	21831
856.862	21743
856.996	21835
857.13	21964
857.263	21934
857.397	21937
857.53	21785
857.664	21911
857.797	21915
857.931	22002
858.064	21850
858.197	21972
858.331	21717
858.464	21789
858.597	21857
858.731	21831
858.864	21819
858.997	21831
859.13	21766
859.263	21915
859.396	21975
859.529	21812
859.662	21835
859.795	21816
859.928	21850
860.061	21987
860.194	22116
860.327	21968
860.46	21911
860.592	21968
860.725	21998
860.858	22021
860.99	21873
861.123	21865
861.256	21778
861.388	21873
861.521	22360
861.653	21701
861.786	21736
861.918	21671
862.05	21724
862.183	21838
862.315	21922
862.447	21854
862.58	21717
862.712	21530
862.844	21644
862.976	21660
863.108	21599
863.24	22025
863.372	21561
863.504	21507
863.636	21428
863.768	21530
863.9	21606
864.032	21408
864.164	21515
864.296	21660
864.428	21701
864.559	21698
864.691	21705
864.823	21530
864.954	21515
865.086	21431
865.217	21439
865.349	21447
865.48	21568
865.612	21504
865.743	21530
865.875	21496
866.006	21386
866.137	21458
866.269	21424
866.4	21450
866.531	21378
866.662	21359
866.793	21443
866.924	21447
867.055	21321
867.186	21302
867.317	21348
867.448	21344
867.579	21329
867.71	21291
867.841	21291
867.972	21386
868.103	21504
868.233	21310
868.364	21302
868.495	21580
868.625	21618
868.756	21652
868.886	21587
869.017	21606
869.147	21660
869.278	21739
869.408	21785
869.539	21557
869.669	21660
869.799	21549
869.929	21682
870.06	21804
870.19	21812
870.32	21991
870.45	21975
870.58	21926
870.71	22112
870.84	22078
870.97	22082
871.1	22002
871.23	22074
871.36	22265
871.489	22044
871.619	22242
871.749	22166
871.879	22207
872.008	22265
872.138	22249
872.267	22211
872.397	22192
872.526	22067
872.656	22120
872.785	22025
872.915	22253
873.044	22352
873.173	22246
873.303	22341
873.432	22257
873.561	22291
873.69	22310
873.819	22211
873.948	22344
874.077	22173
874.206	22150
874.335	22337
874.464	22516
874.593	22508
874.722	22386
874.851	22527
874.979	22615
875.108	22523
875.237	22394
875.365	22318
875.494	22386
875.623	22504
875.751	22310
875.88	22538
876.008	22611
876.136	22630
876.265	22881
876.393	23014
876.521	22946
876.65	22957
876.778	22934
876.906	22774
877.034	22778
877.162	22809
877.29	22698
877.418	22889
877.546	22801
877.674	22816
877.802	22828
877.93	22752
878.058	22816
878.185	22523
878.313	22824
878.441	22839
878.568	22607
878.696	22698
878.824	22828
878.951	22824
879.079	23018
879.206	23098
879.333	23041
879.461	22961
879.588	22900
879.715	22972
879.842	23025
879.97	22976
880.097	22584
880.224	22717
880.351	22603
880.478	22603
880.605	22531
880.732	22649
880.859	22938
880.986	22660
881.112	22729
881.239	22523
881.366	22447
881.493	22249
881.619	22253
881.746	22234
881.872	22192
881.999	22112
882.125	22211
882.252	22234
882.378	22188
882.505	22333
882.631	21975
882.757	21869
882.883	21865
883.01	21907
883.136	21926
883.262	21797
883.388	21850
883.514	21850
883.64	22067
883.766	21755
883.892	21644
884.018	21793
884.143	21892
884.269	21895
884.395	21667
884.52	21526
884.646	21564
884.772	21492
884.897	21374
885.023	21591
885.148	21591
885.274	21530
885.399	21603
885.524	21538
885.65	21401
885.775	21462
885.9	21595
886.025	21671
886.15	21633
886.275	21500
886.4	21466
886.525	21485
886.65	21397
886.775	21412
886.9	21618
887.025	21686
887.149	21538
887.274	21397
887.399	21252
887.523	21302
887.648	21211
887.773	21195
887.897	21310
888.021	21363
888.146	21214
888.27	21416
888.395	21348
888.519	21348
888.643	21245
888.767	21412
888.891	21195
889.015	21096
889.139	21230
889.263	21028
889.387	21146
889.511	21233
889.635	21062
889.759	21100
889.883	21085
890.006	21081
890.13	21173
890.254	20982
890.377	21001
890.501	20937
890.624	20746
890.748	20925
890.871	20682
890.995	20636
891.118	20678
891.241	20788
891.364	20705
891.488	20701
891.611	20670
891.734	20632
891.857	20731
891.98	20746
892.103	20743
892.226	20606
892.349	20575
892.471	20457
892.594	20571
892.717	20598
892.839	20571
892.962	20537
893.085	20571
893.207	20648
893.33	20309
893.452	20461
893.575	20484
893.697	20514
893.819	20667
893.941	20583
894.064	20735
894.186	20492
894.308	20454
894.43	20663
894.552	20724
894.674	20655
894.796	20492
894.918	20560
895.04	20381
895.161	20492
895.283	20594
895.405	20552
895.526	20587
895.648	20617
895.769	20530
895.891	20564
896.012	20651
896.134	20552
896.255	20575
896.376	20393
896.498	20480
896.619	20636
896.74	20480
896.861	20518
896.982	20857
897.103	21020
897.224	20807
897.345	20731
897.466	20686
897.587	20758
897.708	20857
897.828	20682
897.949	20792
898.07	20594
898.19	20682
898.311	20773
898.431	20651
898.552	20765
898.672	20845
898.792	20807
898.913	20864
899.033	20648
899.153	20549
899.273	20347
899.393	20514
899.513	20431
899.633	20503
899.753	20537
899.873	20431
899.993	20461
900.113	20400
900.232	20469
900.352	20457
900.472	20202
900.591	20233
900.711	20298
900.83	20298
900.95	20385
901.069	20313
901.189	20134
901.308	20012
901.427	19837
901.546	19860
901.665	19970
901.784	19761
901.904	19753
902.023	19544
902.141	19518
902.26	19270
902.379	19384
902.498	19362
902.617	19301
902.735	19331
902.854	19240
902.973	19236
903.091	18939
903.21	18985
903.328	18909
903.446	18913
903.565	18909
903.683	18772
903.801	18688
903.919	18814
904.038	18745
904.156	18650
904.274	18684
904.392	18627
904.51	18604
904.627	18570
904.745	18532
904.863	18563
904.981	18410
905.098	18224
905.216	18220
905.334	18247
905.451	18285
905.569	18254
905.686	18201
905.803	18315
905.921	17961
906.038	18129
906.155	18163
906.272	17942
906.389	18057
906.506	17760
906.623	17748
906.74	17790
906.857	17684
906.974	17684
907.091	17870
907.208	17935
907.324	17809
907.441	17687
907.557	17497
907.674	17440
907.79	17414
907.907	17429
908.023	17551
908.139	17528
908.256	17364
908.372	17433
908.488	17345
908.604	17231
908.72	17178
908.836	17254
908.952	17261
909.068	17193
909.184	17277
909.3	17231
909.415	17220
909.531	17170
909.647	16885
909.762	16877
909.878	16782
909.993	16980
910.108	16911
910.224	16835
910.339	16843
910.454	16831
910.57	16687
910.685	16645
910.8	16854
910.915	16877
911.03	16660
911.145	16512
911.259	16421
911.374	16577
911.489	16341
911.604	16402
911.718	16265
911.833	16291
911.947	16173
912.062	16093
912.176	16215
912.291	16268
912.405	16295
912.519	16459
912.633	16318
912.748	16284
912.862	16207
912.976	16086
913.09	15968
913.204	15998
913.318	16204
913.431	16105
913.545	16086
913.659	16112
913.772	16063
913.886	15823
914	15717
914.113	15953
914.226	15880
914.34	15918
914.453	15679
914.566	15838
914.68	15663
914.793	15686
914.906	15610
915.019	15526
915.132	15382
915.245	15374
915.358	15469
915.47	15462
915.583	15367
915.696	15595
915.809	15603
915.921	15530
916.034	15367
916.146	15306
916.259	15291
916.371	15431
916.483	15329
916.595	15279
916.708	15325
916.82	15241
916.932	15214
917.044	15230
917.156	15127
917.268	15066
917.38	15203
917.491	14979
917.603	15024
917.715	15146
917.826	15230
917.938	14960
918.049	14937
918.161	15077
918.272	15093
918.384	15100
918.495	14998
918.606	14925
918.717	14826
918.828	14849
918.939	14887
919.05	14792
919.161	14754
919.272	14579
919.383	14781
919.494	14941
919.604	15032
919.715	14773
919.826	14697
919.936	14739
920.047	14853
920.157	14807
920.267	14887
920.378	14845
920.488	14792
920.598	15020
920.708	15070
920.818	14918
920.928	14895
921.038	15093
921.148	15036
921.258	14727
921.368	14655
921.477	14518
921.587	14438
921.697	14343
921.806	14514
921.916	14434
922.025	14195
922.134	14172
922.244	14107
922.353	14199
922.462	14084
922.571	13989
922.68	13784
922.789	13772
922.898	13811
923.007	13769
923.116	13811
923.224	13807
923.333	13757
923.442	13643
923.55	13556
923.659	13620
923.767	13723
923.876	13407
923.984	13674
924.092	13575
924.201	13548
924.309	13582
924.417	13563
924.525	13400
924.633	13381
924.741	14404
924.849	13270
924.956	13396
925.064	13263
925.172	13129
925.279	13145
925.387	13156
925.494	13194
925.602	13301
925.709	13149
925.816	13110
925.924	13129
926.031	13209
926.138	13099
926.245	13168
926.352	12993
926.459	13202
926.566	13217
926.673	13080
926.779	13019
926.886	13004
926.993	12810
927.099	12791
927.206	12795
927.312	12730
927.419	12806
927.525	12730
927.631	12776
927.737	12585
927.843	12578
927.95	12429
928.056	12513
928.162	12551
928.267	12540
928.373	13168
928.479	12650
928.585	12380
928.69	12612
928.796	12589
928.901	12452
929.007	12281
929.112	12448
929.218	12372
929.323	12437
929.428	12247
929.533	12407
929.638	12232
929.743	12262
929.848	12357
929.953	12273
930.058	12121
930.163	11961
930.267	11973
930.372	12133
930.477	11973
930.581	12197
930.685	11984
930.79	11832
930.894	11859
930.998	11836
931.103	11958
931.207	11657
931.311	11577
931.415	11478
931.519	11330
931.623	11166
