Data from test_V78500241_3439.txt Node
Date: Fri Mar 25 16:05:37 CST 2022
User: usil
Spectrometer: V785-0024
Trigger mode: 0
Integration Time (sec): 4.000000E-1
Scans to average: 1
Nonlinearity correction enabled: false
Boxcar width: 0
Storing dark spectrum: false
XAxis mode: Wavelengths
Number of Pixels in Spectrum: 1024
>>>>>Begin Spectral Data<<<<<
801.071	28885
801.214	28839
801.356	28493
801.499	28592
801.641	28485
801.783	28455
801.926	28611
802.068	28371
802.211	28398
802.353	28478
802.496	28291
802.638	28120
802.78	28367
802.923	28101
803.065	27892
803.208	28128
803.35	28150
803.492	28413
803.635	28390
803.777	28249
803.919	28573
804.061	28721
804.204	28573
804.346	28523
804.488	28371
804.63	28367
804.773	28325
804.915	28512
805.057	28687
805.199	28478
805.341	28561
805.483	28710
805.626	28607
805.768	28607
805.91	28744
806.052	28519
806.194	28478
806.336	28953
806.478	28649
806.62	28592
806.762	28710
806.904	28984
807.046	29117
807.188	29006
807.33	29060
807.472	29140
807.614	29022
807.756	28908
807.898	28812
808.04	28824
808.182	28786
808.324	28946
808.465	29006
808.607	29132
808.749	29273
808.891	29459
809.033	29402
809.174	29395
809.316	29406
809.458	29326
809.6	29356
809.741	29524
809.883	29455
810.025	29665
810.166	29501
810.308	29672
810.45	29646
810.591	29425
810.733	29242
810.875	29337
811.016	29200
811.158	29231
811.299	29417
811.441	29455
811.582	29478
811.724	29372
811.865	29322
812.007	29364
812.148	29406
812.29	29497
812.431	29345
812.573	29554
812.714	29771
812.855	29965
812.997	29950
813.138	29950
813.279	29973
813.421	29882
813.562	29748
813.703	29726
813.845	29543
813.986	29254
814.127	29105
814.268	29098
814.41	29079
814.551	29086
814.692	29124
814.833	29128
814.974	29044
815.115	29105
815.256	28896
815.397	29006
815.539	28915
815.68	28888
815.821	28942
815.962	29029
816.103	28862
816.244	28744
816.385	28710
816.526	28641
816.666	28459
816.807	28299
816.948	28500
817.089	28596
817.23	28268
817.371	28386
817.512	28280
817.653	28306
817.793	28242
817.934	28451
818.075	28466
818.216	28603
818.356	28413
818.497	28188
818.638	28063
818.778	28082
818.919	28306
819.06	28207
819.2	28337
819.341	28421
819.481	28447
819.622	28481
819.762	28812
819.903	28557
820.043	28630
820.184	28497
820.324	28649
820.465	28573
820.605	28531
820.746	28546
820.886	28459
821.026	28546
821.167	28523
821.307	28455
821.447	28329
821.588	28333
821.728	28249
821.868	27968
822.008	27892
822.149	27884
822.289	27739
822.429	27572
822.569	27622
822.709	27580
822.849	27500
822.99	27526
823.13	27321
823.27	27325
823.41	27169
823.55	27116
823.69	27310
823.83	27127
823.97	27287
824.11	26940
824.25	26998
824.389	26979
824.529	27074
824.669	27077
824.809	27138
824.949	27085
825.089	27157
825.228	27005
825.368	26971
825.508	26937
825.648	26906
825.787	26975
825.927	27039
826.067	26819
826.206	26883
826.346	26975
826.485	26971
826.625	26804
826.765	26960
826.904	26921
827.044	26693
827.183	26701
827.323	26545
827.462	26781
827.601	26659
827.741	26693
827.88	26762
828.02	26651
828.159	26541
828.298	26651
828.437	26705
828.577	26682
828.716	26735
828.855	26488
828.994	26450
829.134	26282
829.273	26332
829.412	26381
829.551	26180
829.69	26309
829.829	26389
829.968	26450
830.107	26393
830.246	26206
830.385	26263
830.524	26221
830.663	26244
830.802	26069
830.941	25963
831.08	25791
831.219	26001
831.357	26043
831.496	26084
831.635	25936
831.774	25746
831.913	25772
832.051	25845
832.19	25727
832.329	25822
832.467	25628
832.606	25537
832.744	25441
832.883	25506
833.022	25643
833.16	25468
833.299	25845
833.437	25681
833.576	25632
833.714	25647
833.852	25772
833.991	25677
834.129	25674
834.267	25738
834.406	25609
834.544	25807
834.682	25704
834.821	25666
834.959	25845
835.097	25506
835.235	25704
835.373	25658
835.511	25693
835.65	25594
835.788	25529
835.926	25358
836.064	25263
836.202	25449
836.34	25430
836.478	25506
836.615	25552
836.753	25491
836.891	25518
837.029	25388
837.167	25464
837.305	25403
837.443	25434
837.58	25369
837.718	25419
837.856	25460
837.993	25263
838.131	25339
838.269	25099
838.406	25179
838.544	25187
838.681	24970
838.819	24939
838.956	24635
839.094	24943
839.231	24875
839.369	24973
839.506	25240
839.643	25046
839.781	24764
839.918	24665
840.055	24749
840.193	24722
840.33	24677
840.467	24684
840.604	24829
840.742	24935
840.879	24471
841.016	24604
841.153	24479
841.29	24745
841.427	24612
841.564	24700
841.701	24753
841.838	24623
841.975	24677
842.112	24715
842.249	24448
842.385	24395
842.522	24601
842.659	24532
842.796	24410
842.933	24437
843.069	24483
843.206	24410
843.343	24456
843.479	24407
843.616	24399
843.752	24224
843.889	24266
844.025	24350
844.162	24095
844.298	24357
844.435	24174
844.571	24190
844.708	24300
844.844	24289
844.98	24418
845.117	24369
845.253	24209
845.389	23996
845.525	24087
845.661	24136
845.798	23969
845.934	23958
846.07	23961
846.206	24049
846.342	24140
846.478	23961
846.614	23604
846.75	23604
846.886	23665
847.022	23790
847.158	23699
847.294	23680
847.429	23581
847.565	23642
847.701	23973
847.837	23391
847.972	23417
848.108	23547
848.244	23474
848.379	23318
848.515	23246
848.65	23204
848.786	23322
848.921	23212
849.057	23425
849.192	23315
849.328	23189
849.463	23128
849.598	23181
849.734	23102
849.869	23098
850.004	22984
850.14	23155
850.275	23048
850.41	22961
850.545	22934
850.68	22987
850.815	23025
850.95	22991
851.085	23197
851.22	23239
851.355	22946
851.49	23037
851.625	22968
851.76	23052
851.895	22972
852.03	22820
852.165	22999
852.299	23010
852.434	23006
852.569	22961
852.703	23044
852.838	23083
852.973	23132
853.107	23132
853.242	23014
853.376	22885
853.511	22782
853.645	22744
853.78	22934
853.914	22915
854.048	22691
854.183	22904
854.317	22843
854.451	22908
854.585	22976
854.72	22900
854.854	23006
854.988	22744
855.122	22805
855.256	22733
855.39	22771
855.524	22923
855.658	22835
855.792	23014
855.926	22854
856.06	22877
856.194	22904
856.327	22843
856.461	22691
856.595	22782
856.729	22820
856.862	23090
856.996	22881
857.13	23014
857.263	22942
857.397	22919
857.53	22820
857.664	22938
857.797	22968
857.931	22839
858.064	22877
858.197	22984
858.331	22850
858.464	22683
858.597	22748
858.731	22683
858.864	22805
858.997	22816
859.13	22694
859.263	22877
859.396	22854
859.529	22824
859.662	22752
859.795	22839
859.928	22786
860.061	23041
860.194	23098
860.327	22881
860.46	22869
860.592	23003
860.725	22938
860.858	22984
860.99	22847
861.123	22752
861.256	22763
861.388	22892
861.521	23505
861.653	22603
861.786	22691
861.918	22603
862.05	22778
862.183	22828
862.315	22759
862.447	22809
862.58	22771
862.712	22645
862.844	22596
862.976	22630
863.108	22596
863.24	22824
863.372	22459
863.504	22478
863.636	22493
863.768	22519
863.9	22607
864.032	22538
864.164	22653
864.296	22580
864.428	22523
864.559	22573
864.691	22538
864.823	22497
864.954	22481
865.086	22436
865.217	22390
865.349	22500
865.48	22409
865.612	22413
865.743	22379
865.875	22398
866.006	22409
866.137	22478
866.269	22440
866.4	22489
866.531	22226
866.662	22337
866.793	22447
866.924	22318
867.055	22379
867.186	22344
867.317	22276
867.448	22230
867.579	22325
867.71	22306
867.841	22303
867.972	22402
868.103	22329
868.233	22341
868.364	22360
868.495	22436
868.625	22466
868.756	22641
868.886	22519
869.017	22615
869.147	22672
869.278	22691
869.408	22679
869.539	22584
869.669	22725
869.799	22584
869.929	22687
870.06	22656
870.19	22869
870.32	22828
870.45	22934
870.58	23006
870.71	23018
870.84	22995
870.97	22972
871.1	22911
871.23	23098
871.36	23155
871.489	23246
871.619	23117
871.749	23128
871.879	23231
872.008	23299
872.138	23197
872.267	23159
872.397	23083
872.526	22934
872.656	23048
872.785	23052
872.915	23204
873.044	23280
873.173	23136
873.303	23269
873.432	23246
873.561	23273
873.69	23200
873.819	23083
873.948	23208
874.077	23273
874.206	23067
874.335	23204
874.464	23425
874.593	23414
874.722	23376
874.851	23520
874.979	23440
875.108	23406
875.237	23349
875.365	23356
875.494	23353
875.623	23406
875.751	23341
875.88	23467
876.008	23509
876.136	23520
876.265	23847
876.393	24034
876.521	23863
876.65	23908
876.778	23809
876.906	23714
877.034	23760
877.162	23836
877.29	23722
877.418	23722
877.546	23813
877.674	23798
877.802	23798
877.93	23794
878.058	23676
878.185	23600
878.313	23687
878.441	23691
878.568	23581
878.696	23695
878.824	23741
878.951	23897
879.079	23992
879.206	24121
879.333	23828
879.461	23790
879.588	23916
879.715	23996
879.842	24038
879.97	23927
880.097	23467
880.224	23493
880.351	23543
880.478	23512
880.605	23524
880.732	23684
880.859	23828
880.986	23585
881.112	23623
881.239	23429
881.366	23372
881.493	23254
881.619	23185
881.746	23212
881.872	23223
881.999	23056
882.125	23079
882.252	23025
882.378	23170
882.505	23231
882.631	23048
882.757	22847
882.883	23006
883.01	22896
883.136	22782
883.262	22618
883.388	22615
883.514	22691
883.64	22889
883.766	22683
883.892	22523
884.018	22641
884.143	22675
884.269	22816
884.395	22462
884.52	22474
884.646	22375
884.772	22215
884.897	22314
885.023	22405
885.148	22607
885.274	22580
885.399	22485
885.524	22329
885.65	22333
885.775	22500
885.9	22276
886.025	22531
886.15	22519
886.275	22371
886.4	22398
886.525	22299
886.65	22276
886.775	22265
886.9	22474
887.025	22538
887.149	22276
887.274	22116
887.399	22196
887.523	22200
887.648	22055
887.773	22044
887.897	22287
888.021	22181
888.146	21979
888.27	22363
888.395	22333
888.519	22112
888.643	22211
888.767	22234
888.891	22109
889.015	21994
889.139	22063
889.263	22067
889.387	22017
889.511	22059
889.635	22112
889.759	21876
889.883	21934
890.006	21968
890.13	22013
890.254	21937
890.377	21888
890.501	21709
890.624	21599
890.748	21766
890.871	21496
890.995	21504
891.118	21466
891.241	21519
891.364	21481
891.488	21603
891.611	21458
891.734	21629
891.857	21545
891.98	21549
892.103	21599
892.226	21526
892.349	21450
892.471	21329
892.594	21515
892.717	21443
892.839	21241
892.962	21443
893.085	21393
893.207	21397
893.33	21416
893.452	21329
893.575	21504
893.697	21317
893.819	21553
893.941	21622
894.064	21397
894.186	21306
894.308	21351
894.43	21412
894.552	21576
894.674	21431
894.796	21351
894.918	21275
895.04	21329
895.161	21488
895.283	21355
895.405	21321
895.526	21458
895.648	21389
895.769	21370
895.891	21321
896.012	21473
896.134	21439
896.255	21389
896.376	21401
896.498	21291
896.619	21306
896.74	21458
896.861	21340
896.982	21660
897.103	21819
897.224	21538
897.345	21542
897.466	21481
897.587	21614
897.708	21762
897.828	21564
897.949	21469
898.07	21447
898.19	21462
898.311	21622
898.431	21443
898.552	21507
898.672	21644
898.792	21698
898.913	21599
899.033	21348
899.153	21435
899.273	21218
899.393	21287
899.513	21287
899.633	21363
899.753	21287
899.873	21272
899.993	21294
900.113	21195
900.232	21245
900.352	21264
900.472	21135
900.591	21058
900.711	21104
900.83	20963
900.95	21157
901.069	21176
901.189	20887
901.308	20746
901.427	20594
901.546	20606
901.665	20587
901.784	20708
901.904	20431
902.023	20419
902.141	20206
902.26	20191
902.379	20202
902.498	20138
902.617	20153
902.735	20119
902.854	20088
902.973	20027
903.091	19830
903.21	19936
903.328	19807
903.446	19715
903.565	19510
903.683	19556
903.801	19521
903.919	19571
904.038	19556
904.156	19354
904.274	19438
904.392	19320
904.51	19232
904.627	19324
904.745	19362
904.863	19483
904.981	19050
905.098	18981
905.216	18954
905.334	18947
905.451	18928
905.569	19019
905.686	18993
905.803	18905
905.921	18741
906.038	18852
906.155	18719
906.272	18646
906.389	18646
906.506	18570
906.623	18494
906.74	18555
906.857	18441
906.974	18338
907.091	18506
907.208	18646
907.324	18521
907.441	18327
907.557	18311
907.674	18213
907.79	18102
907.907	18167
908.023	18174
908.139	18266
908.256	18201
908.372	18106
908.488	18060
908.604	17920
908.72	17916
908.836	17878
908.952	17821
909.068	17901
909.184	18015
909.3	17863
909.415	17889
909.531	17893
909.647	17703
909.762	17676
909.878	17562
909.993	17585
910.108	17573
910.224	17505
910.339	17611
910.454	17493
910.57	17414
910.685	17372
910.8	17646
910.915	17551
911.03	17410
911.145	17223
911.259	17200
911.374	17220
911.489	17117
911.604	17052
911.718	16991
911.833	16965
911.947	16911
912.062	16850
912.176	16927
912.291	17048
912.405	16759
912.519	17056
912.633	17121
912.748	16972
912.862	16930
912.976	16816
913.09	16607
913.204	16755
913.318	16797
913.431	16812
913.545	16896
913.659	16710
913.772	16694
913.886	16531
914	16455
914.113	16561
914.226	16607
914.34	16565
914.453	16436
914.566	16508
914.68	16344
914.793	16382
914.906	16196
915.019	16078
915.132	16112
915.245	16135
915.358	16173
915.47	16044
915.583	16086
915.696	16036
915.809	16219
915.921	16230
916.034	15979
916.146	16010
916.259	15956
916.371	16109
916.483	16051
916.595	15953
916.708	15899
916.82	15876
916.932	15854
917.044	15785
917.156	15793
917.268	15724
917.38	15762
917.491	15663
917.603	15720
917.715	15766
917.826	15816
917.938	15599
918.049	15584
918.161	15747
918.272	15690
918.384	15709
918.495	15709
918.606	15538
918.717	15336
918.828	15549
918.939	15370
919.05	15416
919.161	15424
919.272	15325
919.383	15180
919.494	15439
919.604	15679
919.715	15405
919.826	15256
919.936	15344
920.047	15469
920.157	15359
920.267	15545
920.378	15466
920.488	15363
920.598	15416
920.708	15663
920.818	15564
920.928	15507
921.038	15614
921.148	15603
921.258	15374
921.368	15226
921.477	15138
921.587	15077
921.697	15036
921.806	15058
921.916	15047
922.025	14800
922.134	14727
922.244	14765
922.353	14705
922.462	14640
922.571	14610
922.68	14438
922.789	14423
922.898	14343
923.007	14396
923.116	14438
923.224	14317
923.333	14381
923.442	14252
923.55	14119
923.659	14161
923.767	14267
923.876	14149
923.984	14248
924.092	14149
924.201	14134
924.309	14103
924.417	14081
924.525	13978
924.633	14020
924.741	14918
924.849	13868
924.956	13871
925.064	13826
925.172	13670
925.279	13803
925.387	13769
925.494	13715
925.602	13898
925.709	13822
925.816	13647
925.924	13655
926.031	13750
926.138	13677
926.245	13772
926.352	13563
926.459	13769
926.566	13681
926.673	13609
926.779	13419
926.886	13495
926.993	13293
927.099	13320
927.206	13156
927.312	13217
927.419	13304
927.525	13274
927.631	13396
927.737	13103
927.843	13156
927.95	12939
928.056	13008
928.162	13126
928.267	13088
928.373	13689
928.479	13190
928.585	12996
928.69	12993
928.796	13027
928.901	12916
929.007	12715
929.112	12897
929.218	12897
929.323	12783
929.428	12840
929.533	12890
929.638	12749
929.743	12783
929.848	12665
929.953	12681
930.058	12555
930.163	12483
930.267	12513
930.372	12681
930.477	12403
930.581	12631
930.685	12513
930.79	12228
930.894	12407
930.998	12414
931.103	12437
931.207	12209
931.311	11961
931.415	11950
931.519	11672
931.623	11619
