Data from test_V78500241_1104.txt Node
Date: Fri Mar 25 15:49:26 CST 2022
User: usil
Spectrometer: V785-0024
Trigger mode: 0
Integration Time (sec): 4.000000E-1
Scans to average: 1
Nonlinearity correction enabled: false
Boxcar width: 0
Storing dark spectrum: false
XAxis mode: Wavelengths
Number of Pixels in Spectrum: 1024
>>>>>Begin Spectral Data<<<<<
801.071	28470
801.214	28413
801.356	28223
801.499	28067
801.641	28063
801.783	28105
801.926	28025
802.068	28013
802.211	27968
802.353	27819
802.496	27614
802.638	27622
802.78	27633
802.923	27660
803.065	27473
803.208	27534
803.35	27637
803.492	27785
803.635	27797
803.777	27827
803.919	27873
804.061	28272
804.204	28036
804.346	27892
804.488	27743
804.63	27907
804.773	27709
804.915	27892
805.057	28101
805.199	27964
805.341	28055
805.483	28048
805.626	28032
805.768	28093
805.91	28029
806.052	28147
806.194	27994
806.336	28306
806.478	28105
806.62	28158
806.762	28280
806.904	28295
807.046	28474
807.188	28535
807.33	28615
807.472	28356
807.614	28481
807.756	28363
807.898	28478
808.04	28280
808.182	28413
808.324	28322
808.465	28516
808.607	28713
808.749	28622
808.891	28881
809.033	28839
809.174	28858
809.316	28637
809.458	28778
809.6	28736
809.741	28850
809.883	28843
810.025	29140
810.166	29098
810.308	29159
810.45	29105
810.591	28965
810.733	28831
810.875	28691
811.016	28759
811.158	28778
811.299	28938
811.441	28908
811.582	28904
811.724	28767
811.865	28752
812.007	28645
812.148	28615
812.29	28816
812.431	28923
812.573	29128
812.714	29334
812.855	29307
812.997	29459
813.138	29547
813.279	29402
813.421	29459
813.562	29318
813.703	29121
813.845	29117
813.986	28550
814.127	28675
814.268	28432
814.41	28561
814.551	28580
814.692	28706
814.833	28436
814.974	28440
815.115	28535
815.256	28352
815.397	28379
815.539	28337
815.68	28421
815.821	28188
815.962	28226
816.103	28299
816.244	28082
816.385	28010
816.526	28246
816.666	27846
816.807	27838
816.948	27831
817.089	27835
817.23	27865
817.371	27701
817.512	27789
817.653	27804
817.793	27728
817.934	27717
818.075	27724
818.216	27846
818.356	27747
818.497	27614
818.638	27534
818.778	27507
818.919	27519
819.06	27496
819.2	27732
819.341	27770
819.481	27759
819.622	28032
819.762	28207
819.903	28002
820.043	27983
820.184	27949
820.324	28021
820.465	28143
820.605	27972
820.746	27911
820.886	27755
821.026	27960
821.167	27781
821.307	28006
821.447	27755
821.588	27808
821.728	27473
821.868	27496
822.008	27427
822.149	27287
822.289	27256
822.429	27066
822.569	26944
822.709	26895
822.849	26777
822.99	26857
823.13	26724
823.27	26686
823.41	26724
823.55	26488
823.69	26712
823.83	26621
823.97	26541
824.11	26313
824.25	26389
824.389	26499
824.529	26526
824.669	26514
824.809	26629
824.949	26621
825.089	26431
825.228	26492
825.368	26328
825.508	26298
825.648	26271
825.787	26328
825.927	26214
826.067	26328
826.206	26336
826.346	26381
826.485	26328
826.625	26404
826.765	26412
826.904	26442
827.044	26142
827.183	26077
827.323	26016
827.462	26168
827.601	26119
827.741	26005
827.88	26176
828.02	25875
828.159	26065
828.298	26077
828.437	26058
828.577	26016
828.716	26157
828.855	25909
828.994	25609
829.134	25818
829.273	25769
829.412	25632
829.551	25677
829.69	25723
829.829	25662
829.968	25860
830.107	25799
830.246	25826
830.385	25731
830.524	25723
830.663	25567
830.802	25411
830.941	25236
831.08	25297
831.219	25335
831.357	25388
831.496	25499
831.635	25381
831.774	25160
831.913	25187
832.051	25080
832.19	25069
832.329	25145
832.467	24894
832.606	24913
832.744	25012
832.883	25023
833.022	24932
833.16	25168
833.299	24954
833.437	24977
833.576	25129
833.714	25061
833.852	25190
833.991	25133
834.129	25141
834.267	25168
834.406	25076
834.544	25126
834.682	25118
834.821	24966
834.959	25118
835.097	25027
835.235	25095
835.373	25004
835.511	25110
835.65	24863
835.788	24894
835.926	24825
836.064	24753
836.202	24696
836.34	24867
836.478	24951
836.615	24837
836.753	24833
836.891	24924
837.029	24791
837.167	24802
837.305	24859
837.443	24741
837.58	24738
837.718	24852
837.856	24825
837.993	24639
838.131	24772
838.269	24509
838.406	24608
838.544	24544
838.681	24403
838.819	24372
838.956	24243
839.094	24186
839.231	24308
839.369	24315
839.506	24585
839.643	24376
839.781	24144
839.918	24057
840.055	24235
840.193	24201
840.33	24300
840.467	23988
840.604	24171
840.742	24315
840.879	24041
841.016	24026
841.153	23992
841.29	24262
841.427	24064
841.564	24053
841.701	24072
841.838	24034
841.975	23950
842.112	23977
842.249	23942
842.385	23847
842.522	24152
842.659	23885
842.796	23809
842.933	23813
843.069	23760
843.206	23745
843.343	23832
843.479	23870
843.616	23908
843.752	23684
843.889	23642
844.025	23786
844.162	23573
844.298	23783
844.435	23596
844.571	23570
844.708	23729
844.844	23703
844.98	23779
845.117	23722
845.253	23490
845.389	23547
845.525	23455
845.661	23436
845.798	23299
845.934	23440
846.07	23395
846.206	23337
846.342	23455
846.478	23273
846.614	23208
846.75	22858
846.886	23151
847.022	23102
847.158	23140
847.294	23124
847.429	23075
847.565	23022
847.701	23303
847.837	22752
847.972	22793
848.108	22801
848.244	22839
848.379	22710
848.515	22691
848.65	22729
848.786	22592
848.921	22645
849.057	22847
849.192	22752
849.328	22721
849.463	22744
849.598	22569
849.734	22660
849.869	22527
850.004	22516
850.14	22481
850.275	22440
850.41	22379
850.545	22333
850.68	22409
850.815	22497
850.95	22421
851.085	22504
851.22	22489
851.355	22409
851.49	22466
851.625	22341
851.76	22390
851.895	22287
852.03	22253
852.165	22466
852.299	22504
852.434	22466
852.569	22455
852.703	22348
852.838	22436
852.973	22618
853.107	22440
853.242	22440
853.376	22226
853.511	22109
853.645	22204
853.78	22192
853.914	22299
854.048	22162
854.183	22265
854.317	22200
854.451	22348
854.585	22276
854.72	22272
854.854	22295
854.988	22143
855.122	22242
855.256	22150
855.39	22291
855.524	22265
855.658	22207
855.792	22272
855.926	22230
856.06	22287
856.194	22360
856.327	22196
856.461	22204
856.595	22044
856.729	22200
856.862	22325
856.996	22242
857.13	22322
857.263	22382
857.397	22356
857.53	22166
857.664	22356
857.797	22459
857.931	22337
858.064	22295
858.197	22310
858.331	22215
858.464	22143
858.597	22139
858.731	22268
858.864	22154
858.997	22078
859.13	22299
859.263	22249
859.396	22318
859.529	22166
859.662	22246
859.795	22166
859.928	22086
860.061	22341
860.194	22493
860.327	22329
860.46	22314
860.592	22333
860.725	22375
860.858	22390
860.99	22188
861.123	22204
861.256	22284
861.388	22200
861.521	22934
861.653	22207
861.786	22021
861.918	22063
862.05	22124
862.183	22204
862.315	22223
862.447	22200
862.58	22086
862.712	21903
862.844	21911
862.976	21930
863.108	22128
863.24	22314
863.372	21816
863.504	21941
863.636	21880
863.768	22055
863.9	21987
864.032	21720
864.164	21934
864.296	22017
864.428	21930
864.559	22093
864.691	21911
864.823	21975
864.954	21960
865.086	22025
865.217	21880
865.349	21819
865.48	21781
865.612	21895
865.743	22059
865.875	21835
866.006	21762
866.137	21873
866.269	21835
866.4	21690
866.531	21743
866.662	21660
866.793	21857
866.924	21762
867.055	21679
867.186	21816
867.317	21850
867.448	21644
867.579	21671
867.71	21675
867.841	21580
867.972	21789
868.103	21671
868.233	21732
868.364	21690
868.495	21793
868.625	21998
868.756	22063
868.886	21945
869.017	21873
869.147	22036
869.278	22010
869.408	21911
869.539	22017
869.669	22036
869.799	22070
869.929	22036
870.06	22105
870.19	22253
870.32	22272
870.45	22485
870.58	22318
870.71	22451
870.84	22428
870.97	22371
871.1	22329
871.23	22538
871.36	22519
871.489	22455
871.619	22550
871.749	22527
871.879	22599
872.008	22740
872.138	22702
872.267	22478
872.397	22421
872.526	22394
872.656	22382
872.785	22451
872.915	22611
873.044	22615
873.173	22573
873.303	22626
873.432	22630
873.561	22611
873.69	22675
873.819	22634
873.948	22759
874.077	22565
874.206	22569
874.335	22580
874.464	22752
874.593	22866
874.722	22843
874.851	22755
874.979	22946
875.108	22782
875.237	22805
875.365	22759
875.494	22664
875.623	22889
875.751	22736
875.88	22889
876.008	22805
876.136	23048
876.265	23170
876.393	23360
876.521	23284
876.65	23280
876.778	23181
876.906	23128
877.034	23155
877.162	23117
877.29	23022
877.418	23162
877.546	23166
877.674	23124
877.802	23193
877.93	23105
878.058	23143
878.185	22980
878.313	23174
878.441	23204
878.568	22946
878.696	23098
878.824	23250
878.951	23326
879.079	23376
879.206	23436
879.333	23311
879.461	23326
879.588	23387
879.715	23406
879.842	23463
879.97	23242
880.097	22995
880.224	22946
880.351	22972
880.478	22987
880.605	22957
880.732	22820
880.859	23147
880.986	22972
881.112	23079
881.239	22748
881.366	22763
881.493	22584
881.619	22508
881.746	22577
881.872	22626
881.999	22569
882.125	22436
882.252	22645
882.378	22535
882.505	22653
882.631	22356
882.757	22325
882.883	22341
883.01	22265
883.136	22166
883.262	22059
883.388	22169
883.514	22238
883.64	22295
883.766	22261
883.892	22025
884.018	21991
884.143	22143
884.269	22299
884.395	21979
884.52	21956
884.646	21888
884.772	21797
884.897	21895
885.023	21987
885.148	22036
885.274	22021
885.399	22025
885.524	21888
885.65	21842
885.775	21949
885.9	21785
886.025	22082
886.15	22040
886.275	21884
886.4	21854
886.525	21854
886.65	21812
886.775	21747
886.9	21968
887.025	22226
887.149	21812
887.274	21766
887.399	21667
887.523	21564
887.648	21736
887.773	21580
887.897	21736
888.021	21679
888.146	21538
888.27	21652
888.395	21800
888.519	21545
888.643	21675
888.767	21747
888.891	21511
889.015	21454
889.139	21545
889.263	21405
889.387	21507
889.511	21618
889.635	21625
889.759	21424
889.883	21359
890.006	21412
890.13	21443
890.254	21435
890.377	21397
890.501	21214
890.624	21252
890.748	21123
890.871	20971
890.995	20971
891.118	20883
891.241	20963
891.364	20941
891.488	21055
891.611	20998
891.734	20910
891.857	21066
891.98	20982
892.103	21070
892.226	20990
892.349	20918
892.471	20868
892.594	20929
892.717	20990
892.839	20853
892.962	20944
893.085	20979
893.207	20777
893.33	20648
893.452	20823
893.575	20906
893.697	20849
893.819	20933
893.941	21058
894.064	20990
894.186	20739
894.308	20830
894.43	20941
894.552	20956
894.674	20971
894.796	20849
894.918	20941
895.04	20826
895.161	20921
895.283	21005
895.405	20811
895.526	20849
895.648	20887
895.769	20899
895.891	20773
896.012	20849
896.134	20956
896.255	20815
896.376	20720
896.498	20781
896.619	20963
896.74	20883
896.861	20906
896.982	21203
897.103	21329
897.224	21176
897.345	21043
897.466	21024
897.587	20963
897.708	21157
897.828	21131
897.949	20971
898.07	21009
898.19	21070
898.311	21192
898.431	21077
898.552	21116
898.672	21093
898.792	21135
898.913	21036
899.033	20872
899.153	20800
899.273	20788
899.393	20769
899.513	20994
899.633	20739
899.753	20941
899.873	20674
899.993	20826
900.113	20777
900.232	20743
900.352	20716
900.472	20720
900.591	20571
900.711	20640
900.83	20560
900.95	20651
901.069	20545
901.189	20454
901.308	20256
901.427	20206
901.546	20046
901.665	20145
901.784	20073
901.904	19955
902.023	19928
902.141	19738
902.26	19662
902.379	19818
902.498	19529
902.617	19696
902.735	19681
902.854	19502
902.973	19674
903.091	19362
903.21	19381
903.328	19293
903.446	19221
903.565	19266
903.683	19095
903.801	19084
903.919	19099
904.038	19038
904.156	18989
904.274	18970
904.392	18913
904.51	18802
904.627	18928
904.745	18966
904.863	18829
904.981	18715
905.098	18410
905.216	18525
905.334	18544
905.451	18544
905.569	18597
905.686	18521
905.803	18479
905.921	18243
906.038	18483
906.155	18464
906.272	18289
906.389	18194
906.506	17992
906.623	18030
906.74	18060
906.857	17912
906.974	17992
907.091	18076
907.208	18194
907.324	18133
907.441	18068
907.557	17908
907.674	17760
907.79	17699
907.907	17703
908.023	17870
908.139	17775
908.256	17737
908.372	17642
908.488	17634
908.604	17455
908.72	17478
908.836	17547
908.952	17516
909.068	17516
909.184	17539
909.3	17471
909.415	17490
909.531	17573
909.647	17200
909.762	17250
909.878	17155
909.993	17235
910.108	17159
910.224	17109
910.339	17105
910.454	16938
910.57	16995
910.685	16824
910.8	17109
910.915	17075
911.03	17113
911.145	16835
911.259	16755
911.374	16831
911.489	16645
911.604	16725
911.718	16470
911.833	16596
911.947	16516
912.062	16451
912.176	16546
912.291	16561
912.405	16546
912.519	16717
912.633	16653
912.748	16538
912.862	16409
912.976	16280
913.09	16192
913.204	16291
913.318	16322
913.431	16424
913.545	16417
913.659	16459
913.772	16272
913.886	16124
914	16147
914.113	16131
914.226	16253
914.34	16246
914.453	16044
914.566	16143
914.68	15972
914.793	15949
914.906	15819
915.019	15785
915.132	15564
915.245	15804
915.358	15785
915.47	15747
915.583	15694
915.696	15717
915.809	15736
915.921	15857
916.034	15652
916.146	15656
916.259	15553
916.371	15759
916.483	15724
916.595	15557
916.708	15507
916.82	15496
916.932	15435
917.044	15443
917.156	15530
917.268	15230
917.38	15260
917.491	15260
917.603	15287
917.715	15439
917.826	15450
917.938	15230
918.049	15119
918.161	15321
918.272	15321
918.384	15393
918.495	15256
918.606	15161
918.717	15047
918.828	15161
918.939	15203
919.05	15062
919.161	15032
919.272	14876
919.383	14895
919.494	15085
919.604	15256
919.715	15058
919.826	14994
919.936	15009
920.047	15093
920.157	15089
920.267	15252
920.378	15093
920.488	14963
920.598	15150
920.708	15363
920.818	15176
920.928	15081
921.038	15294
921.148	15226
921.258	14944
921.368	14838
921.477	14739
921.587	14705
921.697	14621
921.806	14883
921.916	14560
922.025	14454
922.134	14347
922.244	14298
922.353	14480
922.462	14355
922.571	14199
922.68	14081
922.789	14054
922.898	14084
923.007	14001
923.116	14065
923.224	14020
923.333	13932
923.442	13906
923.55	13852
923.659	13906
923.767	13944
923.876	13757
923.984	13887
924.092	13731
924.201	13871
924.309	13738
924.417	13822
924.525	13719
924.633	13647
924.741	14431
924.849	13381
924.956	13609
925.064	13480
925.172	13369
925.279	13411
925.387	13472
925.494	13403
925.602	13609
925.709	13445
925.816	13312
925.924	13346
926.031	13365
926.138	13331
926.245	13381
926.352	13274
926.459	13407
926.566	13415
926.673	13217
926.779	13156
926.886	13190
926.993	13019
927.099	13000
927.206	12947
927.312	12981
927.419	13004
927.525	13023
927.631	13019
927.737	12837
927.843	12783
927.95	12703
928.056	12806
928.162	12837
928.267	12711
928.373	13343
928.479	12814
928.585	12677
928.69	12741
928.796	12684
928.901	12585
929.007	12506
929.112	12604
929.218	12658
929.323	12650
929.428	12582
929.533	12593
929.638	12422
929.743	12452
929.848	12460
929.953	12467
930.058	12319
930.163	12273
930.267	12205
930.372	12376
930.477	12152
930.581	12445
930.685	12220
930.79	12045
930.894	12072
930.998	12030
931.103	12030
931.207	11783
931.311	11786
931.415	11668
931.519	11395
931.623	11455
