Data from test_V78500241_2466.txt Node
Date: Fri Mar 25 15:58:53 CST 2022
User: usil
Spectrometer: V785-0024
Trigger mode: 0
Integration Time (sec): 4.000000E-1
Scans to average: 1
Nonlinearity correction enabled: false
Boxcar width: 0
Storing dark spectrum: false
XAxis mode: Wavelengths
Number of Pixels in Spectrum: 1024
>>>>>Begin Spectral Data<<<<<
801.071	28272
801.214	28341
801.356	28143
801.499	27983
801.641	27720
801.783	27979
801.926	27884
802.068	27953
802.211	27766
802.353	27641
802.496	27534
802.638	27538
802.78	27443
802.923	27348
803.065	27389
803.208	27473
803.35	27496
803.492	27698
803.635	27819
803.777	27679
803.919	27682
804.061	28078
804.204	27854
804.346	27709
804.488	27671
804.63	27736
804.773	27671
804.915	27861
805.057	27911
805.199	27606
805.341	27861
805.483	27914
805.626	27865
805.768	27747
805.91	27842
806.052	28074
806.194	27873
806.336	28078
806.478	27884
806.62	27975
806.762	28112
806.904	28310
807.046	28413
807.188	28379
807.33	28455
807.472	28447
807.614	28390
807.756	28371
807.898	28234
808.04	28150
808.182	28120
808.324	28219
808.465	28280
808.607	28325
808.749	28588
808.891	28812
809.033	28656
809.174	28733
809.316	28584
809.458	28717
809.6	28561
809.741	28733
809.883	28675
810.025	28961
810.166	28934
810.308	28877
810.45	28755
810.591	28816
810.733	28706
810.875	28607
811.016	28474
811.158	28401
811.299	28698
811.441	28691
811.582	28805
811.724	28516
811.865	28607
812.007	28531
812.148	28485
812.29	28664
812.431	28706
812.573	28904
812.714	28961
812.855	29094
812.997	29223
813.138	29181
813.279	29159
813.421	29159
813.562	29003
813.703	28965
813.845	28767
813.986	28649
814.127	28325
814.268	28314
814.41	28375
814.551	28318
814.692	28306
814.833	28135
814.974	28162
815.115	28192
815.256	28082
815.397	28181
815.539	28063
815.68	28055
815.821	27960
815.962	28013
816.103	28070
816.244	27949
816.385	27903
816.526	27804
816.666	27671
816.807	27519
816.948	27583
817.089	27709
817.23	27603
817.371	27583
817.512	27618
817.653	27644
817.793	27504
817.934	27561
818.075	27622
818.216	27622
818.356	27496
818.497	27435
818.638	27291
818.778	27351
818.919	27424
819.06	27321
819.2	27424
819.341	27568
819.481	27538
819.622	27778
819.762	27865
819.903	27751
820.043	27686
820.184	27762
820.324	27667
820.465	27591
820.605	27698
820.746	27686
820.886	27591
821.026	27542
821.167	27625
821.307	27743
821.447	27633
821.588	27526
821.728	27393
821.868	27218
822.008	27138
822.149	27150
822.289	27077
822.429	26765
822.569	26800
822.709	26731
822.849	26533
822.99	26609
823.13	26514
823.27	26511
823.41	26587
823.55	26263
823.69	26336
823.83	26434
823.97	26339
824.11	26271
824.25	26027
824.389	26221
824.529	26278
824.669	26187
824.809	26332
824.949	26351
825.089	26374
825.228	26221
825.368	25997
825.508	26054
825.648	26187
825.787	26069
825.927	26130
826.067	25986
826.206	26103
826.346	26119
826.485	26073
826.625	26039
826.765	26248
826.904	26084
827.044	25841
827.183	25860
827.323	25708
827.462	25955
827.601	25799
827.741	25734
827.88	25757
828.02	25708
828.159	25757
828.298	25826
828.437	25860
828.577	25708
828.716	25708
828.855	25502
828.994	25506
829.134	25499
829.273	25681
829.412	25441
829.551	25403
829.69	25449
829.829	25445
829.968	25548
830.107	25518
830.246	25537
830.385	25441
830.524	25499
830.663	25198
830.802	25145
830.941	25084
831.08	24932
831.219	25080
831.357	25175
831.496	25339
831.635	24935
831.774	24977
831.913	24943
832.051	24859
832.19	24875
832.329	24897
832.467	24719
832.606	24719
832.744	24749
832.883	24642
833.022	24749
833.16	24741
833.299	24707
833.437	24924
833.576	24844
833.714	24821
833.852	24916
833.991	24821
834.129	24878
834.267	24787
834.406	24783
834.544	24981
834.682	24806
834.821	24814
834.959	24875
835.097	24787
835.235	24875
835.373	24749
835.511	24707
835.65	24688
835.788	24814
835.926	24399
836.064	24399
836.202	24475
836.34	24593
836.478	24772
836.615	24635
836.753	24612
836.891	24593
837.029	24696
837.167	24582
837.305	24544
837.443	24536
837.58	24388
837.718	24479
837.856	24486
837.993	24445
838.131	24445
838.269	24429
838.406	24304
838.544	24342
838.681	24171
838.819	24072
838.956	23882
839.094	23802
839.231	24045
839.369	24041
839.506	24426
839.643	24114
839.781	23942
839.918	23878
840.055	23988
840.193	24015
840.33	23912
840.467	23805
840.604	23764
840.742	24011
840.879	23741
841.016	23824
841.153	23726
841.29	23901
841.427	23790
841.564	23931
841.701	23786
841.838	23741
841.975	23699
842.112	23752
842.249	23665
842.385	23554
842.522	23767
842.659	23627
842.796	23585
842.933	23710
843.069	23471
843.206	23547
843.343	23638
843.479	23535
843.616	23478
843.752	23417
843.889	23471
844.025	23429
844.162	23425
844.298	23463
844.435	23227
844.571	23387
844.708	23452
844.844	23490
844.98	23387
845.117	23531
845.253	23318
845.389	23246
845.525	23337
845.661	23242
845.798	23067
845.934	23227
846.07	23071
846.206	23128
846.342	23258
846.478	23185
846.614	22938
846.75	22850
846.886	22839
847.022	22812
847.158	22824
847.294	22755
847.429	22873
847.565	22782
847.701	23075
847.837	22447
847.972	22740
848.108	22683
848.244	22668
848.379	22462
848.515	22459
848.65	22344
848.786	22481
848.921	22421
849.057	22569
849.192	22519
849.328	22424
849.463	22322
849.598	22462
849.734	22280
849.869	22158
850.004	22276
850.14	22109
850.275	22196
850.41	22154
850.545	22090
850.68	22055
850.815	22093
850.95	22215
851.085	22257
851.22	22291
851.355	22105
851.49	22082
851.625	22044
851.76	21972
851.895	22128
852.03	22059
852.165	22173
852.299	22272
852.434	22169
852.569	22166
852.703	22196
852.838	22276
852.973	22310
853.107	22325
853.242	22112
853.376	22010
853.511	21816
853.645	21975
853.78	22196
853.914	21998
854.048	21937
854.183	21930
854.317	22051
854.451	22192
854.585	22006
854.72	21934
854.854	22116
854.988	21880
855.122	22067
855.256	21926
855.39	21934
855.524	22128
855.658	22116
855.792	21972
855.926	21949
856.06	22074
856.194	22021
856.327	21895
856.461	22059
856.595	21934
856.729	22002
856.862	22120
856.996	22067
857.13	22044
857.263	22112
857.397	22147
857.53	22078
857.664	22120
857.797	21968
857.931	22048
858.064	21979
858.197	22128
858.331	21994
858.464	21915
858.597	21956
858.731	21956
858.864	21964
858.997	21804
859.13	21964
859.263	21964
859.396	22105
859.529	22032
859.662	21987
859.795	21987
859.928	22013
860.061	22131
860.194	22280
860.327	22032
860.46	22006
860.592	22154
860.725	22070
860.858	22185
860.99	22025
861.123	21899
861.256	21968
861.388	22070
861.521	22809
861.653	21956
861.786	21793
861.918	21797
862.05	21816
862.183	21994
862.315	21884
862.447	22025
862.58	21899
862.712	21553
862.844	21610
862.976	21774
863.108	21675
863.24	22131
863.372	21477
863.504	21618
863.636	21690
863.768	21732
863.9	21793
864.032	21553
864.164	21679
864.296	21797
864.428	21778
864.559	21831
864.691	21812
864.823	21736
864.954	21599
865.086	21576
865.217	21606
865.349	21458
865.48	21557
865.612	21507
865.743	21785
865.875	21416
866.006	21572
866.137	21580
866.269	21717
866.4	21679
866.531	21549
866.662	21542
866.793	21462
866.924	21557
867.055	21549
867.186	21526
867.317	21488
867.448	21393
867.579	21389
867.71	21389
867.841	21458
867.972	21557
868.103	21504
868.233	21530
868.364	21583
868.495	21625
868.625	21751
868.756	21873
868.886	21831
869.017	21679
869.147	21884
869.278	21842
869.408	21789
869.539	21751
869.669	21861
869.799	21797
869.929	21869
870.06	21926
870.19	21991
870.32	22196
870.45	22032
870.58	22135
870.71	22223
870.84	22166
870.97	22105
871.1	22185
871.23	22325
871.36	22375
871.489	22299
871.619	22238
871.749	22356
871.879	22318
872.008	22504
872.138	22314
872.267	22413
872.397	22223
872.526	22143
872.656	22276
872.785	22223
872.915	22337
873.044	22588
873.173	22497
873.303	22398
873.432	22459
873.561	22546
873.69	22398
873.819	22386
873.948	22394
874.077	22379
874.206	22352
874.335	22306
874.464	22424
874.593	22596
874.722	22656
874.851	22542
874.979	22569
875.108	22626
875.237	22546
875.365	22493
875.494	22584
875.623	22653
875.751	22542
875.88	22710
876.008	22729
876.136	22801
876.265	23014
876.393	23044
876.521	23102
876.65	23067
876.778	22866
876.906	22934
877.034	22961
877.162	23033
877.29	22919
877.418	22908
877.546	22930
877.674	22923
877.802	22885
877.93	22953
878.058	22896
878.185	22816
878.313	22847
878.441	22862
878.568	22740
878.696	22733
878.824	22771
878.951	23041
879.079	23098
879.206	23200
879.333	23098
879.461	23048
879.588	23048
879.715	23109
879.842	23239
879.97	23029
880.097	22710
880.224	22816
880.351	22721
880.478	22752
880.605	22573
880.732	22733
880.859	23041
880.986	22835
881.112	22755
881.239	22702
881.366	22592
881.493	22421
881.619	22402
881.746	22337
881.872	22394
881.999	22287
882.125	22109
882.252	22192
882.378	22249
882.505	22405
882.631	22093
882.757	22124
882.883	22150
883.01	21945
883.136	22013
883.262	21911
883.388	21953
883.514	21968
883.64	21994
883.766	21922
883.892	21728
884.018	21831
884.143	21945
884.269	22055
884.395	21679
884.52	21705
884.646	21660
884.772	21553
884.897	21641
885.023	21686
885.148	21709
885.274	21857
885.399	21690
885.524	21724
885.65	21682
885.775	21743
885.9	21705
886.025	21739
886.15	21614
886.275	21610
886.4	21580
886.525	21545
886.65	21583
886.775	21625
886.9	21675
887.025	21918
887.149	21610
887.274	21549
887.399	21355
887.523	21378
887.648	21317
887.773	21268
887.897	21576
888.021	21412
888.146	21344
888.27	21515
888.395	21469
888.519	21363
888.643	21431
888.767	21523
888.891	21348
889.015	21287
889.139	21249
889.263	21142
889.387	21268
889.511	21405
889.635	21298
889.759	21222
889.883	21123
890.006	21226
890.13	21378
890.254	21070
890.377	21157
890.501	21058
890.624	20975
890.748	21055
890.871	20876
890.995	20724
891.118	20644
891.241	20705
891.364	20670
891.488	20921
891.611	20830
891.734	20701
891.857	20941
891.98	20682
892.103	20838
892.226	20819
892.349	20769
892.471	20526
892.594	20815
892.717	20705
892.839	20560
892.962	20632
893.085	20792
893.207	20731
893.33	20587
893.452	20526
893.575	20659
893.697	20560
893.819	20792
893.941	20826
894.064	20845
894.186	20682
894.308	20648
894.43	20811
894.552	20739
894.674	20678
894.796	20667
894.918	20571
895.04	20587
895.161	20655
895.283	20636
895.405	20461
895.526	20689
895.648	20678
895.769	20564
895.891	20765
896.012	20788
896.134	20686
896.255	20750
896.376	20575
896.498	20701
896.619	20697
896.74	20587
896.861	20735
896.982	20971
897.103	21039
897.224	20853
897.345	20845
897.466	20823
897.587	20868
897.708	21036
897.828	20914
897.949	20804
898.07	20716
898.19	20697
898.311	20933
898.431	20887
898.552	20937
898.672	20861
898.792	20948
898.913	20819
899.033	20727
899.153	20705
899.273	20457
899.393	20530
899.513	20670
899.633	20663
899.753	20590
899.873	20632
899.993	20682
900.113	20552
900.232	20484
900.352	20488
900.472	20374
900.591	20301
900.711	20594
900.83	20358
900.95	20492
901.069	20389
901.189	20298
901.308	19970
901.427	19940
901.546	19989
901.665	19982
901.784	19921
901.904	19776
902.023	19658
902.141	19548
902.26	19537
902.379	19632
902.498	19483
902.617	19396
902.735	19419
902.854	19422
902.973	19346
903.091	19225
903.21	19137
903.328	19057
903.446	19046
903.565	18939
903.683	18916
903.801	18821
903.919	18905
904.038	18859
904.156	18745
904.274	18745
904.392	18719
904.51	18741
904.627	18540
904.745	18734
904.863	18684
904.981	18452
905.098	18365
905.216	18361
905.334	18353
905.451	18357
905.569	18262
905.686	18308
905.803	18254
905.921	18171
906.038	18228
906.155	18220
906.272	17973
906.389	17996
906.506	17866
906.623	17893
906.74	17878
906.857	17802
906.974	17817
907.091	17828
907.208	17992
907.324	17923
907.441	17783
907.557	17608
907.674	17562
907.79	17600
907.907	17627
908.023	17512
908.139	17608
908.256	17554
908.372	17482
908.488	17532
908.604	17341
908.72	17231
908.836	17250
908.952	17223
909.068	17258
909.184	17315
909.3	17197
909.415	17353
909.531	17254
909.647	17041
909.762	16999
909.878	16904
909.993	16976
910.108	17064
910.224	16927
910.339	16991
910.454	16778
910.57	16896
910.685	16698
910.8	16957
910.915	16873
911.03	16717
911.145	16569
911.259	16542
911.374	16481
911.489	16519
911.604	16508
911.718	16341
911.833	16333
911.947	16223
912.062	16207
912.176	16356
912.291	16413
912.405	16272
912.519	16512
912.633	16504
912.748	16489
912.862	16306
912.976	16226
913.09	16040
913.204	16059
913.318	16162
913.431	16196
913.545	16154
913.659	16284
913.772	16120
913.886	15975
914	15953
914.113	15926
914.226	16017
914.34	15895
914.453	15892
914.566	16059
914.68	15899
914.793	15804
914.906	15507
915.019	15492
915.132	15496
915.245	15412
915.358	15549
915.47	15378
915.583	15606
915.696	15500
915.809	15667
915.921	15629
916.034	15435
916.146	15359
916.259	15454
916.371	15526
916.483	15504
916.595	15260
916.708	15336
916.82	15389
916.932	15348
917.044	15279
917.156	15252
917.268	15154
917.38	15157
917.491	15104
917.603	15138
917.715	15154
917.826	15252
917.938	15077
918.049	15039
918.161	15100
918.272	15249
918.384	15218
918.495	15081
918.606	15005
918.717	14952
918.828	14948
918.939	14925
919.05	14967
919.161	14849
919.272	14697
919.383	14674
919.494	14918
919.604	15085
919.715	14910
919.826	14773
919.936	14800
920.047	15013
920.157	14788
920.267	15058
920.378	14925
920.488	14811
920.598	15043
920.708	15226
920.818	14994
920.928	14914
921.038	15131
921.148	15066
921.258	14906
921.368	14845
921.477	14629
921.587	14541
921.697	14454
921.806	14583
921.916	14446
922.025	14347
922.134	14180
922.244	14202
922.353	14290
922.462	13989
922.571	14096
922.68	13830
922.789	13811
922.898	13845
923.007	13776
923.116	13852
923.224	13894
923.333	13780
923.442	13708
923.55	13704
923.659	13784
923.767	13734
923.876	13658
923.984	13746
924.092	13674
924.201	13582
924.309	13727
924.417	13563
924.525	13525
924.633	13518
924.741	14362
924.849	13320
924.956	13438
925.064	13369
925.172	13160
925.279	13308
925.387	13293
925.494	13263
925.602	13491
925.709	13335
925.816	13072
925.924	13194
926.031	13236
926.138	13156
926.245	13183
926.352	13209
926.459	13293
926.566	13339
926.673	13187
926.779	12951
926.886	13088
926.993	12882
927.099	12833
927.206	12783
927.312	12825
927.419	12798
927.525	12814
927.631	12837
927.737	12749
927.843	12719
927.95	12608
928.056	12597
928.162	12665
928.267	12757
928.373	13362
928.479	12795
928.585	12486
928.69	12665
928.796	12551
928.901	12467
929.007	12338
929.112	12536
929.218	12555
929.323	12391
929.428	12292
929.533	12483
929.638	12262
929.743	12346
929.848	12315
929.953	12376
930.058	12209
930.163	12038
930.267	12091
930.372	12224
930.477	11973
930.581	12220
930.685	12091
930.79	11912
930.894	11954
930.998	11920
931.103	11980
931.207	11745
931.311	11554
931.415	11600
931.519	11368
931.623	11322
