Data from test_V78500241_1331.txt Node
Date: Fri Mar 25 15:51:01 CST 2022
User: usil
Spectrometer: V785-0024
Trigger mode: 0
Integration Time (sec): 4.000000E-1
Scans to average: 1
Nonlinearity correction enabled: false
Boxcar width: 0
Storing dark spectrum: false
XAxis mode: Wavelengths
Number of Pixels in Spectrum: 1024
>>>>>Begin Spectral Data<<<<<
801.071	28124
801.214	28086
801.356	27846
801.499	27785
801.641	27747
801.783	27819
801.926	27789
802.068	27785
802.211	27701
802.353	27557
802.496	27458
802.638	27500
802.78	27447
802.923	27306
803.065	27214
803.208	27386
803.35	27252
803.492	27496
803.635	27656
803.777	27492
803.919	27660
804.061	27895
804.204	27545
804.346	27542
804.488	27557
804.63	27572
804.773	27511
804.915	27614
805.057	27542
805.199	27686
805.341	27694
805.483	27720
805.626	27751
805.768	27614
805.91	27739
806.052	27800
806.194	27652
806.336	27994
806.478	27816
806.62	27759
806.762	27876
806.904	28090
807.046	28287
807.188	28074
807.33	28207
807.472	28223
807.614	28128
807.756	28200
807.898	28010
808.04	27808
808.182	27994
808.324	28090
808.465	28116
808.607	28398
808.749	28512
808.891	28542
809.033	28413
809.174	28371
809.316	28356
809.458	28306
809.6	28398
809.741	28634
809.883	28512
810.025	28771
810.166	28664
810.308	28592
810.45	28637
810.591	28660
810.733	28440
810.875	28280
811.016	28325
811.158	28356
811.299	28500
811.441	28634
811.582	28675
811.724	28421
811.865	28371
812.007	28363
812.148	28386
812.29	28485
812.431	28607
812.573	28618
812.714	28930
812.855	28934
812.997	29041
813.138	29166
813.279	29037
813.421	28900
813.562	28919
813.703	28706
813.845	28516
813.986	28322
814.127	28284
814.268	28135
814.41	28226
814.551	28017
814.692	28196
814.833	28063
814.974	28002
815.115	27991
815.256	28013
815.397	27934
815.539	27956
815.68	27907
815.821	27709
815.962	27876
816.103	27911
816.244	27663
816.385	27648
816.526	27644
816.666	27511
816.807	27427
816.948	27401
817.089	27606
817.23	27424
817.371	27321
817.512	27412
817.653	27348
817.793	27370
817.934	27545
818.075	27363
818.216	27538
818.356	27287
818.497	27294
818.638	27142
818.778	27207
818.919	27150
819.06	27127
819.2	27226
819.341	27355
819.481	27408
819.622	27587
819.762	27778
819.903	27682
820.043	27618
820.184	27526
820.324	27500
820.465	27549
820.605	27515
820.746	27412
820.886	27294
821.026	27526
821.167	27443
821.307	27603
821.447	27507
821.588	27127
821.728	27283
821.868	27055
822.008	26960
822.149	26982
822.289	26883
822.429	26617
822.569	26537
822.709	26621
822.849	26438
822.99	26499
823.13	26336
823.27	26358
823.41	26267
823.55	26138
823.69	26267
823.83	26282
823.97	26237
824.11	25970
824.25	25959
824.389	26016
824.529	26313
824.669	26130
824.809	26100
824.949	26161
825.089	26073
825.228	26024
825.368	25909
825.508	25906
825.648	25989
825.787	26046
825.927	25898
826.067	25894
826.206	25868
826.346	25993
826.485	25890
826.625	25959
826.765	26065
826.904	25879
827.044	25685
827.183	25784
827.323	25628
827.462	25704
827.601	25639
827.741	25727
827.88	25590
828.02	25563
828.159	25674
828.298	25670
828.437	25677
828.577	25643
828.716	25712
828.855	25575
828.994	25369
829.134	25350
829.273	25335
829.412	25320
829.551	25282
829.69	25297
829.829	25575
829.968	25502
830.107	25449
830.246	25479
830.385	25331
830.524	25335
830.663	25114
830.802	25034
830.941	25008
831.08	24787
831.219	25015
831.357	25046
831.496	25259
831.635	24954
831.774	24878
831.913	24715
832.051	24783
832.19	24764
832.329	24798
832.467	24658
832.606	24650
832.744	24582
832.883	24559
833.022	24426
833.16	24738
833.299	24642
833.437	24684
833.576	24681
833.714	24593
833.852	24719
833.991	24741
834.129	24829
834.267	24738
834.406	24703
834.544	24764
834.682	24711
834.821	24719
834.959	24772
835.097	24696
835.235	24692
835.373	24745
835.511	24665
835.65	24620
835.788	24441
835.926	24525
836.064	24254
836.202	24426
836.34	24414
836.478	24601
836.615	24528
836.753	24403
836.891	24578
837.029	24441
837.167	24490
837.305	24418
837.443	24437
837.58	24304
837.718	24414
837.856	24357
837.993	24277
838.131	24391
838.269	24270
838.406	24224
838.544	24125
838.681	24011
838.819	24007
838.956	23878
839.094	23828
839.231	23859
839.369	23866
839.506	24251
839.643	23958
839.781	23855
839.918	23828
840.055	23836
840.193	23707
840.33	23741
840.467	23729
840.604	23783
840.742	24038
840.879	23695
841.016	23608
841.153	23516
841.29	23855
841.427	23634
841.564	23691
841.701	23695
841.838	23627
841.975	23691
842.112	23611
842.249	23524
842.385	23474
842.522	23809
842.659	23547
842.796	23391
842.933	23387
843.069	23505
843.206	23391
843.343	23581
843.479	23509
843.616	23478
843.752	23246
843.889	23242
844.025	23414
844.162	23299
844.298	23406
844.435	23235
844.571	23254
844.708	23292
844.844	23402
844.98	23391
845.117	23341
845.253	23345
845.389	23102
845.525	23151
845.661	23136
845.798	22862
845.934	22965
846.07	23086
846.206	22999
846.342	23071
846.478	22850
846.614	22778
846.75	22634
846.886	22706
847.022	22668
847.158	22740
847.294	22740
847.429	22763
847.565	22672
847.701	22816
847.837	22512
847.972	22360
848.108	22519
848.244	22542
848.379	22246
848.515	22352
848.65	22177
848.786	22394
848.921	22341
849.057	22478
849.192	22379
849.328	22348
849.463	22363
849.598	22310
849.734	22143
849.869	22226
850.004	22059
850.14	22154
850.275	22116
850.41	22036
850.545	21983
850.68	21922
850.815	22086
850.95	22093
851.085	22257
851.22	22181
851.355	22025
851.49	22040
851.625	22082
851.76	21953
851.895	21945
852.03	22006
852.165	22086
852.299	22002
852.434	22116
852.569	22120
852.703	22131
852.838	22067
852.973	22090
853.107	22135
853.242	22078
853.376	21903
853.511	21785
853.645	21861
853.78	21953
853.914	22010
854.048	21812
854.183	21827
854.317	22006
854.451	22059
854.585	21926
854.72	21876
854.854	22048
854.988	21850
855.122	21892
855.256	21694
855.39	21899
855.524	22025
855.658	21907
855.792	21838
855.926	21953
856.06	22040
856.194	21953
856.327	21812
856.461	21953
856.595	21755
856.729	21907
856.862	21979
856.996	21869
857.13	21991
857.263	21884
857.397	21930
857.53	21770
857.664	22036
857.797	21956
857.931	21964
858.064	21975
858.197	21915
858.331	21812
858.464	21895
858.597	21736
858.731	21755
858.864	21808
858.997	21816
859.13	21983
859.263	22002
859.396	21854
859.529	21812
859.662	21911
859.795	21869
859.928	21865
860.061	22055
860.194	22120
860.327	21991
860.46	21880
860.592	21911
860.725	22021
860.858	21987
860.99	21766
861.123	21797
861.256	21831
861.388	21998
861.521	22656
861.653	21720
861.786	21656
861.918	21698
862.05	21774
862.183	21789
862.315	21850
862.447	21785
862.58	21804
862.712	21572
862.844	21526
862.976	21819
863.108	21587
863.24	21964
863.372	21458
863.504	21477
863.636	21587
863.768	21652
863.9	21568
864.032	21367
864.164	21561
864.296	21557
864.428	21614
864.559	21728
864.691	21587
864.823	21477
864.954	21500
865.086	21622
865.217	21500
865.349	21443
865.48	21447
865.612	21622
865.743	21500
865.875	21428
866.006	21530
866.137	21466
866.269	21477
866.4	21382
866.531	21355
866.662	21447
866.793	21405
866.924	21313
867.055	21473
867.186	21359
867.317	21382
867.448	21298
867.579	21351
867.71	21287
867.841	21313
867.972	21279
868.103	21397
868.233	21370
868.364	21329
868.495	21538
868.625	21648
868.756	21709
868.886	21431
869.017	21614
869.147	21701
869.278	21625
869.408	21667
869.539	21599
869.669	21728
869.799	21652
869.929	21682
870.06	21747
870.19	21994
870.32	21911
870.45	22032
870.58	22040
870.71	22086
870.84	22276
870.97	22025
871.1	22074
871.23	22196
871.36	22299
871.489	22051
871.619	22238
871.749	22318
871.879	22200
872.008	22306
872.138	22162
872.267	22341
872.397	22063
872.526	22051
872.656	22040
872.785	22185
872.915	22150
873.044	22363
873.173	22204
873.303	22314
873.432	22329
873.561	22295
873.69	22226
873.819	22230
873.948	22310
874.077	22322
874.206	22284
874.335	22234
874.464	22432
874.593	22546
874.722	22382
874.851	22618
874.979	22565
875.108	22508
875.237	22390
875.365	22424
875.494	22413
875.623	22474
875.751	22409
875.88	22424
876.008	22584
876.136	22561
876.265	22847
876.393	22946
876.521	22885
876.65	22850
876.778	22866
876.906	22854
877.034	22816
877.162	22763
877.29	22713
877.418	22896
877.546	22877
877.674	22869
877.802	22740
877.93	22668
878.058	22664
878.185	22592
878.313	22828
878.441	22736
878.568	22618
878.696	22771
878.824	22877
878.951	22995
879.079	23014
879.206	23067
879.333	22972
879.461	22900
879.588	22942
879.715	23064
879.842	23105
879.97	22862
880.097	22584
880.224	22626
880.351	22660
880.478	22596
880.605	22641
880.732	22668
880.859	22752
880.986	22702
881.112	22630
881.239	22459
881.366	22329
881.493	22421
881.619	22291
881.746	22329
881.872	22188
881.999	22188
882.125	22166
882.252	22188
882.378	22150
882.505	22223
882.631	22090
882.757	21941
882.883	22013
883.01	21949
883.136	21827
883.262	21831
883.388	21797
883.514	21895
883.64	21915
883.766	21800
883.892	21625
884.018	21629
884.143	21835
884.269	21869
884.395	21583
884.52	21450
884.646	21599
884.772	21557
884.897	21412
885.023	21477
885.148	21618
885.274	21747
885.399	21595
885.524	21447
885.65	21633
885.775	21492
885.9	21435
886.025	21595
886.15	21717
886.275	21408
886.4	21408
886.525	21473
886.65	21382
886.775	21340
886.9	21656
887.025	21629
887.149	21549
887.274	21264
887.399	21332
887.523	21275
887.648	21294
887.773	21203
887.897	21458
888.021	21325
888.146	21184
888.27	21382
888.395	21382
888.519	21359
888.643	21374
888.767	21260
888.891	21241
889.015	21043
889.139	21116
889.263	21096
889.387	21218
889.511	21302
889.635	21245
889.759	21020
889.883	21131
890.006	21077
890.13	21150
890.254	21020
890.377	20990
890.501	20842
890.624	20887
890.748	20914
890.871	20701
890.995	20632
891.118	20609
891.241	20670
891.364	20720
891.488	20838
891.611	20716
891.734	20602
891.857	20678
891.98	20667
892.103	20640
892.226	20648
892.349	20659
892.471	20545
892.594	20655
892.717	20617
892.839	20594
892.962	20511
893.085	20667
893.207	20499
893.33	20377
893.452	20408
893.575	20575
893.697	20545
893.819	20667
893.941	20804
894.064	20659
894.186	20461
894.308	20514
894.43	20655
894.552	20674
894.674	20651
894.796	20499
894.918	20530
895.04	20590
895.161	20636
895.283	20568
895.405	20461
895.526	20560
895.648	20564
895.769	20457
895.891	20579
896.012	20754
896.134	20518
896.255	20625
896.376	20537
896.498	20545
896.619	20514
896.74	20530
896.861	20571
896.982	20811
897.103	20986
897.224	20895
897.345	20689
897.466	20686
897.587	20758
897.708	20872
897.828	20815
897.949	20731
898.07	20552
898.19	20667
898.311	20746
898.431	20826
898.552	20705
898.672	20800
898.792	20826
898.913	20655
899.033	20651
899.153	20488
899.273	20533
899.393	20522
899.513	20465
899.633	20446
899.753	20434
899.873	20400
899.993	20514
900.113	20465
900.232	20358
900.352	20434
900.472	20210
900.591	20218
900.711	20275
900.83	20172
900.95	20328
901.069	20370
901.189	20115
901.308	19928
901.427	19655
901.546	19868
901.665	19909
901.784	19875
901.904	19658
902.023	19696
902.141	19472
902.26	19358
902.379	19392
902.498	19331
902.617	19221
902.735	19449
902.854	19354
902.973	19285
903.091	19008
903.21	18905
903.328	19065
903.446	18996
903.565	18848
903.683	18833
903.801	18753
903.919	18703
904.038	18840
904.156	18608
904.274	18642
904.392	18639
904.51	18593
904.627	18604
904.745	18578
904.863	18612
904.981	18426
905.098	18258
905.216	18216
905.334	18327
905.451	18292
905.569	18213
905.686	18315
905.803	18338
905.921	18060
906.038	18133
906.155	18053
906.272	17939
906.389	17908
906.506	17824
906.623	17794
906.74	17733
906.857	17684
906.974	17649
907.091	17866
907.208	17897
907.324	17794
907.441	17630
907.557	17524
907.674	17516
907.79	17406
907.907	17452
908.023	17615
908.139	17455
908.256	17448
908.372	17303
908.488	17349
908.604	17296
908.72	17124
908.836	17242
908.952	17246
909.068	17216
909.184	17360
909.3	17216
909.415	17166
909.531	17162
909.647	16980
909.762	16869
909.878	16877
909.993	16919
910.108	16892
910.224	16866
910.339	16896
910.454	16816
910.57	16675
910.685	16618
910.8	16862
910.915	16816
911.03	16626
911.145	16546
911.259	16485
911.374	16485
911.489	16474
911.604	16398
911.718	16299
911.833	16257
911.947	16109
912.062	16128
912.176	16272
912.291	16291
912.405	16253
912.519	16432
912.633	16371
912.748	16223
912.862	16181
912.976	16055
913.09	15960
913.204	15960
913.318	16029
913.431	16147
913.545	16109
913.659	16185
913.772	16059
913.886	15949
914	15930
914.113	15873
914.226	15975
914.34	15880
914.453	15774
914.566	15850
914.68	15755
914.793	15793
914.906	15454
915.019	15408
915.132	15416
915.245	15443
915.358	15481
915.47	15443
915.583	15393
915.696	15401
915.809	15458
915.921	15534
916.034	15370
916.146	15431
916.259	15302
916.371	15416
916.483	15367
916.595	15279
916.708	15336
916.82	15275
916.932	15180
917.044	15340
917.156	15195
917.268	15062
917.38	15001
917.491	15104
917.603	15169
917.715	15127
917.826	15165
917.938	15074
918.049	14853
918.161	14982
918.272	15058
918.384	15077
918.495	15036
918.606	14887
918.717	14754
918.828	14872
918.939	14925
919.05	14625
919.161	14826
919.272	14678
919.383	14724
919.494	14891
919.604	15020
919.715	14868
919.826	14796
919.936	14861
920.047	14956
920.157	14826
920.267	14918
920.378	14815
920.488	14777
920.598	14948
920.708	14998
920.818	14914
920.928	14941
921.038	15062
921.148	15058
921.258	14762
921.368	14613
921.477	14495
921.587	14594
921.697	14393
921.806	14400
921.916	14343
922.025	14157
922.134	14176
922.244	14035
922.353	14183
922.462	14142
922.571	13970
922.68	13868
922.789	13868
922.898	13803
923.007	13708
923.116	13776
923.224	13845
923.333	13818
923.442	13624
923.55	13693
923.659	13731
923.767	13715
923.876	13567
923.984	13696
924.092	13483
924.201	13586
924.309	13594
924.417	13578
924.525	13438
924.633	13483
924.741	14408
924.849	13304
924.956	13449
925.064	13263
925.172	13194
925.279	13141
925.387	13259
925.494	13213
925.602	13263
925.709	13209
925.816	13023
925.924	13137
926.031	13278
926.138	13091
926.245	13175
926.352	13107
926.459	13149
926.566	13202
926.673	13103
926.779	12981
926.886	12939
926.993	12795
927.099	12711
927.206	12749
927.312	12745
927.419	12829
927.525	12677
927.631	12760
927.737	12639
927.843	12570
927.95	12494
928.056	12532
928.162	12646
928.267	12597
928.373	13122
928.479	12734
928.585	12483
928.69	12559
928.796	12570
928.901	12407
929.007	12372
929.112	12338
929.218	12433
929.323	12395
929.428	12357
929.533	12365
929.638	12319
929.743	12258
929.848	12190
929.953	12266
930.058	12133
930.163	11935
930.267	12007
930.372	12152
930.477	11958
930.581	12254
930.685	12019
930.79	11832
930.894	11840
930.998	11748
931.103	11923
931.207	11627
931.311	11581
931.415	11471
931.519	11280
931.623	11162
