Data from test_V78500241_276.txt Node
Date: Fri Mar 25 15:43:42 CST 2022
User: usil
Spectrometer: V785-0024
Trigger mode: 0
Integration Time (sec): 4.000000E-1
Scans to average: 1
Nonlinearity correction enabled: false
Boxcar width: 0
Storing dark spectrum: false
XAxis mode: Wavelengths
Number of Pixels in Spectrum: 1024
>>>>>Begin Spectral Data<<<<<
801.071	29596
801.214	29760
801.356	29493
801.499	29547
801.641	29315
801.783	29379
801.926	29360
802.068	29235
802.211	29292
802.353	29109
802.496	29018
802.638	28961
802.78	28957
802.923	28862
803.065	28934
803.208	28946
803.35	28995
803.492	29151
803.635	29208
803.777	29121
803.919	29223
804.061	29452
804.204	29204
804.346	29216
804.488	29159
804.63	29044
804.773	28892
804.915	29071
805.057	29311
805.199	29189
805.341	29326
805.483	29303
805.626	29117
805.768	29056
805.91	29132
806.052	29273
806.194	29204
806.336	29330
806.478	29235
806.62	29375
806.762	29459
806.904	29687
807.046	29802
807.188	29551
807.33	29680
807.472	29790
807.614	29604
807.756	29684
807.898	29444
808.04	29280
808.182	29516
808.324	29391
808.465	29558
808.607	29661
808.749	29901
808.891	30041
809.033	30018
809.174	29855
809.316	29916
809.458	29897
809.6	29718
809.741	29878
809.883	30030
810.025	30140
810.166	30129
810.308	30133
810.45	30163
810.591	30190
810.733	29996
810.875	29916
811.016	29653
811.158	29798
811.299	30072
811.441	30144
811.582	29977
811.724	29817
811.865	29813
812.007	29843
812.148	29885
812.29	29851
812.431	30064
812.573	30228
812.714	30334
812.855	30315
812.997	30410
813.138	30646
813.279	30509
813.421	30258
813.562	30315
813.703	30209
813.845	30171
813.986	29684
814.127	29630
814.268	29596
814.41	29577
814.551	29516
814.692	29649
814.833	29391
814.974	29356
815.115	29452
815.256	29223
815.397	29322
815.539	29296
815.68	29280
815.821	29193
815.962	29364
816.103	29227
816.244	29200
816.385	28961
816.526	29029
816.666	28892
816.807	28786
816.948	28786
817.089	28866
817.23	28710
817.371	28675
817.512	28809
817.653	28797
817.793	28656
817.934	28850
818.075	28683
818.216	28687
818.356	28706
818.497	28611
818.638	28462
818.778	28325
818.919	28478
819.06	28432
819.2	28615
819.341	28618
819.481	28790
819.622	28862
819.762	29090
819.903	28869
820.043	28953
820.184	28831
820.324	28885
820.465	28965
820.605	28828
820.746	28793
820.886	28607
821.026	28706
821.167	28691
821.307	28782
821.447	28733
821.588	28504
821.728	28329
821.868	28238
822.008	28196
822.149	28048
822.289	28124
822.429	27823
822.569	27827
822.709	27854
822.849	27515
822.99	27564
823.13	27557
823.27	27568
823.41	27408
823.55	27287
823.69	27492
823.83	27504
823.97	27313
824.11	27192
824.25	27237
824.389	27310
824.529	27306
824.669	27291
824.809	27359
824.949	27230
825.089	27272
825.228	27252
825.368	27157
825.508	27039
825.648	27089
825.787	27135
825.927	27104
826.067	27001
826.206	26975
826.346	27218
826.485	27279
826.625	27096
826.765	27165
826.904	27100
827.044	26800
827.183	26861
827.323	26800
827.462	26849
827.601	26762
827.741	26735
827.88	26765
828.02	26522
828.159	26606
828.298	26663
828.437	26826
828.577	26750
828.716	26864
828.855	26746
828.994	26507
829.134	26533
829.273	26507
829.412	26457
829.551	26366
829.69	26518
829.829	26332
829.968	26488
830.107	26446
830.246	26461
830.385	26446
830.524	26336
830.663	26210
830.802	26100
830.941	26054
831.08	25902
831.219	26065
831.357	26088
831.496	26282
831.635	25928
831.774	25932
831.913	25864
832.051	25689
832.19	25791
832.329	25734
832.467	25552
832.606	25590
832.744	25670
832.883	25655
833.022	25620
833.16	25628
833.299	25685
833.437	25632
833.576	25833
833.714	25628
833.852	25723
833.991	25708
834.129	25811
834.267	25837
834.406	25613
834.544	25708
834.682	25529
834.821	25677
834.959	25807
835.097	25586
835.235	25639
835.373	25533
835.511	25559
835.65	25537
835.788	25426
835.926	25289
836.064	25316
836.202	25297
836.34	25571
836.478	25563
836.615	25228
836.753	25514
836.891	25586
837.029	25430
837.167	25312
837.305	25403
837.443	25365
837.58	25244
837.718	25270
837.856	25232
837.993	25221
838.131	25251
838.269	25061
838.406	25156
838.544	25103
838.681	24878
838.819	24954
838.956	24764
839.094	24681
839.231	24741
839.369	24848
839.506	25171
839.643	24909
839.781	24650
839.918	24589
840.055	24604
840.193	24673
840.33	24418
840.467	24772
840.604	24616
840.742	24875
840.879	24407
841.016	24612
841.153	24517
841.29	24612
841.427	24547
841.564	24547
841.701	24551
841.838	24540
841.975	24544
842.112	24460
842.249	24376
842.385	24342
842.522	24494
842.659	24338
842.796	24388
842.933	24300
843.069	24311
843.206	24296
843.343	24304
843.479	24247
843.616	24350
843.752	24068
843.889	24117
844.025	24049
844.162	24060
844.298	24148
844.435	24049
844.571	23920
844.708	24057
844.844	24178
844.98	24178
845.117	24068
845.253	24079
845.389	23882
845.525	23889
845.661	23737
845.798	23703
845.934	23714
846.07	23699
846.206	23680
846.342	23745
846.478	23805
846.614	23604
846.75	23395
846.886	23535
847.022	23372
847.158	23497
847.294	23349
847.429	23311
847.565	23406
847.701	23619
847.837	23216
847.972	23128
848.108	23318
848.244	23288
848.379	22987
848.515	22911
848.65	23022
848.786	23044
848.921	22915
849.057	23098
849.192	23067
849.328	22991
849.463	23048
849.598	22881
849.734	22942
849.869	22824
850.004	22694
850.14	22839
850.275	22774
850.41	22603
850.545	22645
850.68	22641
850.815	22736
850.95	22656
851.085	22869
851.22	22797
851.355	22679
851.49	22660
851.625	22687
851.76	22805
851.895	22641
852.03	22725
852.165	22687
852.299	22740
852.434	22797
852.569	22725
852.703	22725
852.838	22748
852.973	22911
853.107	22694
853.242	22786
853.376	22497
853.511	22443
853.645	22611
853.78	22500
853.914	22527
854.048	22519
854.183	22478
854.317	22573
854.451	22687
854.585	22516
854.72	22607
854.854	22519
854.988	22466
855.122	22447
855.256	22344
855.39	22394
855.524	22592
855.658	22550
855.792	22455
855.926	22569
856.06	22615
856.194	22527
856.327	22443
856.461	22462
856.595	22535
856.729	22459
856.862	22599
856.996	22382
857.13	22577
857.263	22637
857.397	22451
857.53	22611
857.664	22557
857.797	22542
857.931	22702
858.064	22527
858.197	22478
858.331	22402
858.464	22402
858.597	22306
858.731	22405
858.864	22325
858.997	22382
859.13	22451
859.263	22436
859.396	22535
859.529	22497
859.662	22310
859.795	22360
859.928	22519
860.061	22584
860.194	22630
860.327	22470
860.46	22512
860.592	22656
860.725	22637
860.858	22523
860.99	22489
861.123	22474
861.256	22192
861.388	22542
861.521	23064
861.653	22337
861.786	22390
861.918	22287
862.05	22382
862.183	22512
862.315	22478
862.447	22546
862.58	22413
862.712	22303
862.844	22177
862.976	22284
863.108	22223
863.24	22508
863.372	22112
863.504	22097
863.636	22139
863.768	22185
863.9	22177
864.032	21937
864.164	22124
864.296	22196
864.428	22169
864.559	22242
864.691	22112
864.823	22219
864.954	22116
865.086	22051
865.217	22116
865.349	21972
865.48	21975
865.612	22230
865.743	22268
865.875	21956
866.006	22010
866.137	21972
866.269	22013
866.4	21994
866.531	21949
866.662	21968
866.793	22051
866.924	21983
867.055	21964
867.186	21937
867.317	21899
867.448	21804
867.579	21918
867.71	21880
867.841	21911
867.972	21930
868.103	21869
868.233	22090
868.364	22040
868.495	22055
868.625	22124
868.756	22173
868.886	22181
869.017	22158
869.147	22257
869.278	22295
869.408	22192
869.539	22143
869.669	22352
869.799	22246
869.929	22188
870.06	22242
870.19	22474
870.32	22341
870.45	22356
870.58	22580
870.71	22672
870.84	22713
870.97	22538
871.1	22569
871.23	22656
871.36	22733
871.489	22653
871.619	22592
871.749	22725
871.879	22790
872.008	22828
872.138	22710
872.267	22702
872.397	22626
872.526	22615
872.656	22694
872.785	22687
872.915	22809
873.044	22774
873.173	22748
873.303	22900
873.432	22809
873.561	22828
873.69	22854
873.819	22873
873.948	22805
874.077	22885
874.206	22653
874.335	22793
874.464	22755
874.593	22961
874.722	22987
874.851	23022
874.979	22976
875.108	23044
875.237	22927
875.365	22866
875.494	22968
875.623	23102
875.751	22900
875.88	22889
876.008	23121
876.136	23277
876.265	23368
876.393	23516
876.521	23261
876.65	23554
876.778	23391
876.906	23334
877.034	23364
877.162	23277
877.29	23322
877.418	23318
877.546	23387
877.674	23368
877.802	23303
877.93	23414
878.058	23288
878.185	23246
878.313	23254
878.441	23429
878.568	23121
878.696	23349
878.824	23303
878.951	23387
879.079	23482
879.206	23592
879.333	23501
879.461	23376
879.588	23448
879.715	23589
879.842	23638
879.97	23501
880.097	23265
880.224	23098
880.351	23200
880.478	23193
880.605	23288
880.732	23147
880.859	23509
880.986	23151
881.112	23098
881.239	23117
881.366	22957
881.493	22881
881.619	22740
881.746	22911
881.872	22653
881.999	22721
882.125	22630
882.252	22786
882.378	22797
882.505	22862
882.631	22637
882.757	22390
882.883	22542
883.01	22356
883.136	22367
883.262	22261
883.388	22219
883.514	22478
883.64	22455
883.766	22424
883.892	22223
884.018	22215
884.143	22402
884.269	22413
884.395	22105
884.52	21983
884.646	22017
884.772	21918
884.897	21945
885.023	22021
885.148	22158
885.274	22188
885.399	22105
885.524	22086
885.65	22051
885.775	22059
885.9	21953
886.025	22173
886.15	22006
886.275	21930
886.4	21930
886.525	21998
886.65	21808
886.775	21907
886.9	22067
887.025	22143
887.149	22044
887.274	21770
887.399	21793
887.523	21709
887.648	21698
887.773	21755
887.897	21774
888.021	21793
888.146	21785
888.27	21831
888.395	21857
888.519	21816
888.643	21808
888.767	21743
888.891	21671
889.015	21583
889.139	21614
889.263	21477
889.387	21644
889.511	21823
889.635	21675
889.759	21515
889.883	21599
890.006	21519
890.13	21606
890.254	21481
890.377	21519
890.501	21405
890.624	21203
890.748	21386
890.871	21222
890.995	21077
891.118	21024
891.241	21062
891.364	21123
891.488	21157
891.611	21074
891.734	21051
891.857	21043
891.98	21062
892.103	21104
892.226	21119
892.349	21116
892.471	20910
892.594	21085
892.717	21001
892.839	20929
892.962	21036
893.085	21093
893.207	21058
893.33	20895
893.452	20960
893.575	20986
893.697	20948
893.819	21169
893.941	21131
894.064	21108
894.186	20990
894.308	20979
894.43	21051
894.552	21089
894.674	21017
894.796	20895
894.918	20891
895.04	20876
895.161	21081
895.283	21066
895.405	21009
895.526	20963
895.648	20906
895.769	20929
895.891	20952
896.012	21013
896.134	21001
896.255	21028
896.376	20937
896.498	21017
896.619	20963
896.74	21020
896.861	21036
896.982	21473
897.103	21488
897.224	21310
897.345	21176
897.466	21100
897.587	21211
897.708	21317
897.828	21218
897.949	21230
898.07	21001
898.19	21081
898.311	21108
898.431	21032
898.552	21222
898.672	21154
898.792	21329
898.913	21081
899.033	21036
899.153	20971
899.273	20842
899.393	20857
899.513	20914
899.633	20853
899.753	20845
899.873	20883
899.993	20902
900.113	20838
900.232	20796
900.352	20716
900.472	20712
900.591	20644
900.711	20541
900.83	20724
900.95	20659
901.069	20785
901.189	20594
901.308	20275
901.427	20119
901.546	20214
901.665	20267
901.784	20339
901.904	20164
902.023	19928
902.141	19738
902.26	19769
902.379	19685
902.498	19628
902.617	19719
902.735	19666
902.854	19681
902.973	19567
903.091	19453
903.21	19282
903.328	19354
903.446	19308
903.565	19179
903.683	19217
903.801	19103
903.919	19187
904.038	19027
904.156	18924
904.274	19004
904.392	18905
904.51	18863
904.627	18901
904.745	19034
904.863	18890
904.981	18760
905.098	18585
905.216	18509
905.334	18627
905.451	18635
905.569	18525
905.686	18623
905.803	18528
905.921	18388
906.038	18388
906.155	18334
906.272	18357
906.389	18254
906.506	18022
906.623	18235
906.74	18140
906.857	17969
906.974	18057
907.091	18148
907.208	18121
907.324	17984
907.441	18007
907.557	17802
907.674	17729
907.79	17676
907.907	17710
908.023	17783
908.139	17786
908.256	17718
908.372	17726
908.488	17615
908.604	17379
908.72	17406
908.836	17509
908.952	17516
909.068	17566
909.184	17592
909.3	17421
909.415	17433
909.531	17440
909.647	17189
909.762	17193
909.878	17185
909.993	17132
910.108	17086
910.224	17052
910.339	17151
910.454	16987
910.57	16889
910.685	16904
910.8	17208
910.915	17102
911.03	16930
911.145	16767
911.259	16748
911.374	16725
911.489	16694
911.604	16596
911.718	16508
911.833	16523
911.947	16421
912.062	16291
912.176	16455
912.291	16470
912.405	16470
912.519	16637
912.633	16611
912.748	16478
912.862	16356
912.976	16314
913.09	16112
913.204	16272
913.318	16246
913.431	16413
913.545	16363
913.659	16443
913.772	16188
913.886	16139
914	16074
914.113	16162
914.226	16192
914.34	16017
914.453	16044
914.566	16105
914.68	15945
914.793	15873
914.906	15739
915.019	15622
915.132	15553
915.245	15698
915.358	15667
915.47	15633
915.583	15648
915.696	15739
915.809	15751
915.921	15781
916.034	15713
916.146	15549
916.259	15549
916.371	15564
916.483	15492
916.595	15557
916.708	15507
916.82	15462
916.932	15435
917.044	15370
917.156	15496
917.268	15329
917.38	15260
917.491	15241
917.603	15378
917.715	15408
917.826	15279
917.938	15119
918.049	15066
918.161	15180
918.272	15344
918.384	15332
918.495	15192
918.606	15028
918.717	14990
918.828	15112
918.939	15020
919.05	14925
919.161	15024
919.272	14800
919.383	14842
919.494	15055
919.604	15233
919.715	14967
919.826	14925
919.936	15001
920.047	15097
920.157	14948
920.267	15173
920.378	14975
920.488	14979
920.598	15176
920.708	15199
920.818	15051
920.928	15070
921.038	15313
921.148	15165
921.258	14895
921.368	14785
921.477	14727
921.587	14727
921.697	14617
921.806	14621
921.916	14545
922.025	14328
922.134	14278
922.244	14282
922.353	14267
922.462	14138
922.571	14096
922.68	13921
922.789	13955
922.898	13936
923.007	13860
923.116	13978
923.224	13936
923.333	13898
923.442	13757
923.55	13723
923.659	13845
923.767	13814
923.876	13715
923.984	13742
924.092	13563
924.201	13594
924.309	13616
924.417	13632
924.525	13578
924.633	13544
924.741	14469
924.849	13331
924.956	13472
925.064	13320
925.172	13255
925.279	13263
925.387	13320
925.494	13373
925.602	13369
925.709	13343
925.816	13236
925.924	13358
926.031	13285
926.138	13190
926.245	13282
926.352	13183
926.459	13282
926.566	13335
926.673	13240
926.779	13042
926.886	12970
926.993	12894
927.099	12909
927.206	12863
927.312	12878
927.419	12909
927.525	12852
927.631	12837
927.737	12806
927.843	12745
927.95	12574
928.056	12684
928.162	12760
928.267	12734
928.373	13331
928.479	12757
928.585	12555
928.69	12540
928.796	12700
928.901	12551
929.007	12395
929.112	12635
929.218	12502
929.323	12486
929.428	12323
929.533	12498
929.638	12209
929.743	12395
929.848	12292
929.953	12319
930.058	12205
930.163	12049
930.267	12106
930.372	12216
930.477	12026
930.581	12197
930.685	12083
930.79	12007
930.894	11935
930.998	11901
931.103	12026
931.207	11726
931.311	11646
931.415	11478
931.519	11246
931.623	11277
