Data from test_V78500241_3747.txt Node
Date: Fri Mar 25 16:07:45 CST 2022
User: usil
Spectrometer: V785-0024
Trigger mode: 0
Integration Time (sec): 4.000000E-1
Scans to average: 1
Nonlinearity correction enabled: false
Boxcar width: 0
Storing dark spectrum: false
XAxis mode: Wavelengths
Number of Pixels in Spectrum: 1024
>>>>>Begin Spectral Data<<<<<
801.071	28185
801.214	28063
801.356	27945
801.499	27800
801.641	27720
801.783	27785
801.926	27698
802.068	27698
802.211	27759
802.353	27530
802.496	27583
802.638	27397
802.78	27416
802.923	27329
803.065	27226
803.208	27363
803.35	27435
803.492	27644
803.635	27595
803.777	27424
803.919	27660
804.061	27979
804.204	27739
804.346	27637
804.488	27519
804.63	27583
804.773	27504
804.915	27595
805.057	27614
805.199	27625
805.341	27793
805.483	27789
805.626	27682
805.768	27641
805.91	27755
806.052	27766
806.194	27778
806.336	27922
806.478	27713
806.62	27800
806.762	27789
806.904	28002
807.046	28299
807.188	28188
807.33	28181
807.472	28215
807.614	28135
807.756	28185
807.898	28013
808.04	27861
808.182	28078
808.324	28082
808.465	28120
808.607	28181
808.749	28451
808.891	28519
809.033	28485
809.174	28569
809.316	28371
809.458	28409
809.6	28447
809.741	28493
809.883	28535
810.025	28725
810.166	28713
810.308	28778
810.45	28622
810.591	28603
810.733	28485
810.875	28447
811.016	28417
811.158	28497
811.299	28542
811.441	28736
811.582	28645
811.724	28413
811.865	28466
812.007	28466
812.148	28329
812.29	28489
812.431	28672
812.573	28877
812.714	28850
812.855	28980
812.997	29090
813.138	29239
813.279	29048
813.421	28816
813.562	28873
813.703	28744
813.845	28561
813.986	28409
814.127	28143
814.268	28070
814.41	28276
814.551	28284
814.692	28097
814.833	28105
814.974	27987
815.115	28044
815.256	27903
815.397	27945
815.539	27964
815.68	27899
815.821	27930
815.962	27930
816.103	27903
816.244	27751
816.385	27690
816.526	27648
816.666	27401
816.807	27481
816.948	27447
817.089	27397
817.23	27667
817.371	27393
817.512	27370
817.653	27378
817.793	27119
817.934	27511
818.075	27306
818.216	27386
818.356	27378
818.497	27272
818.638	27146
818.778	27013
818.919	27169
819.06	27195
819.2	27272
819.341	27458
819.481	27386
819.622	27663
819.762	27652
819.903	27823
820.043	27675
820.184	27591
820.324	27564
820.465	27671
820.605	27515
820.746	27595
820.886	27382
821.026	27397
821.167	27287
821.307	27511
821.447	27450
821.588	27344
821.728	27165
821.868	27154
822.008	26838
822.149	26750
822.289	26883
822.429	26716
822.569	26598
822.709	26590
822.849	26450
822.99	26389
823.13	26556
823.27	26476
823.41	26218
823.55	26168
823.69	26267
823.83	26271
823.97	26149
824.11	26027
824.25	25925
824.389	25936
824.529	26164
824.669	25974
824.809	26225
824.949	26153
825.089	26054
825.228	26115
825.368	25852
825.508	25890
825.648	26035
825.787	25978
825.927	25993
826.067	25780
826.206	25944
826.346	26005
826.485	25993
826.625	25921
826.765	26092
826.904	25986
827.044	25753
827.183	25567
827.323	25689
827.462	25776
827.601	25651
827.741	25662
827.88	25635
828.02	25483
828.159	25571
828.298	25518
828.437	25643
828.577	25495
828.716	25750
828.855	25575
828.994	25445
829.134	25301
829.273	25441
829.412	25407
829.551	25209
829.69	25350
829.829	25320
829.968	25419
830.107	25449
830.246	25327
830.385	25320
830.524	25251
830.663	25244
830.802	24954
830.941	24928
831.08	24943
831.219	25061
831.357	25046
831.496	25050
831.635	24913
831.774	24954
831.913	24913
832.051	24810
832.19	24764
832.329	24681
832.467	24563
832.606	24532
832.744	24475
832.883	24555
833.022	24536
833.16	24589
833.299	24612
833.437	24517
833.576	24639
833.714	24593
833.852	24707
833.991	24700
834.129	24783
834.267	24821
834.406	24642
834.544	24623
834.682	24696
834.821	24639
834.959	24798
835.097	24494
835.235	24757
835.373	24559
835.511	24642
835.65	24585
835.788	24513
835.926	24426
836.064	24254
836.202	24300
836.34	24467
836.478	24684
836.615	24448
836.753	24544
836.891	24566
837.029	24627
837.167	24475
837.305	24528
837.443	24350
837.58	24243
837.718	24388
837.856	24194
837.993	24292
838.131	24338
838.269	24174
838.406	24174
838.544	24007
838.681	23939
838.819	23920
838.956	23828
839.094	23733
839.231	23729
839.369	23969
839.506	24270
839.643	23950
839.781	23878
839.918	23691
840.055	23794
840.193	23748
840.33	23710
840.467	23783
840.604	23703
840.742	23893
840.879	23600
841.016	23627
841.153	23615
841.29	23824
841.427	23687
841.564	23703
841.701	23646
841.838	23699
841.975	23551
842.112	23558
842.249	23467
842.385	23326
842.522	23722
842.659	23642
842.796	23452
842.933	23543
843.069	23421
843.206	23398
843.343	23596
843.479	23493
843.616	23410
843.752	23277
843.889	23200
844.025	23337
844.162	23197
844.298	23296
844.435	23181
844.571	23178
844.708	23185
844.844	23265
844.98	23414
845.117	23337
845.253	23258
845.389	23136
845.525	23258
845.661	23117
845.798	23044
845.934	23014
846.07	23018
846.206	23003
846.342	23037
846.478	22957
846.614	22809
846.75	22615
846.886	22611
847.022	22858
847.158	22694
847.294	22637
847.429	22702
847.565	22698
847.701	23022
847.837	22455
847.972	22379
848.108	22382
848.244	22516
848.379	22257
848.515	22291
848.65	22360
848.786	22211
848.921	22421
849.057	22379
849.192	22322
849.328	22352
849.463	22276
849.598	22257
849.734	22287
849.869	22185
850.004	22070
850.14	21983
850.275	22055
850.41	21865
850.545	22013
850.68	21937
850.815	22086
850.95	22128
851.085	22314
851.22	22219
851.355	22025
851.49	21987
851.625	22025
851.76	21964
851.895	21964
852.03	21979
852.165	21998
852.299	22070
852.434	22265
852.569	22112
852.703	22105
852.838	22207
852.973	22169
853.107	22124
853.242	22074
853.376	21819
853.511	21629
853.645	21766
853.78	21979
853.914	21899
854.048	21831
854.183	21960
854.317	21994
854.451	22029
854.585	21827
854.72	21941
854.854	21869
854.988	21816
855.122	21945
855.256	21759
855.39	21922
855.524	21941
855.658	22025
855.792	21903
855.926	21930
856.06	21994
856.194	21941
856.327	21857
856.461	21774
856.595	21797
856.729	21770
856.862	22032
856.996	21922
857.13	22021
857.263	22013
857.397	21903
857.53	21922
857.664	21922
857.797	21854
857.931	22051
858.064	21968
858.197	21975
858.331	21918
858.464	21831
858.597	21755
858.731	21861
858.864	21800
858.997	21854
859.13	21915
859.263	21865
859.396	21994
859.529	21926
859.662	21812
859.795	21876
859.928	21907
860.061	22124
860.194	22101
860.327	21983
860.46	21918
860.592	22017
860.725	22010
860.858	21930
860.99	21899
861.123	21755
861.256	21739
861.388	21903
861.521	22611
861.653	21732
861.786	21762
861.918	21739
862.05	21785
862.183	21774
862.315	21797
862.447	21762
862.58	21739
862.712	21625
862.844	21599
862.976	21759
863.108	21663
863.24	22082
863.372	21701
863.504	21553
863.636	21591
863.768	21682
863.9	21496
864.032	21408
864.164	21606
864.296	21663
864.428	21724
864.559	21637
864.691	21519
864.823	21663
864.954	21603
865.086	21606
865.217	21511
865.349	21428
865.48	21431
865.612	21492
865.743	21564
865.875	21481
866.006	21435
866.137	21526
866.269	21542
866.4	21603
866.531	21378
866.662	21275
866.793	21397
866.924	21370
867.055	21462
867.186	21374
867.317	21462
867.448	21416
867.579	21363
867.71	21340
867.841	21420
867.972	21424
868.103	21378
868.233	21397
868.364	21538
868.495	21614
868.625	21606
868.756	21873
868.886	21591
869.017	21663
869.147	21781
869.278	21785
869.408	21663
869.539	21660
869.669	21785
869.799	21713
869.929	21857
870.06	21762
870.19	21937
870.32	21941
870.45	22082
870.58	22002
870.71	22097
870.84	22124
870.97	22036
871.1	22044
871.23	22257
871.36	22287
871.489	22211
871.619	22226
871.749	22344
871.879	22424
872.008	22382
872.138	22409
872.267	22261
872.397	22124
872.526	22169
872.656	22116
872.785	22143
872.915	22356
873.044	22379
873.173	22280
873.303	22405
873.432	22348
873.561	22443
873.69	22284
873.819	22375
873.948	22386
874.077	22249
874.206	22154
874.335	22287
874.464	22405
874.593	22474
874.722	22367
874.851	22485
874.979	22607
875.108	22527
875.237	22428
875.365	22348
875.494	22493
875.623	22500
875.751	22459
875.88	22557
876.008	22565
876.136	22561
876.265	22820
876.393	23086
876.521	22942
876.65	22911
876.778	22980
876.906	22820
877.034	22866
877.162	22854
877.29	22713
877.418	22839
877.546	22911
877.674	22850
877.802	22854
877.93	22774
878.058	22721
878.185	22630
878.313	22828
878.441	22892
878.568	22729
878.696	22759
878.824	22866
878.951	22877
879.079	22942
879.206	23197
879.333	22946
879.461	22835
879.588	22991
879.715	22991
879.842	23003
879.97	22850
880.097	22645
880.224	22782
880.351	22721
880.478	22653
880.605	22668
880.732	22645
880.859	22908
880.986	22778
881.112	22687
881.239	22618
881.366	22440
881.493	22303
881.619	22253
881.746	22363
881.872	22299
881.999	22272
882.125	22226
882.252	22181
882.378	22139
882.505	22196
882.631	22169
882.757	21934
882.883	22070
883.01	21823
883.136	21869
883.262	21835
883.388	21747
883.514	21842
883.64	21907
883.766	21797
883.892	21724
884.018	21675
884.143	21922
884.269	21892
884.395	21663
884.52	21614
884.646	21656
884.772	21557
884.897	21473
885.023	21561
885.148	21633
885.274	21739
885.399	21633
885.524	21538
885.65	21736
885.775	21583
885.9	21481
886.025	21747
886.15	21568
886.275	21534
886.4	21504
886.525	21530
886.65	21458
886.775	21450
886.9	21641
887.025	21766
887.149	21625
887.274	21367
887.399	21329
887.523	21310
887.648	21279
887.773	21211
887.897	21374
888.021	21420
888.146	21367
888.27	21405
888.395	21447
888.519	21367
888.643	21420
888.767	21351
888.891	21298
889.015	21123
889.139	21211
889.263	21131
889.387	21359
889.511	21294
889.635	21218
889.759	21089
889.883	21119
890.006	21192
890.13	21096
890.254	21028
890.377	20925
890.501	20880
890.624	20792
890.748	20929
890.871	20785
890.995	20762
891.118	20651
891.241	20655
891.364	20640
891.488	20788
891.611	20674
891.734	20667
891.857	20727
891.98	20826
892.103	20739
892.226	20712
892.349	20667
892.471	20469
892.594	20602
892.717	20617
892.839	20537
892.962	20575
893.085	20590
893.207	20575
893.33	20545
893.452	20484
893.575	20560
893.697	20648
893.819	20667
893.941	20785
894.064	20743
894.186	20575
894.308	20587
894.43	20697
894.552	20686
894.674	20674
894.796	20560
894.918	20556
895.04	20594
895.161	20667
895.283	20552
895.405	20560
895.526	20518
895.648	20488
895.769	20549
895.891	20655
896.012	20579
896.134	20621
896.255	20545
896.376	20457
896.498	20568
896.619	20579
896.74	20670
896.861	20602
896.982	20861
897.103	21055
897.224	20792
897.345	20823
897.466	20781
897.587	20857
897.708	20830
897.828	20750
897.949	20788
898.07	20587
898.19	20792
898.311	20899
898.431	20758
898.552	20750
898.672	20792
898.792	20876
898.913	20804
899.033	20545
899.153	20644
899.273	20560
899.393	20492
899.513	20568
899.633	20575
899.753	20415
899.873	20351
899.993	20522
900.113	20351
900.232	20499
900.352	20438
900.472	20427
900.591	20362
900.711	20233
900.83	20324
900.95	20427
901.069	20446
901.189	20168
901.308	19997
901.427	19852
901.546	19906
901.665	19799
901.784	19978
901.904	19727
902.023	19594
902.141	19552
902.26	19430
902.379	19605
902.498	19472
902.617	19350
902.735	19403
902.854	19301
902.973	19331
903.091	19031
903.21	19114
903.328	19088
903.446	18905
903.565	18901
903.683	18875
903.801	18722
903.919	18791
904.038	18795
904.156	18642
904.274	18696
904.392	18544
904.51	18570
904.627	18540
904.745	18612
904.863	18677
904.981	18357
905.098	18330
905.216	18247
905.334	18273
905.451	18407
905.569	18292
905.686	18262
905.803	18270
905.921	18087
906.038	18155
906.155	18030
906.272	17904
906.389	17999
906.506	17764
906.623	17775
906.74	17695
906.857	17653
906.974	17726
907.091	17855
907.208	17904
907.324	17863
907.441	17718
907.557	17471
907.674	17474
907.79	17497
907.907	17421
908.023	17474
908.139	17684
908.256	17383
908.372	17406
908.488	17471
908.604	17254
908.72	17124
908.836	17250
908.952	17128
909.068	17193
909.184	17353
909.3	17318
909.415	17277
909.531	17071
909.647	17029
909.762	16991
909.878	16911
909.993	16980
910.108	16885
910.224	16816
910.339	16930
910.454	16866
910.57	16816
910.685	16645
910.8	17045
910.915	16919
911.03	16645
911.145	16550
911.259	16618
911.374	16535
911.489	16489
911.604	16375
911.718	16284
911.833	16169
911.947	16128
912.062	16048
912.176	16253
912.291	16405
912.405	16382
912.519	16447
912.633	16398
912.748	16200
912.862	16306
912.976	16135
913.09	15964
913.204	16006
913.318	16135
913.431	16188
913.545	16196
913.659	16188
913.772	16029
913.886	15953
914	15991
914.113	15975
914.226	15975
914.34	16044
914.453	15804
914.566	15926
914.68	15827
914.793	15747
914.906	15542
915.019	15450
915.132	15481
915.245	15564
915.358	15568
915.47	15553
915.583	15389
915.696	15549
915.809	15641
915.921	15568
916.034	15401
916.146	15298
916.259	15374
916.371	15507
916.483	15439
916.595	15264
916.708	15344
916.82	15268
916.932	15252
917.044	15291
917.156	15173
917.268	15142
917.38	15138
917.491	15085
917.603	15127
917.715	15226
917.826	15093
917.938	15028
918.049	14872
918.161	15074
918.272	15165
918.384	15131
918.495	15081
918.606	14899
918.717	14796
918.828	14815
918.939	14910
919.05	14705
919.161	14864
919.272	14530
919.383	14644
919.494	14895
919.604	15195
919.715	14811
919.826	14830
919.936	14857
920.047	14925
920.157	14765
920.267	15013
920.378	14758
920.488	14777
920.598	15036
920.708	15142
920.818	15062
920.928	14963
921.038	15119
921.148	14944
921.258	14716
921.368	14678
921.477	14511
921.587	14610
921.697	14393
921.806	14575
921.916	14415
922.025	14339
922.134	14195
922.244	14111
922.353	14221
922.462	14058
922.571	13989
922.68	13906
922.789	13887
922.898	13928
923.007	13734
923.116	13837
923.224	13822
923.333	13799
923.442	13780
923.55	13620
923.659	13655
923.767	13811
923.876	13609
923.984	13704
924.092	13605
924.201	13590
924.309	13586
924.417	13510
924.525	13537
924.633	13510
924.741	14427
924.849	13198
924.956	13392
925.064	13343
925.172	13152
925.279	13263
925.387	13282
925.494	13270
925.602	13381
925.709	13301
925.816	13103
925.924	13225
926.031	13236
926.138	13179
926.245	13228
926.352	13095
926.459	13244
926.566	13156
926.673	13118
926.779	13012
926.886	12985
926.993	12856
927.099	12894
927.206	12768
927.312	12745
927.419	12806
927.525	12738
927.631	12749
927.737	12734
927.843	12669
927.95	12494
928.056	12627
928.162	12635
928.267	12601
928.373	13244
928.479	12726
928.585	12418
928.69	12536
928.796	12585
928.901	12502
929.007	12228
929.112	12483
929.218	12388
929.323	12369
929.428	12327
929.533	12384
929.638	12159
929.743	12289
929.848	12266
929.953	12353
930.058	12155
930.163	12045
930.267	12106
930.372	12144
930.477	11912
930.581	12178
930.685	12015
930.79	11946
930.894	11946
930.998	11889
931.103	12011
931.207	11608
931.311	11528
931.415	11436
931.519	11273
931.623	11303
