Data from test_V78500241_3016.txt Node
Date: Fri Mar 25 16:02:41 CST 2022
User: usil
Spectrometer: V785-0024
Trigger mode: 0
Integration Time (sec): 4.000000E-1
Scans to average: 1
Nonlinearity correction enabled: false
Boxcar width: 0
Storing dark spectrum: false
XAxis mode: Wavelengths
Number of Pixels in Spectrum: 1024
>>>>>Begin Spectral Data<<<<<
801.071	28447
801.214	28356
801.356	28291
801.499	28185
801.641	28025
801.783	28010
801.926	28063
802.068	27998
802.211	27968
802.353	27907
802.496	27732
802.638	27774
802.78	27587
802.923	27656
803.065	27599
803.208	27633
803.35	27660
803.492	27797
803.635	27876
803.777	27789
803.919	27941
804.061	28257
804.204	27892
804.346	27827
804.488	27846
804.63	27949
804.773	27831
804.915	27972
805.057	28131
805.199	28006
805.341	27987
805.483	28169
805.626	27975
805.768	27998
805.91	28006
806.052	28112
806.194	27918
806.336	28154
806.478	28109
806.62	28162
806.762	28196
806.904	28432
807.046	28637
807.188	28542
807.33	28569
807.472	28748
807.614	28432
807.756	28569
807.898	28436
808.04	28177
808.182	28295
808.324	28394
808.465	28318
808.607	28474
808.749	28694
808.891	28869
809.033	29056
809.174	28748
809.316	28713
809.458	28740
809.6	28740
809.741	28919
809.883	28892
810.025	29086
810.166	29102
810.308	29033
810.45	28930
810.591	28908
810.733	28843
810.875	28694
811.016	28755
811.158	28733
811.299	28885
811.441	29003
811.582	28892
811.724	28717
811.865	28835
812.007	28793
812.148	28790
812.29	28694
812.431	28911
812.573	28999
812.714	29250
812.855	29360
812.997	29356
813.138	29604
813.279	29452
813.421	29318
813.562	29220
813.703	29079
813.845	29060
813.986	28611
814.127	28577
814.268	28413
814.41	28561
814.551	28421
814.692	28478
814.833	28417
814.974	28382
815.115	28428
815.256	28363
815.397	28337
815.539	28249
815.68	28261
815.821	28261
815.962	28386
816.103	28299
816.244	28242
816.385	28006
816.526	27953
816.666	27892
816.807	27789
816.948	27880
817.089	27914
817.23	27770
817.371	27766
817.512	27793
817.653	27599
817.793	27789
817.934	27701
818.075	27603
818.216	27838
818.356	27793
818.497	27576
818.638	27420
818.778	27637
818.919	27568
819.06	27610
819.2	27785
819.341	27793
819.481	27671
819.622	27998
819.762	28177
819.903	28025
820.043	27903
820.184	27850
820.324	27934
820.465	27953
820.605	28040
820.746	27926
820.886	27857
821.026	27835
821.167	28055
821.307	27968
821.447	27713
821.588	27789
821.728	27648
821.868	27466
822.008	27211
822.149	27310
822.289	27275
822.429	26918
822.569	27123
822.709	26948
822.849	26758
822.99	26735
823.13	26750
823.27	26838
823.41	26625
823.55	26533
823.69	26461
823.83	26765
823.97	26594
824.11	26476
824.25	26305
824.389	26492
824.529	26556
824.669	26370
824.809	26533
824.949	26453
825.089	26476
825.228	26453
825.368	26153
825.508	26206
825.648	26298
825.787	26221
825.927	26313
826.067	26252
826.206	26317
826.346	26347
826.485	26336
826.625	26214
826.765	26362
826.904	26240
827.044	26126
827.183	25936
827.323	26100
827.462	26039
827.601	25932
827.741	25982
827.88	26027
828.02	25837
828.159	25944
828.298	26130
828.437	26039
828.577	25932
828.716	26073
828.855	25959
828.994	25871
829.134	25761
829.273	25769
829.412	25681
829.551	25693
829.69	25662
829.829	25750
829.968	25696
830.107	25765
830.246	25658
830.385	25693
830.524	25559
830.663	25544
830.802	25426
830.941	25209
831.08	25156
831.219	25430
831.357	25350
831.496	25571
831.635	25320
831.774	25209
831.913	25129
832.051	25080
832.19	25160
832.329	25103
832.467	24837
832.606	25084
832.744	24947
832.883	24916
833.022	24798
833.16	25099
833.299	25000
833.437	25012
833.576	25095
833.714	25145
833.852	25126
833.991	25251
834.129	25168
834.267	25107
834.406	25076
834.544	25107
834.682	25076
834.821	24989
834.959	25133
835.097	25050
835.235	25099
835.373	25069
835.511	24958
835.65	24913
835.788	24920
835.926	24791
836.064	24787
836.202	24745
836.34	24749
836.478	24947
836.615	24829
836.753	24814
836.891	24939
837.029	24783
837.167	24802
837.305	24711
837.443	24806
837.58	24665
837.718	24760
837.856	24681
837.993	24658
838.131	24620
838.269	24551
838.406	24593
838.544	24574
838.681	24357
838.819	24346
838.956	24178
839.094	24121
839.231	24216
839.369	24350
839.506	24536
839.643	24467
839.781	24174
839.918	24186
840.055	24038
840.193	24140
840.33	24049
840.467	24232
840.604	24319
840.742	24182
840.879	23935
841.016	23939
841.153	24030
841.29	24197
841.427	23961
841.564	24117
841.701	24136
841.838	24026
841.975	23977
842.112	24057
842.249	23843
842.385	23821
842.522	24041
842.659	23935
842.796	23733
842.933	23870
843.069	23821
843.206	23832
843.343	23863
843.479	23828
843.616	23794
843.752	23684
843.889	23726
844.025	23760
844.162	23554
844.298	23737
844.435	23570
844.571	23486
844.708	23653
844.844	23752
844.98	23767
845.117	23718
845.253	23627
845.389	23524
845.525	23531
845.661	23512
845.798	23318
845.934	23376
846.07	23189
846.206	23334
846.342	23444
846.478	23356
846.614	23124
846.75	22862
846.886	23048
847.022	23174
847.158	23025
847.294	23044
847.429	23075
847.565	22995
847.701	23345
847.837	22847
847.972	22801
848.108	22953
848.244	22801
848.379	22744
848.515	22649
848.65	22599
848.786	22691
848.921	22706
849.057	22710
849.192	22664
849.328	22736
849.463	22611
849.598	22603
849.734	22531
849.869	22535
850.004	22516
850.14	22474
850.275	22485
850.41	22352
850.545	22242
850.68	22432
850.815	22447
850.95	22481
851.085	22660
851.22	22432
851.355	22409
851.49	22436
851.625	22455
851.76	22394
851.895	22325
852.03	22234
852.165	22455
852.299	22481
852.434	22432
852.569	22417
852.703	22432
852.838	22485
852.973	22607
853.107	22512
853.242	22306
853.376	22280
853.511	22131
853.645	22173
853.78	22375
853.914	22299
854.048	22249
854.183	22185
854.317	22295
854.451	22470
854.585	22230
854.72	22234
854.854	22390
854.988	22166
855.122	22375
855.256	22116
855.39	22135
855.524	22382
855.658	22333
855.792	22318
855.926	22257
856.06	22348
856.194	22303
856.327	22150
856.461	22257
856.595	22230
856.729	22253
856.862	22318
856.996	22242
857.13	22455
857.263	22375
857.397	22379
857.53	22226
857.664	22299
857.797	22348
857.931	22200
858.064	22226
858.197	22360
858.331	22215
858.464	22287
858.597	22051
858.731	22253
858.864	22154
858.997	22192
859.13	22207
859.263	22390
859.396	22284
859.529	22166
859.662	22299
859.795	22090
859.928	22230
860.061	22398
860.194	22386
860.327	22226
860.46	22306
860.592	22379
860.725	22272
860.858	22382
860.99	22238
861.123	22135
861.256	22192
861.388	22211
861.521	23048
861.653	22090
861.786	22116
861.918	21998
862.05	22192
862.183	22166
862.315	22211
862.447	22394
862.58	22048
862.712	21949
862.844	21918
862.976	21972
863.108	22078
863.24	22333
863.372	21953
863.504	21991
863.636	21964
863.768	21968
863.9	21949
864.032	21915
864.164	21876
864.296	22036
864.428	22044
864.559	22040
864.691	21991
864.823	21949
864.954	21888
865.086	21941
865.217	21911
865.349	21720
865.48	21857
865.612	21907
865.743	22032
865.875	21835
866.006	21899
866.137	21816
866.269	21888
866.4	21895
866.531	21675
866.662	21759
866.793	21743
866.924	21797
867.055	21774
867.186	21835
867.317	21743
867.448	21679
867.579	21698
867.71	21614
867.841	21709
867.972	21690
868.103	21816
868.233	21816
868.364	21789
868.495	21774
868.625	21964
868.756	22017
868.886	21918
869.017	21930
869.147	22006
869.278	22044
869.408	22093
869.539	22051
869.669	22101
869.799	22086
869.929	22211
870.06	22120
870.19	22352
870.32	22421
870.45	22363
870.58	22329
870.71	22367
870.84	22519
870.97	22481
871.1	22371
871.23	22565
871.36	22733
871.489	22531
871.619	22561
871.749	22615
871.879	22622
872.008	22782
872.138	22774
872.267	22580
872.397	22424
872.526	22565
872.656	22493
872.785	22557
872.915	22561
873.044	22664
873.173	22607
873.303	22634
873.432	22691
873.561	22748
873.69	22687
873.819	22637
873.948	22691
874.077	22752
874.206	22630
874.335	22504
874.464	22634
874.593	22957
874.722	22645
874.851	22869
874.979	22908
875.108	22843
875.237	22759
875.365	22713
875.494	22805
875.623	22915
875.751	22908
875.88	22934
876.008	22892
876.136	23086
876.265	23246
876.393	23330
876.521	23334
876.65	23417
876.778	23223
876.906	23162
877.034	23250
877.162	23299
877.29	23155
877.418	23075
877.546	23181
877.674	23143
877.802	23185
877.93	23147
878.058	23174
878.185	22987
878.313	23121
878.441	23193
878.568	23060
878.696	23090
878.824	23128
878.951	23303
879.079	23341
879.206	23414
879.333	23303
879.461	23159
879.588	23273
879.715	23444
879.842	23455
879.97	23288
880.097	23117
880.224	22984
880.351	23143
880.478	23037
880.605	23060
880.732	22976
880.859	23265
880.986	23052
881.112	23079
881.239	22835
881.366	22706
881.493	22752
881.619	22470
881.746	22592
881.872	22546
881.999	22683
882.125	22474
882.252	22557
882.378	22557
882.505	22694
882.631	22432
882.757	22356
882.883	22318
883.01	22185
883.136	22181
883.262	22147
883.388	22051
883.514	22306
883.64	22249
883.766	22242
883.892	22010
884.018	22074
884.143	22207
884.269	22226
884.395	21979
884.52	21865
884.646	21941
884.772	21903
884.897	21770
885.023	21934
885.148	22017
885.274	22082
885.399	22051
885.524	21869
885.65	21968
885.775	21964
885.9	21831
886.025	21964
886.15	21956
886.275	21880
886.4	21762
886.525	21823
886.65	21854
886.775	21762
886.9	22074
887.025	22074
887.149	21869
887.274	21679
887.399	21698
887.523	21580
887.648	21538
887.773	21603
887.897	21671
888.021	21831
888.146	21603
888.27	21804
888.395	21701
888.519	21614
888.643	21618
888.767	21724
888.891	21603
889.015	21428
889.139	21564
889.263	21397
889.387	21557
889.511	21728
889.635	21530
889.759	21340
889.883	21485
890.006	21428
890.13	21633
890.254	21355
890.377	21382
890.501	21283
890.624	21199
890.748	21268
890.871	21165
890.995	20979
891.118	20899
891.241	21013
891.364	20952
891.488	21112
891.611	21051
891.734	21051
891.857	21070
891.98	21047
892.103	21108
892.226	21036
892.349	20887
892.471	20777
892.594	20906
892.717	20929
892.839	20800
892.962	20967
893.085	20918
893.207	20785
893.33	20830
893.452	20815
893.575	20937
893.697	20914
893.819	21051
893.941	21131
894.064	21123
894.186	20826
894.308	20796
894.43	20925
894.552	20986
894.674	21005
894.796	20667
894.918	20765
895.04	20830
895.161	20994
895.283	20994
895.405	20891
895.526	20906
895.648	20811
895.769	20792
895.891	20921
896.012	20864
896.134	20864
896.255	20986
896.376	20823
896.498	20849
896.619	20849
896.74	20773
896.861	20910
896.982	21157
897.103	21218
897.224	21123
897.345	21005
897.466	21047
897.587	21062
897.708	21192
897.828	21176
897.949	20906
898.07	20849
898.19	21020
898.311	21096
898.431	21047
898.552	21146
898.672	21218
898.792	21108
898.913	21150
899.033	20967
899.153	20891
899.273	20899
899.393	20921
899.513	20762
899.633	20849
899.753	20826
899.873	20746
899.993	20842
900.113	20758
900.232	20792
900.352	20663
900.472	20590
900.591	20590
900.711	20613
900.83	20514
900.95	20621
901.069	20686
901.189	20385
901.308	20233
901.427	20214
901.546	20221
901.665	20096
901.784	20069
901.904	19925
902.023	19841
902.141	19700
902.26	19784
902.379	19746
902.498	19605
902.617	19529
902.735	19643
902.854	19552
902.973	19552
903.091	19331
903.21	19297
903.328	19411
903.446	19194
903.565	19069
903.683	19069
903.801	19019
903.919	19050
904.038	19050
904.156	18939
904.274	18825
904.392	18897
904.51	18863
904.627	18856
904.745	18871
904.863	18985
904.981	18730
905.098	18608
905.216	18650
905.334	18627
905.451	18722
905.569	18494
905.686	18616
905.803	18658
905.921	18308
906.038	18517
906.155	18410
906.272	18262
906.389	18399
906.506	18205
906.623	18072
906.74	17999
906.857	17893
906.974	18003
907.091	18133
907.208	18254
907.324	18152
907.441	17912
907.557	17805
907.674	17733
907.79	17767
907.907	17767
908.023	17783
908.139	17851
908.256	17646
908.372	17600
908.488	17733
908.604	17611
908.72	17474
908.836	17543
908.952	17455
909.068	17573
909.184	17653
909.3	17596
909.415	17551
909.531	17524
909.647	17376
909.762	17356
909.878	17353
909.993	17337
910.108	17200
910.224	17174
910.339	17208
910.454	17121
910.57	17079
910.685	16942
910.8	17277
910.915	17140
911.03	16976
911.145	16862
911.259	16812
911.374	16942
911.489	16782
911.604	16691
911.718	16497
911.833	16531
911.947	16554
912.062	16390
912.176	16535
912.291	16611
912.405	16542
912.519	16736
912.633	16698
912.748	16493
912.862	16527
912.976	16440
913.09	16207
913.204	16306
913.318	16363
913.431	16466
913.545	16405
913.659	16462
913.772	16390
913.886	16188
914	16162
914.113	16162
914.226	16238
914.34	16226
914.453	16116
914.566	16204
914.68	16071
914.793	16036
914.906	15797
915.019	15804
915.132	15724
915.245	15698
915.358	15781
915.47	15781
915.583	15808
915.696	15709
915.809	15766
915.921	15880
916.034	15751
916.146	15675
916.259	15557
916.371	15743
916.483	15648
916.595	15526
916.708	15595
916.82	15553
916.932	15553
917.044	15504
917.156	15545
917.268	15431
917.38	15317
917.491	15367
917.603	15424
917.715	15431
917.826	15473
917.938	15279
918.049	15264
918.161	15359
918.272	15450
918.384	15393
918.495	15363
918.606	15112
918.717	15039
918.828	15203
918.939	15173
919.05	14960
919.161	15146
919.272	14826
919.383	15001
919.494	15157
919.604	15313
919.715	15093
919.826	14990
919.936	15077
920.047	15116
920.157	15081
920.267	15237
920.378	15157
920.488	15039
920.598	15112
920.708	15408
920.818	15260
920.928	15165
921.038	15367
921.148	15355
921.258	15108
921.368	14861
921.477	14853
921.587	14765
921.697	14640
921.806	14826
921.916	14625
922.025	14454
922.134	14431
922.244	14290
922.353	14408
922.462	14320
922.571	14244
922.68	14058
922.789	14073
922.898	14100
923.007	14111
923.116	14081
923.224	14027
923.333	14088
923.442	13928
923.55	13868
923.659	13833
923.767	13944
923.876	13788
923.984	14001
924.092	13719
924.201	13852
924.309	13700
924.417	13807
924.525	13769
924.633	13712
924.741	14526
924.849	13594
924.956	13636
925.064	13571
925.172	13312
925.279	13453
925.387	13514
925.494	13529
925.602	13601
925.709	13529
925.816	13449
925.924	13426
926.031	13567
926.138	13350
926.245	13449
926.352	13301
926.459	13400
926.566	13441
926.673	13320
926.779	13175
926.886	13190
926.993	13088
927.099	12993
927.206	12996
927.312	13015
927.419	12962
927.525	12970
927.631	13061
927.737	12977
927.843	12894
927.95	12833
928.056	12878
928.162	12848
928.267	12897
928.373	13422
928.479	12863
928.585	12658
928.69	12734
928.796	12795
928.901	12741
929.007	12612
929.112	12646
929.218	12665
929.323	12578
929.428	12506
929.533	12715
929.638	12494
929.743	12509
929.848	12585
929.953	12483
930.058	12380
930.163	12239
930.267	12186
930.372	12391
930.477	12136
930.581	12418
930.685	12266
930.79	12125
930.894	12079
930.998	12034
931.103	12232
931.207	11927
931.311	11745
931.415	11752
931.519	11486
931.623	11402
