Data from test_V78500241_614.txt Node
Date: Fri Mar 25 15:46:03 CST 2022
User: usil
Spectrometer: V785-0024
Trigger mode: 0
Integration Time (sec): 4.000000E-1
Scans to average: 1
Nonlinearity correction enabled: false
Boxcar width: 0
Storing dark spectrum: false
XAxis mode: Wavelengths
Number of Pixels in Spectrum: 1024
>>>>>Begin Spectral Data<<<<<
801.071	27998
801.214	27907
801.356	27644
801.499	27682
801.641	27496
801.783	27576
801.926	27481
802.068	27477
802.211	27412
802.353	27447
802.496	27245
802.638	27260
802.78	27252
802.923	27058
803.065	27192
803.208	27112
803.35	27173
803.492	27264
803.635	27260
803.777	27135
803.919	27226
804.061	27644
804.204	27374
804.346	27203
804.488	27313
804.63	27348
804.773	27176
804.915	27351
805.057	27435
805.199	27310
805.341	27466
805.483	27481
805.626	27424
805.768	27466
805.91	27408
806.052	27268
806.194	27416
806.336	27591
806.478	27431
806.62	27401
806.762	27591
806.904	27762
807.046	28097
807.188	27747
807.33	27770
807.472	27857
807.614	27808
807.756	27884
807.898	27732
808.04	27595
808.182	27526
808.324	27759
808.465	27728
808.607	27793
808.749	27964
808.891	28048
809.033	28246
809.174	28131
809.316	28158
809.458	28017
809.6	28169
809.741	28166
809.883	28249
810.025	28287
810.166	28226
810.308	28379
810.45	28219
810.591	28398
810.733	28093
810.875	28067
811.016	27922
811.158	27918
811.299	28181
811.441	28226
811.582	28158
811.724	28147
811.865	28063
812.007	27956
812.148	28051
812.29	28226
812.431	28352
812.573	28394
812.714	28451
812.855	28596
812.997	28759
813.138	28733
813.279	28706
813.421	28596
813.562	28634
813.703	28329
813.845	28401
813.986	28070
814.127	27987
814.268	27762
814.41	27804
814.551	27682
814.692	27739
814.833	27656
814.974	27797
815.115	27755
815.256	27492
815.397	27667
815.539	27568
815.68	27538
815.821	27469
815.962	27644
816.103	27576
816.244	27374
816.385	27325
816.526	27287
816.666	27165
816.807	26902
816.948	27066
817.089	27260
817.23	27089
817.371	27009
817.512	27020
817.653	27020
817.793	26994
817.934	27036
818.075	26990
818.216	26979
818.356	26948
818.497	26921
818.638	26796
818.778	26902
818.919	26861
819.06	27085
819.2	26906
819.341	26975
819.481	27020
819.622	27245
819.762	27431
819.903	27249
820.043	27077
820.184	27192
820.324	27214
820.465	27256
820.605	27203
820.746	27089
820.886	27169
821.026	27188
821.167	27161
821.307	27100
821.447	27123
821.588	26933
821.728	26895
821.868	26762
822.008	26682
822.149	26526
822.289	26518
822.429	26282
822.569	26225
822.709	26122
822.849	25997
822.99	26027
823.13	26027
823.27	25947
823.41	25974
823.55	25826
823.69	25788
823.83	25704
823.97	25696
824.11	25632
824.25	25704
824.389	25731
824.529	25856
824.669	25628
824.809	25947
824.949	25594
825.089	25807
825.228	25738
825.368	25464
825.508	25624
825.648	25655
825.787	25613
825.927	25559
826.067	25476
826.206	25552
826.346	25556
826.485	25434
826.625	25575
826.765	25689
826.904	25597
827.044	25362
827.183	25327
827.323	25198
827.462	25285
827.601	25308
827.741	25339
827.88	25316
828.02	25198
828.159	25263
828.298	25320
828.437	25331
828.577	25285
828.716	25388
828.855	25114
828.994	25015
829.134	24897
829.273	24947
829.412	25080
829.551	24837
829.69	24882
829.829	24977
829.968	24951
830.107	24909
830.246	24932
830.385	24954
830.524	24867
830.663	24901
830.802	24654
830.941	24513
831.08	24574
831.219	24658
831.357	24715
831.496	24795
831.635	24582
831.774	24445
831.913	24418
832.051	24323
832.19	24429
832.329	24311
832.467	24361
832.606	24262
832.744	24152
832.883	24296
833.022	24129
833.16	24266
833.299	24273
833.437	24258
833.576	24346
833.714	24338
833.852	24273
833.991	24281
834.129	24350
834.267	24330
834.406	24182
834.544	24304
834.682	24338
834.821	24228
834.959	24376
835.097	24258
835.235	24311
835.373	24296
835.511	24296
835.65	24117
835.788	24102
835.926	24041
836.064	24015
836.202	23802
836.34	24079
836.478	24167
836.615	24140
836.753	24064
836.891	24182
837.029	24064
837.167	23977
837.305	23859
837.443	24053
837.58	23897
837.718	23988
837.856	23984
837.993	23961
838.131	23961
838.269	23824
838.406	23821
838.544	23775
838.681	23436
838.819	23608
838.956	23383
839.094	23478
839.231	23448
839.369	23718
839.506	23783
839.643	23805
839.781	23452
839.918	23326
840.055	23395
840.193	23372
840.33	23258
840.467	23387
840.604	23379
840.742	23630
840.879	23181
841.016	23220
841.153	23174
841.29	23387
841.427	23303
841.564	23326
841.701	23311
841.838	23227
841.975	23315
842.112	23269
842.249	23254
842.385	23136
842.522	23493
842.659	23132
842.796	23109
842.933	23044
843.069	22999
843.206	22980
843.343	23200
843.479	23079
843.616	23064
843.752	22854
843.889	22972
844.025	22961
844.162	22793
844.298	22820
844.435	22942
844.571	22843
844.708	22782
844.844	22957
844.98	23067
845.117	22869
845.253	22683
845.389	22694
845.525	22710
845.661	22809
845.798	22622
845.934	22626
846.07	22641
846.206	22607
846.342	22801
846.478	22603
846.614	22398
846.75	22428
846.886	22314
847.022	22367
847.158	22318
847.294	22337
847.429	22371
847.565	22131
847.701	22519
847.837	22067
847.972	22166
848.108	22196
848.244	22093
848.379	21842
848.515	21861
848.65	21880
848.786	21915
848.921	21964
849.057	21975
849.192	21934
849.328	21975
849.463	21922
849.598	21819
849.734	21846
849.869	21789
850.004	21675
850.14	21736
850.275	21606
850.41	21625
850.545	21675
850.68	21504
850.815	21747
850.95	21591
851.085	21930
851.22	21743
851.355	21656
851.49	21713
851.625	21633
851.76	21705
851.895	21637
852.03	21538
852.165	21648
852.299	21660
852.434	21698
852.569	21774
852.703	21709
852.838	21663
852.973	21850
853.107	21880
853.242	21656
853.376	21534
853.511	21401
853.645	21481
853.78	21686
853.914	21561
854.048	21389
854.183	21507
854.317	21507
854.451	21686
854.585	21447
854.72	21488
854.854	21614
854.988	21340
855.122	21416
855.256	21374
855.39	21576
855.524	21622
855.658	21595
855.792	21625
855.926	21458
856.06	21545
856.194	21561
856.327	21367
856.461	21511
856.595	21492
856.729	21473
856.862	21572
856.996	21488
857.13	21580
857.263	21606
857.397	21618
857.53	21435
857.664	21553
857.797	21568
857.931	21633
858.064	21538
858.197	21595
858.331	21500
858.464	21462
858.597	21370
858.731	21424
858.864	21431
858.997	21447
859.13	21538
859.263	21542
859.396	21583
859.529	21511
859.662	21580
859.795	21431
859.928	21500
860.061	21633
860.194	21648
860.327	21469
860.46	21481
860.592	21538
860.725	21713
860.858	21542
860.99	21530
861.123	21435
861.256	21336
861.388	21553
861.521	22017
861.653	21473
861.786	21268
861.918	21230
862.05	21313
862.183	21389
862.315	21264
862.447	21431
862.58	21416
862.712	21173
862.844	21180
862.976	21340
863.108	21233
863.24	21545
863.372	21176
863.504	21302
863.636	21237
863.768	21252
863.9	21123
864.032	21116
864.164	21161
864.296	21081
864.428	21245
864.559	21329
864.691	21275
864.823	21275
864.954	21169
865.086	21199
865.217	21112
865.349	20963
865.48	21096
865.612	21169
865.743	21291
865.875	21169
866.006	21207
866.137	21165
866.269	21062
866.4	21013
866.531	20952
866.662	20979
866.793	21017
866.924	21036
867.055	21077
867.186	21028
867.317	20956
867.448	21013
867.579	20982
867.71	21001
867.841	20960
867.972	21085
868.103	20986
868.233	21119
868.364	21055
868.495	21058
868.625	21188
868.756	21355
868.886	21245
869.017	21332
869.147	21386
869.278	21336
869.408	21256
869.539	21169
869.669	21363
869.799	21405
869.929	21393
870.06	21306
870.19	21530
870.32	21610
870.45	21637
870.58	21545
870.71	21728
870.84	21679
870.97	21660
871.1	21789
871.23	21774
871.36	21915
871.489	21804
871.619	21781
871.749	21797
871.879	21857
872.008	21979
872.138	21880
872.267	21842
872.397	21686
872.526	21633
872.656	21633
872.785	21599
872.915	21876
873.044	21994
873.173	21835
873.303	21949
873.432	21934
873.561	21987
873.69	21876
873.819	21880
873.948	21991
874.077	21857
874.206	21911
874.335	22013
874.464	22051
874.593	22154
874.722	22070
874.851	22074
874.979	22036
875.108	22150
875.237	22036
875.365	21979
875.494	22044
875.623	22150
875.751	22067
875.88	22059
876.008	22226
876.136	22310
876.265	22481
876.393	22630
876.521	22546
876.65	22573
876.778	22611
876.906	22443
877.034	22447
877.162	22470
877.29	22360
877.418	22390
877.546	22409
877.674	22443
877.802	22451
877.93	22417
878.058	22367
878.185	22272
878.313	22409
878.441	22363
878.568	22196
878.696	22474
878.824	22485
878.951	22508
879.079	22702
879.206	22786
879.333	22622
879.461	22504
879.588	22508
879.715	22588
879.842	22801
879.97	22630
880.097	22306
880.224	22333
880.351	22344
880.478	22310
880.605	22173
880.732	22257
880.859	22447
880.986	22363
881.112	22253
881.239	22162
881.366	22025
881.493	22006
881.619	21911
881.746	21903
881.872	21873
881.999	21838
882.125	21762
882.252	21736
882.378	21827
882.505	21972
882.631	21709
882.757	21625
882.883	21641
883.01	21530
883.136	21492
883.262	21351
883.388	21344
883.514	21549
883.64	21526
883.766	21412
883.892	21351
884.018	21332
884.143	21515
884.269	21515
884.395	21294
884.52	21043
884.646	21272
884.772	21188
884.897	21043
885.023	21138
885.148	21317
885.274	21344
885.399	21226
885.524	21222
885.65	21222
885.775	21256
885.9	21230
886.025	21211
886.15	21199
886.275	21135
886.4	21157
886.525	21188
886.65	21119
886.775	21108
886.9	21302
887.025	21310
887.149	21207
887.274	21138
887.399	20880
887.523	21005
887.648	20906
887.773	20834
887.897	21028
888.021	20994
888.146	20918
888.27	20967
888.395	21074
888.519	20963
888.643	20944
888.767	20967
888.891	20853
889.015	20750
889.139	20735
889.263	20762
889.387	20773
889.511	20960
889.635	20899
889.759	20708
889.883	20819
890.006	20781
890.13	20849
890.254	20602
890.377	20678
890.501	20480
890.624	20450
890.748	20583
890.871	20301
890.995	20339
891.118	20252
891.241	20343
891.364	20358
891.488	20358
891.611	20252
891.734	20396
891.857	20385
891.98	20339
892.103	20298
892.226	20309
892.349	20389
892.471	19955
892.594	20214
892.717	20324
892.839	20145
892.962	20233
893.085	20336
893.207	20237
893.33	20248
893.452	20103
893.575	20267
893.697	20282
893.819	20434
893.941	20370
894.064	20305
894.186	20126
894.308	20206
894.43	20408
894.552	20324
894.674	20282
894.796	20065
894.918	20240
895.04	20263
895.161	20313
895.283	20320
895.405	20142
895.526	20183
895.648	20187
895.769	20282
895.891	20244
896.012	20370
896.134	20366
896.255	20271
896.376	20218
896.498	20248
896.619	20225
896.74	20298
896.861	20134
896.982	20541
897.103	20636
897.224	20564
897.345	20305
897.466	20419
897.587	20587
897.708	20488
897.828	20415
897.949	20317
898.07	20282
898.19	20347
898.311	20621
898.431	20385
898.552	20419
898.672	20549
898.792	20507
898.913	20454
899.033	20355
899.153	20332
899.273	20096
899.393	20142
899.513	20256
899.633	20214
899.753	20187
899.873	20122
899.993	20305
900.113	20122
900.232	20122
900.352	20024
900.472	19947
900.591	19890
900.711	19993
900.83	19974
900.95	20020
901.069	20012
901.189	19913
901.308	19609
901.427	19609
901.546	19575
901.665	19491
901.784	19609
901.904	19396
902.023	19324
902.141	19179
902.26	19099
902.379	19133
902.498	19076
902.617	19107
902.735	19099
902.854	19042
902.973	18901
903.091	18814
903.21	18715
903.328	18681
903.446	18661
903.565	18578
903.683	18506
903.801	18384
903.919	18391
904.038	18464
904.156	18292
904.274	18456
904.392	18220
904.51	18273
904.627	18281
904.745	18342
904.863	18346
904.981	18152
905.098	18022
905.216	18045
905.334	17999
905.451	17980
905.569	17946
905.686	17973
905.803	17817
905.921	17764
906.038	17920
906.155	17741
906.272	17764
906.389	17684
906.506	17528
906.623	17478
906.74	17505
906.857	17410
906.974	17520
907.091	17505
907.208	17570
907.324	17611
907.441	17398
907.557	17277
907.674	17200
907.79	17140
907.907	17174
908.023	17170
908.139	17223
908.256	17174
908.372	17113
908.488	17121
908.604	16934
908.72	16824
908.836	16892
908.952	16843
909.068	16965
909.184	17010
909.3	16889
909.415	16889
909.531	16835
909.647	16752
909.762	16611
909.878	16611
909.993	16641
910.108	16694
910.224	16725
910.339	16660
910.454	16516
910.57	16470
910.685	16375
910.8	16786
910.915	16599
911.03	16538
911.145	16341
911.259	16147
911.374	16280
911.489	16124
911.604	16093
911.718	15964
911.833	16002
911.947	15907
912.062	15793
912.176	15972
912.291	16048
912.405	15975
912.519	16261
912.633	16169
912.748	15960
912.862	15895
912.976	15846
913.09	15717
913.204	15755
913.318	15720
913.431	15903
913.545	15785
913.659	15876
913.772	15648
913.886	15591
914	15618
914.113	15728
914.226	15633
914.34	15671
914.453	15466
914.566	15614
914.68	15538
914.793	15462
914.906	15230
915.019	15188
915.132	15146
915.245	15085
915.358	15230
915.47	15169
915.583	15188
915.696	15146
915.809	15237
915.921	15351
916.034	15173
916.146	15043
916.259	15062
916.371	15154
916.483	15138
916.595	15028
916.708	15005
916.82	15062
916.932	14937
917.044	14899
917.156	14891
917.268	14895
917.38	14804
917.491	14792
917.603	14838
917.715	15017
917.826	14944
917.938	14838
918.049	14781
918.161	14857
918.272	14853
918.384	14971
918.495	14826
918.606	14640
918.717	14511
918.828	14697
918.939	14674
919.05	14495
919.161	14518
919.272	14499
919.383	14469
919.494	14674
919.604	14773
919.715	14579
919.826	14606
919.936	14579
920.047	14598
920.157	14651
920.267	14754
920.378	14621
920.488	14640
920.598	14758
920.708	14906
920.818	14743
920.928	14743
921.038	14883
921.148	14838
921.258	14507
921.368	14476
921.477	14351
921.587	14267
921.697	14244
921.806	14301
921.916	14259
922.025	14130
922.134	13967
922.244	13909
922.353	13913
922.462	13928
922.571	13841
922.68	13738
922.789	13567
922.898	13616
923.007	13586
923.116	13575
923.224	13655
923.333	13544
923.442	13556
923.55	13480
923.659	13400
923.767	13563
923.876	13335
923.984	13476
924.092	13327
924.201	13419
924.309	13365
924.417	13350
924.525	13259
924.633	13289
924.741	14225
924.849	13057
924.956	13297
925.064	13088
925.172	12928
925.279	13038
925.387	13008
925.494	13065
925.602	13126
925.709	13160
925.816	12935
925.924	12954
926.031	13069
926.138	12916
926.245	12989
926.352	12894
926.459	13050
926.566	13046
926.673	12867
926.779	12753
926.886	12837
926.993	12635
927.099	12646
927.206	12593
927.312	12597
927.419	12654
927.525	12639
927.631	12620
927.737	12536
927.843	12494
927.95	12342
928.056	12380
928.162	12441
928.267	12475
928.373	13015
928.479	12563
928.585	12289
928.69	12388
928.796	12452
928.901	12251
929.007	12121
929.112	12422
929.218	12281
929.323	12133
929.428	12239
929.533	12289
929.638	12030
929.743	12083
929.848	12171
929.953	12076
930.058	11973
930.163	11885
930.267	11901
930.372	12045
930.477	11805
930.581	11973
930.685	11874
930.79	11726
930.894	11676
930.998	11680
931.103	11794
931.207	11478
931.311	11402
931.415	11318
931.519	11147
931.623	11090
