Data from test_V78500241_2133.txt Node
Date: Fri Mar 25 15:56:34 CST 2022
User: usil
Spectrometer: V785-0024
Trigger mode: 0
Integration Time (sec): 4.000000E-1
Scans to average: 1
Nonlinearity correction enabled: false
Boxcar width: 0
Storing dark spectrum: false
XAxis mode: Wavelengths
Number of Pixels in Spectrum: 1024
>>>>>Begin Spectral Data<<<<<
801.071	28934
801.214	28915
801.356	28828
801.499	28771
801.641	28618
801.783	28577
801.926	28740
802.068	28577
802.211	28611
802.353	28481
802.496	28371
802.638	28432
802.78	28185
802.923	28196
803.065	28314
803.208	28310
803.35	28223
803.492	28428
803.635	28557
803.777	28421
803.919	28451
804.061	28797
804.204	28694
804.346	28489
804.488	28512
804.63	28470
804.773	28436
804.915	28763
805.057	28736
805.199	28443
805.341	28618
805.483	28812
805.626	28866
805.768	28611
805.91	28717
806.052	28763
806.194	28740
806.336	28987
806.478	28778
806.62	28729
806.762	28946
806.904	29071
807.046	29220
807.188	29132
807.33	29162
807.472	29360
807.614	29197
807.756	29189
807.898	29003
808.04	28965
808.182	29117
808.324	29109
808.465	29181
808.607	29322
808.749	29345
808.891	29535
809.033	29471
809.174	29463
809.316	29417
809.458	29406
809.6	29265
809.741	29638
809.883	29505
810.025	29748
810.166	29733
810.308	29642
810.45	29497
810.591	29634
810.733	29429
810.875	29429
811.016	29345
811.158	29337
811.299	29581
811.441	29566
811.582	29505
811.724	29547
811.865	29551
812.007	29387
812.148	29490
812.29	29531
812.431	29646
812.573	29707
812.714	29882
812.855	29958
812.997	30152
813.138	30186
813.279	30148
813.421	30064
813.562	30011
813.703	29798
813.845	29862
813.986	29417
814.127	29330
814.268	29018
814.41	29128
814.551	29273
814.692	29147
814.833	29143
814.974	29235
815.115	29121
815.256	29033
815.397	29014
815.539	29003
815.68	28824
815.821	28790
815.962	28987
816.103	28904
816.244	28820
816.385	28786
816.526	28660
816.666	28744
816.807	28577
816.948	28386
817.089	28538
817.23	28531
817.371	28428
817.512	28405
817.653	28440
817.793	28367
817.934	28500
818.075	28371
818.216	28611
818.356	28466
818.497	28310
818.638	28268
818.778	28177
818.919	28246
819.06	28371
819.2	28386
819.341	28474
819.481	28348
819.622	28725
819.762	28771
819.903	28816
820.043	28664
820.184	28622
820.324	28649
820.465	28668
820.605	28713
820.746	28596
820.886	28493
821.026	28455
821.167	28504
821.307	28565
821.447	28500
821.588	28405
821.728	28204
821.868	28166
822.008	27956
822.149	27895
822.289	27998
822.429	27755
822.569	27800
822.709	27724
822.849	27435
822.99	27595
823.13	27439
823.27	27564
823.41	27272
823.55	27161
823.69	27317
823.83	27260
823.97	27344
824.11	27100
824.25	27173
824.389	27123
824.529	27135
824.669	27081
824.809	27272
824.949	27275
825.089	27150
825.228	27283
825.368	26891
825.508	27055
825.648	27108
825.787	27161
825.927	27062
826.067	26994
826.206	27043
826.346	27024
826.485	26979
826.625	27203
826.765	27036
826.904	27047
827.044	26830
827.183	26796
827.323	26754
827.462	26750
827.601	26731
827.741	26796
827.88	26743
828.02	26594
828.159	26705
828.298	26777
828.437	26727
828.577	26670
828.716	26743
828.855	26545
828.994	26431
829.134	26362
829.273	26412
829.412	26332
829.551	26396
829.69	26488
829.829	26427
829.968	26484
830.107	26453
830.246	26351
830.385	26427
830.524	26221
830.663	26157
830.802	26195
830.941	26088
831.08	26050
831.219	25970
831.357	26122
831.496	26305
831.635	26077
831.774	25993
831.913	25982
832.051	25837
832.19	25860
832.329	25719
832.467	25685
832.606	25586
832.744	25582
832.883	25723
833.022	25693
833.16	25765
833.299	25791
833.437	25723
833.576	25784
833.714	25822
833.852	25772
833.991	25715
834.129	25837
834.267	25849
834.406	25883
834.544	25826
834.682	25647
834.821	25788
834.959	25894
835.097	25746
835.235	25814
835.373	25658
835.511	25818
835.65	25563
835.788	25658
835.926	25582
836.064	25343
836.202	25384
836.34	25556
836.478	25643
836.615	25620
836.753	25620
836.891	25605
837.029	25670
837.167	25632
837.305	25460
837.443	25438
837.58	25388
837.718	25464
837.856	25373
837.993	25407
838.131	25324
838.269	25331
838.406	25358
838.544	25297
838.681	25095
838.819	24985
838.956	24916
839.094	24863
839.231	24798
839.369	25088
839.506	25259
839.643	25137
839.781	24916
839.918	24776
840.055	24863
840.193	24829
840.33	24760
840.467	24753
840.604	24817
840.742	24989
840.879	24536
841.016	24654
841.153	24764
841.29	24924
841.427	24829
841.564	24810
841.701	24776
841.838	24658
841.975	24582
842.112	24669
842.249	24601
842.385	24532
842.522	24639
842.659	24608
842.796	24452
842.933	24566
843.069	24536
843.206	24551
843.343	24593
843.479	24559
843.616	24410
843.752	24178
843.889	24388
844.025	24407
844.162	24209
844.298	24418
844.435	24152
844.571	24266
844.708	24270
844.844	24502
844.98	24486
845.117	24437
845.253	24148
845.389	24114
845.525	24262
845.661	24079
845.798	23908
845.934	23961
846.07	24064
846.206	24030
846.342	24201
846.478	23980
846.614	23707
846.75	23638
846.886	23733
847.022	23847
847.158	23760
847.294	23764
847.429	23764
847.565	23577
847.701	23969
847.837	23539
847.972	23478
848.108	23539
848.244	23505
848.379	23368
848.515	23356
848.65	23277
848.786	23387
848.921	23334
849.057	23478
849.192	23383
849.328	23296
849.463	23391
849.598	23280
849.734	23334
849.869	23212
850.004	23124
850.14	23056
850.275	23124
850.41	23052
850.545	22980
850.68	23109
850.815	23075
850.95	23056
851.085	23246
851.22	23250
851.355	23098
851.49	23102
851.625	23025
851.76	23136
851.895	23041
852.03	22938
852.165	23060
852.299	23090
852.434	23098
852.569	23159
852.703	23071
852.838	23102
852.973	23128
853.107	23117
853.242	22995
853.376	22862
853.511	22797
853.645	22816
853.78	22972
853.914	22961
854.048	22946
854.183	22961
854.317	22892
854.451	23136
854.585	22965
854.72	22858
854.854	22927
854.988	22820
855.122	22980
855.256	22767
855.39	22835
855.524	23086
855.658	23022
855.792	22896
855.926	22957
856.06	23003
856.194	23052
856.327	22923
856.461	22763
856.595	22725
856.729	22934
856.862	22999
856.996	23025
857.13	23033
857.263	22946
857.397	22911
857.53	22835
857.664	22919
857.797	22930
857.931	23022
858.064	22843
858.197	22953
858.331	22984
858.464	22805
858.597	22835
858.731	22816
858.864	22915
858.997	22854
859.13	22831
859.263	23010
859.396	22957
859.529	22866
859.662	22972
859.795	22892
859.928	22900
860.061	22995
860.194	23090
860.327	22930
860.46	22919
860.592	23098
860.725	23010
860.858	22965
860.99	22984
861.123	22809
861.256	22972
861.388	22831
861.521	23566
861.653	22831
861.786	22668
861.918	22702
862.05	22725
862.183	22984
862.315	22862
862.447	22733
862.58	22843
862.712	22550
862.844	22436
862.976	22656
863.108	22656
863.24	23094
863.372	22535
863.504	22626
863.636	22649
863.768	22546
863.9	22637
864.032	22542
864.164	22546
864.296	22649
864.428	22668
864.559	22744
864.691	22664
864.823	22649
864.954	22607
865.086	22611
865.217	22645
865.349	22371
865.48	22398
865.612	22504
865.743	22554
865.875	22432
866.006	22493
866.137	22504
866.269	22504
866.4	22474
866.531	22474
866.662	22500
866.793	22424
866.924	22253
867.055	22322
867.186	22322
867.317	22291
867.448	22204
867.579	22421
867.71	22303
867.841	22295
867.972	22455
868.103	22341
868.233	22363
868.364	22455
868.495	22421
868.625	22603
868.756	22599
868.886	22611
869.017	22542
869.147	22801
869.278	22736
869.408	22744
869.539	22637
869.669	22847
869.799	22683
869.929	22774
870.06	22786
870.19	22938
870.32	22919
870.45	22957
870.58	22987
870.71	23227
870.84	23178
870.97	23018
871.1	22984
871.23	23136
871.36	23250
871.489	23132
871.619	23200
871.749	23220
871.879	23341
872.008	23356
872.138	23258
872.267	23277
872.397	23197
872.526	23048
872.656	23037
872.785	23102
872.915	23330
873.044	23421
873.173	23162
873.303	23242
873.432	23261
873.561	23318
873.69	23223
873.819	23208
873.948	23436
874.077	23216
874.206	23193
874.335	23212
874.464	23288
874.593	23474
874.722	23490
874.851	23566
874.979	23406
875.108	23608
875.237	23322
875.365	23341
875.494	23486
875.623	23524
875.751	23455
875.88	23493
876.008	23539
876.136	23676
876.265	23798
876.393	23942
876.521	23843
876.65	23920
876.778	23939
876.906	23870
877.034	23824
877.162	23748
877.29	23840
877.418	23813
877.546	23790
877.674	23691
877.802	23767
877.93	23790
878.058	23737
878.185	23668
878.313	23741
878.441	23798
878.568	23551
878.696	23726
878.824	23866
878.951	23893
879.079	23908
879.206	24098
879.333	23912
879.461	23813
879.588	23843
879.715	23908
879.842	23836
879.97	23904
880.097	23600
880.224	23657
880.351	23714
880.478	23608
880.605	23608
880.732	23623
880.859	23847
880.986	23653
881.112	23718
881.239	23551
881.366	23341
881.493	23178
881.619	23178
881.746	23178
881.872	23212
881.999	23147
882.125	23090
882.252	23296
882.378	23200
882.505	23200
882.631	22919
882.757	22752
882.883	22965
883.01	22809
883.136	22771
883.262	22744
883.388	22634
883.514	22793
883.64	22820
883.766	22786
883.892	22546
884.018	22694
884.143	22744
884.269	22828
884.395	22554
884.52	22462
884.646	22580
884.772	22356
884.897	22360
885.023	22508
885.148	22474
885.274	22649
885.399	22432
885.524	22402
885.65	22428
885.775	22508
885.9	22497
886.025	22675
886.15	22580
886.275	22474
886.4	22341
886.525	22424
886.65	22455
886.775	22375
886.9	22641
887.025	22592
887.149	22398
887.274	22284
887.399	22131
887.523	22215
887.648	22135
887.773	22116
887.897	22333
888.021	22276
888.146	22158
888.27	22306
888.395	22341
888.519	22200
888.643	22276
888.767	22295
888.891	22055
889.015	22021
889.139	22154
889.263	21876
889.387	22124
889.511	22116
889.635	22086
889.759	21994
889.883	21922
890.006	22044
890.13	21972
890.254	22032
890.377	21964
890.501	21812
890.624	21599
890.748	21785
890.871	21739
890.995	21553
891.118	21568
891.241	21614
891.364	21576
891.488	21568
891.611	21500
891.734	21633
891.857	21595
891.98	21530
892.103	21622
892.226	21488
892.349	21492
892.471	21378
892.594	21439
892.717	21545
892.839	21439
892.962	21443
893.085	21488
893.207	21367
893.33	21370
893.452	21317
893.575	21477
893.697	21477
893.819	21488
893.941	21534
894.064	21458
894.186	21386
894.308	21275
894.43	21515
894.552	21549
894.674	21469
894.796	21382
894.918	21332
895.04	21302
895.161	21507
895.283	21428
895.405	21340
895.526	21408
895.648	21416
895.769	21454
895.891	21294
896.012	21583
896.134	21561
896.255	21389
896.376	21424
896.498	21466
896.619	21428
896.74	21424
896.861	21279
896.982	21599
897.103	21888
897.224	21622
897.345	21568
897.466	21523
897.587	21587
897.708	21717
897.828	21732
897.949	21568
898.07	21450
898.19	21450
898.311	21595
898.431	21580
898.552	21656
898.672	21618
898.792	21781
898.913	21530
899.033	21477
899.153	21382
899.273	21306
899.393	21374
899.513	21412
899.633	21393
899.753	21317
899.873	21146
899.993	21443
900.113	21233
900.232	21245
900.352	21188
900.472	21165
900.591	21009
900.711	21058
900.83	20963
900.95	21180
901.069	21074
901.189	21032
901.308	20906
901.427	20682
901.546	20682
901.665	20804
901.784	20701
901.904	20419
902.023	20275
902.141	20195
902.26	20237
902.379	20164
902.498	20065
902.617	20073
902.735	20176
902.854	20157
902.973	20084
903.091	19833
903.21	19784
903.328	19769
903.446	19693
903.565	19616
903.683	19556
903.801	19487
903.919	19552
904.038	19563
904.156	19400
904.274	19403
904.392	19335
904.51	19495
904.627	19327
904.745	19396
904.863	19441
904.981	19027
905.098	19194
905.216	19053
905.334	19187
905.451	19000
905.569	18958
905.686	19065
905.803	18970
905.921	18859
906.038	18905
906.155	18863
906.272	18684
906.389	18711
906.506	18582
906.623	18547
906.74	18467
906.857	18327
906.974	18506
907.091	18566
907.208	18623
907.324	18563
907.441	18483
907.557	18357
907.674	18277
907.79	18083
907.907	18289
908.023	18266
908.139	18201
908.256	18201
908.372	18034
908.488	18079
908.604	18007
908.72	17859
908.836	17908
908.952	17973
909.068	18072
909.184	18041
909.3	17988
909.415	17958
909.531	17958
909.647	17672
909.762	17627
909.878	17634
909.993	17714
910.108	17623
910.224	17642
910.339	17615
910.454	17429
910.57	17455
910.685	17368
910.8	17543
910.915	17528
911.03	17505
911.145	17220
911.259	17292
911.374	17181
911.489	17132
911.604	17048
911.718	16961
911.833	16972
911.947	16930
912.062	16812
912.176	16991
912.291	16965
912.405	16930
912.519	17124
912.633	17166
912.748	16953
912.862	16984
912.976	16759
913.09	16653
913.204	16672
913.318	16801
913.431	16927
913.545	16881
913.659	16915
913.772	16725
913.886	16626
914	16531
914.113	16691
914.226	16577
914.34	16634
914.453	16394
914.566	16656
914.68	16402
914.793	16382
914.906	16265
915.019	16135
915.132	16051
915.245	16090
915.358	16169
915.47	16143
915.583	16086
915.696	16116
915.809	16238
915.921	16268
916.034	16162
916.146	16010
916.259	16025
916.371	16090
916.483	15956
916.595	15926
916.708	15998
916.82	15827
916.932	15842
917.044	15842
917.156	15850
917.268	15728
917.38	15781
917.491	15732
917.603	15804
917.715	15899
917.826	15869
917.938	15671
918.049	15614
918.161	15614
918.272	15831
918.384	15770
918.495	15698
918.606	15450
918.717	15428
918.828	15507
918.939	15580
919.05	15393
919.161	15500
919.272	15291
919.383	15329
919.494	15397
919.604	15622
919.715	15431
919.826	15370
919.936	15428
920.047	15564
920.157	15405
920.267	15625
920.378	15469
920.488	15408
920.598	15481
920.708	15732
920.818	15477
920.928	15523
921.038	15618
921.148	15595
921.258	15408
921.368	15321
921.477	15154
921.587	15119
921.697	15058
921.806	15112
921.916	14975
922.025	14853
922.134	14773
922.244	14754
922.353	14815
922.462	14648
922.571	14644
922.68	14427
922.789	14427
922.898	14400
923.007	14332
923.116	14507
923.224	14408
923.333	14286
923.442	14320
923.55	14153
923.659	14180
923.767	14370
923.876	14123
923.984	14252
924.092	14077
924.201	14138
924.309	14134
924.417	14119
924.525	13932
924.633	14031
924.741	14762
924.849	13822
924.956	13947
925.064	13837
925.172	13704
925.279	13830
925.387	13776
925.494	13727
925.602	13902
925.709	13852
925.816	13704
925.924	13723
926.031	13898
926.138	13655
926.245	13738
926.352	13727
926.459	13727
926.566	13826
926.673	13571
926.779	13510
926.886	13540
926.993	13354
927.099	13255
927.206	13327
927.312	13225
927.419	13335
927.525	13400
927.631	13339
927.737	13187
927.843	13164
927.95	12958
928.056	13080
928.162	13126
928.267	13122
928.373	13719
928.479	13190
928.585	12913
928.69	13080
928.796	13110
928.901	12993
929.007	12825
929.112	13008
929.218	12909
929.323	12863
929.428	12783
929.533	12901
929.638	12734
929.743	12700
929.848	12768
929.953	12795
930.058	12658
930.163	12490
930.267	12502
930.372	12574
930.477	12452
930.581	12688
930.685	12490
930.79	12380
930.894	12323
930.998	12384
931.103	12429
931.207	12072
931.311	12087
931.415	11958
931.519	11748
931.623	11813
