Data from test_V78500241_2889.txt Node
Date: Fri Mar 25 16:01:48 CST 2022
User: usil
Spectrometer: V785-0024
Trigger mode: 0
Integration Time (sec): 4.000000E-1
Scans to average: 1
Nonlinearity correction enabled: false
Boxcar width: 0
Storing dark spectrum: false
XAxis mode: Wavelengths
Number of Pixels in Spectrum: 1024
>>>>>Begin Spectral Data<<<<<
801.071	28546
801.214	28615
801.356	28394
801.499	28200
801.641	28006
801.783	28093
801.926	28158
802.068	28185
802.211	28131
802.353	28070
802.496	27873
802.638	27835
802.78	27819
802.923	27728
803.065	27789
803.208	27557
803.35	27793
803.492	27930
803.635	27941
803.777	27880
803.919	28093
804.061	28329
804.204	28188
804.346	27937
804.488	27964
804.63	28032
804.773	27934
804.915	28090
805.057	28230
805.199	28097
805.341	28135
805.483	28196
805.626	28101
805.768	28067
805.91	28124
806.052	28192
806.194	28131
806.336	28265
806.478	28200
806.62	28219
806.762	28352
806.904	28588
807.046	28713
807.188	28771
807.33	28687
807.472	28755
807.614	28717
807.756	28618
807.898	28588
808.04	28535
808.182	28379
808.324	28527
808.465	28706
808.607	28782
808.749	28816
808.891	28908
809.033	28923
809.174	28888
809.316	28862
809.458	28888
809.6	28896
809.741	28908
809.883	29033
810.025	29181
810.166	29124
810.308	29235
810.45	29094
810.591	29083
810.733	28919
810.875	28976
811.016	28790
811.158	28729
811.299	29044
811.441	29025
811.582	29136
811.724	28866
811.865	28839
812.007	28961
812.148	28938
812.29	28995
812.431	29162
812.573	29265
812.714	29296
812.855	29345
812.997	29528
813.138	29570
813.279	29524
813.421	29459
813.562	29334
813.703	29113
813.845	29117
813.986	28828
814.127	28721
814.268	28736
814.41	28706
814.551	28592
814.692	28786
814.833	28367
814.974	28481
815.115	28691
815.256	28367
815.397	28390
815.539	28497
815.68	28440
815.821	28268
815.962	28417
816.103	28382
816.244	28287
816.385	28223
816.526	28284
816.666	27975
816.807	27964
816.948	27918
817.089	27972
817.23	27922
817.371	27941
817.512	27918
817.653	27808
817.793	27823
817.934	27770
818.075	27991
818.216	27873
818.356	27838
818.497	27861
818.638	27526
818.778	27644
818.919	27743
819.06	27850
819.2	27865
819.341	27941
819.481	27964
819.622	28059
819.762	28375
819.903	28112
820.043	28051
820.184	28036
820.324	28063
820.465	28200
820.605	28070
820.746	28074
820.886	27846
821.026	27975
821.167	27835
821.307	28101
821.447	28017
821.588	27869
821.728	27660
821.868	27686
822.008	27507
822.149	27439
822.289	27321
822.429	27173
822.569	27020
822.709	26986
822.849	27020
822.99	26918
823.13	27001
823.27	26735
823.41	26735
823.55	26648
823.69	26701
823.83	26545
823.97	26739
824.11	26480
824.25	26389
824.389	26480
824.529	26484
824.669	26511
824.809	26746
824.949	26590
825.089	26667
825.228	26533
825.368	26442
825.508	26396
825.648	26461
825.787	26457
825.927	26545
826.067	26328
826.206	26408
826.346	26492
826.485	26465
826.625	26419
826.765	26453
826.904	26396
827.044	26161
827.183	26084
827.323	26065
827.462	26225
827.601	26103
827.741	26183
827.88	26073
828.02	25966
828.159	26130
828.298	26229
828.437	26092
828.577	26172
828.716	26138
828.855	26107
828.994	25784
829.134	25864
829.273	25894
829.412	25769
829.551	25723
829.69	25712
829.829	25811
829.968	25814
830.107	25944
830.246	25913
830.385	25868
830.524	25776
830.663	25586
830.802	25529
830.941	25476
831.08	25381
831.219	25552
831.357	25457
831.496	25753
831.635	25415
831.774	25362
831.913	25247
832.051	25171
832.19	25198
832.329	25179
832.467	25209
832.606	25145
832.744	25057
832.883	25148
833.022	25168
833.16	25141
833.299	25156
833.437	25110
833.576	25091
833.714	25145
833.852	25114
833.991	25293
834.129	25282
834.267	25164
834.406	25251
834.544	25160
834.682	25152
834.821	25171
834.959	25312
835.097	25072
835.235	25080
835.373	25209
835.511	25179
835.65	25076
835.788	25069
835.926	24928
836.064	24886
836.202	24875
836.34	24806
836.478	24973
836.615	24848
836.753	24992
836.891	24962
837.029	25069
837.167	24916
837.305	24878
837.443	25012
837.58	24821
837.718	24810
837.856	24852
837.993	24741
838.131	24954
838.269	24703
838.406	24764
838.544	24711
838.681	24376
838.819	24475
838.956	24361
839.094	24334
839.231	24384
839.369	24505
839.506	24585
839.643	24456
839.781	24273
839.918	24155
840.055	24258
840.193	24216
840.33	24247
840.467	24247
840.604	24262
840.742	24353
840.879	23992
841.016	24148
841.153	24079
841.29	24292
841.427	24159
841.564	24182
841.701	24114
841.838	24144
841.975	24152
842.112	24125
842.249	24038
842.385	23942
842.522	24125
842.659	24060
842.796	23946
842.933	23999
843.069	23920
843.206	23821
843.343	24034
843.479	23893
843.616	23984
843.752	23691
843.889	23764
844.025	23893
844.162	23668
844.298	23863
844.435	23718
844.571	23684
844.708	23779
844.844	23958
844.98	23802
845.117	23824
845.253	23672
845.389	23577
845.525	23539
845.661	23585
845.798	23463
845.934	23547
846.07	23406
846.206	23414
846.342	23554
846.478	23406
846.614	23356
846.75	23162
846.886	23292
847.022	23284
847.158	23113
847.294	23258
847.429	23223
847.565	23189
847.701	23273
847.837	22896
847.972	22812
848.108	23041
848.244	22942
848.379	22725
848.515	22862
848.65	22683
848.786	22721
848.921	22721
849.057	22858
849.192	22740
849.328	22869
849.463	22713
849.598	22656
849.734	22653
849.869	22721
850.004	22485
850.14	22546
850.275	22508
850.41	22394
850.545	22466
850.68	22436
850.815	22588
850.95	22580
851.085	22736
851.22	22649
851.355	22554
851.49	22485
851.625	22474
851.76	22451
851.895	22421
852.03	22402
852.165	22516
852.299	22512
852.434	22557
852.569	22565
852.703	22489
852.838	22538
852.973	22774
853.107	22611
853.242	22417
853.376	22390
853.511	22291
853.645	22226
853.78	22409
853.914	22322
854.048	22284
854.183	22344
854.317	22371
854.451	22603
854.585	22535
854.72	22344
854.854	22394
854.988	22356
855.122	22299
855.256	22284
855.39	22348
855.524	22382
855.658	22329
855.792	22287
855.926	22489
856.06	22462
856.194	22580
856.327	22280
856.461	22333
856.595	22223
856.729	22325
856.862	22398
856.996	22409
857.13	22443
857.263	22508
857.397	22375
857.53	22306
857.664	22447
857.797	22261
857.931	22402
858.064	22329
858.197	22432
858.331	22348
858.464	22215
858.597	22265
858.731	22310
858.864	22261
858.997	22299
859.13	22249
859.263	22409
859.396	22478
859.529	22329
859.662	22314
859.795	22238
859.928	22375
860.061	22550
860.194	22443
860.327	22341
860.46	22348
860.592	22489
860.725	22557
860.858	22367
860.99	22375
861.123	22211
861.256	22386
861.388	22299
861.521	23060
861.653	22192
861.786	22090
861.918	22192
862.05	22310
862.183	22246
862.315	22253
862.447	22337
862.58	22219
862.712	22059
862.844	21975
862.976	22048
863.108	22021
863.24	22656
863.372	21930
863.504	22051
863.636	21968
863.768	22169
863.9	22124
864.032	21964
864.164	22017
864.296	22021
864.428	22147
864.559	22169
864.691	22173
864.823	22086
864.954	22029
865.086	22070
865.217	21994
865.349	21823
865.48	21926
865.612	21953
865.743	21991
865.875	21949
866.006	21911
866.137	21941
866.269	22063
866.4	21911
866.531	21865
866.662	21994
866.793	21865
866.924	21880
867.055	21781
867.186	21926
867.317	21911
867.448	21789
867.579	21854
867.71	21720
867.841	21770
867.972	21876
868.103	21975
868.233	21823
868.364	21895
868.495	22021
868.625	22124
868.756	22204
868.886	22013
869.017	22090
869.147	22185
869.278	22207
869.408	22150
869.539	22158
869.669	22185
869.799	22173
869.929	22158
870.06	22124
870.19	22485
870.32	22405
870.45	22363
870.58	22462
870.71	22413
870.84	22615
870.97	22485
871.1	22523
871.23	22717
871.36	22561
871.489	22626
871.619	22675
871.749	22687
871.879	22820
872.008	22843
872.138	22793
872.267	22668
872.397	22573
872.526	22603
872.656	22493
872.785	22542
872.915	22778
873.044	22831
873.173	22706
873.303	22839
873.432	22691
873.561	22763
873.69	22702
873.819	22812
873.948	22698
874.077	22755
874.206	22717
874.335	22721
874.464	22828
874.593	23018
874.722	22923
874.851	22927
874.979	22949
875.108	22942
875.237	22892
875.365	22900
875.494	22885
875.623	22995
875.751	22911
875.88	22984
876.008	22999
876.136	23117
876.265	23337
876.393	23372
876.521	23444
876.65	23353
876.778	23315
876.906	23174
877.034	23288
877.162	23322
877.29	23360
877.418	23337
877.546	23307
877.674	23307
877.802	23223
877.93	23250
878.058	23212
878.185	23109
878.313	23368
878.441	23269
878.568	23147
878.696	23132
878.824	23299
878.951	23261
879.079	23414
879.206	23596
879.333	23573
879.461	23223
879.588	23376
879.715	23493
879.842	23486
879.97	23383
880.097	23121
880.224	23174
880.351	23105
880.478	23200
880.605	23029
880.732	23113
880.859	23166
880.986	23124
881.112	23178
881.239	23029
881.366	22824
881.493	22774
881.619	22653
881.746	22607
881.872	22668
881.999	22744
882.125	22519
882.252	22641
882.378	22508
882.505	22634
882.631	22432
882.757	22402
882.883	22466
883.01	22367
883.136	22284
883.262	22238
883.388	22139
883.514	22394
883.64	22348
883.766	22238
883.892	22032
884.018	22246
884.143	22299
884.269	22329
884.395	22013
884.52	22006
884.646	22040
884.772	21922
884.897	21975
885.023	22021
885.148	22078
885.274	22074
885.399	22158
885.524	21915
885.65	21956
885.775	22040
885.9	21964
886.025	22055
886.15	22074
886.275	21869
886.4	21857
886.525	21922
886.65	21854
886.775	21880
886.9	21994
887.025	22211
887.149	22032
887.274	21728
887.399	21766
887.523	21682
887.648	21633
887.773	21709
887.897	21895
888.021	21778
888.146	21781
888.27	21755
888.395	21747
888.519	21774
888.643	21736
888.767	21743
888.891	21557
889.015	21511
889.139	21542
889.263	21564
889.387	21595
889.511	21705
889.635	21682
889.759	21500
889.883	21477
890.006	21587
890.13	21648
890.254	21393
890.377	21447
890.501	21241
890.624	21207
890.748	21275
890.871	21157
890.995	20963
891.118	21009
891.241	21135
891.364	21096
891.488	21207
891.611	21032
891.734	21173
891.857	21131
891.98	21013
892.103	21108
892.226	21176
892.349	20963
892.471	20921
892.594	21017
892.717	21047
892.839	20982
892.962	20910
893.085	21036
893.207	20937
893.33	20781
893.452	20895
893.575	21051
893.697	20967
893.819	21184
893.941	21237
894.064	21127
894.186	20842
894.308	20937
894.43	21043
894.552	21127
894.674	21093
894.796	20910
894.918	21024
895.04	20906
895.161	20994
895.283	21085
895.405	20906
895.526	20769
895.648	21009
895.769	20971
895.891	20887
896.012	20982
896.134	20986
896.255	20861
896.376	20849
896.498	20864
896.619	20876
896.74	20975
896.861	20910
896.982	21264
897.103	21424
897.224	21127
897.345	21100
897.466	21135
897.587	21077
897.708	21272
897.828	21252
897.949	21119
898.07	20853
898.19	21252
898.311	21108
898.431	21161
898.552	21116
898.672	21256
898.792	21222
898.913	21138
899.033	20998
899.153	20963
899.273	20883
899.393	20887
899.513	20861
899.633	20914
899.753	20868
899.873	20769
899.993	20933
900.113	20887
900.232	20857
900.352	20811
900.472	20796
900.591	20667
900.711	20629
900.83	20598
900.95	20777
901.069	20731
901.189	20533
901.308	20305
901.427	20180
901.546	20313
901.665	20240
901.784	20183
901.904	20084
902.023	20046
902.141	19776
902.26	19761
902.379	19811
902.498	19674
902.617	19666
902.735	19765
902.854	19677
902.973	19643
903.091	19381
903.21	19400
903.328	19369
903.446	19278
903.565	19251
903.683	19145
903.801	19110
903.919	19194
904.038	18924
904.156	18924
904.274	19015
904.392	18924
904.51	18939
904.627	18973
904.745	18962
904.863	19019
904.981	18772
905.098	18585
905.216	18555
905.334	18612
905.451	18627
905.569	18464
905.686	18642
905.803	18631
905.921	18490
906.038	18464
906.155	18452
906.272	18315
906.389	18376
906.506	18186
906.623	18095
906.74	18121
906.857	17992
906.974	18171
907.091	18281
907.208	18182
907.324	18167
907.441	17999
907.557	17863
907.674	17840
907.79	17805
907.907	17794
908.023	17927
908.139	17843
908.256	17775
908.372	17684
908.488	17779
908.604	17554
908.72	17512
908.836	17566
908.952	17512
909.068	17691
909.184	17672
909.3	17539
909.415	17627
909.531	17543
909.647	17254
909.762	17197
909.878	17277
909.993	17330
910.108	17311
910.224	17132
910.339	17136
910.454	17124
910.57	17056
910.685	17010
910.8	17155
910.915	17254
911.03	17037
911.145	16816
911.259	16824
911.374	16862
911.489	16839
911.604	16672
911.718	16626
911.833	16656
911.947	16542
912.062	16474
912.176	16497
912.291	16645
912.405	16611
912.519	16793
912.633	16710
912.748	16599
912.862	16599
912.976	16451
913.09	16223
913.204	16363
913.318	16409
913.431	16550
913.545	16519
913.659	16462
913.772	16325
913.886	16185
914	16158
914.113	16192
914.226	16295
914.34	16150
914.453	16090
914.566	16150
914.68	16006
914.793	15964
914.906	15888
915.019	15709
915.132	15743
915.245	15751
915.358	15766
915.47	15819
915.583	15808
915.696	15732
915.809	15911
915.921	15827
916.034	15656
916.146	15641
916.259	15542
916.371	15781
916.483	15679
916.595	15549
916.708	15584
916.82	15549
916.932	15477
917.044	15614
917.156	15469
917.268	15405
917.38	15485
917.491	15500
917.603	15420
917.715	15481
917.826	15450
917.938	15351
918.049	15233
918.161	15348
918.272	15488
918.384	15393
918.495	15302
918.606	15211
918.717	15009
918.828	15241
918.939	15192
919.05	15116
919.161	15032
919.272	14948
919.383	14937
919.494	15131
919.604	15340
919.715	15074
919.826	15043
919.936	15085
920.047	15146
920.157	15116
920.267	15374
920.378	15070
920.488	15074
920.598	15211
920.708	15348
920.818	15154
920.928	15199
921.038	15416
921.148	15287
921.258	15062
921.368	14998
921.477	14883
921.587	14807
921.697	14712
921.806	14914
921.916	14583
922.025	14568
922.134	14514
922.244	14431
922.353	14571
922.462	14256
922.571	14286
922.68	14183
922.789	13989
922.898	14077
923.007	14054
923.116	14123
923.224	14096
923.333	14119
923.442	14035
923.55	13871
923.659	14016
923.767	13959
923.876	13898
923.984	13928
924.092	13765
924.201	13765
924.309	13811
924.417	13811
924.525	13746
924.633	13795
924.741	14758
924.849	13582
924.956	13727
925.064	13609
925.172	13495
925.279	13502
925.387	13518
925.494	13521
925.602	13639
925.709	13491
925.816	13343
925.924	13434
926.031	13449
926.138	13400
926.245	13453
926.352	13251
926.459	13476
926.566	13499
926.673	13244
926.779	13213
926.886	13247
926.993	12970
927.099	13042
927.206	12970
927.312	12954
927.419	13084
927.525	13027
927.631	13088
927.737	12928
927.843	12863
927.95	12802
928.056	12779
928.162	12852
928.267	12875
928.373	13548
928.479	12932
928.585	12612
928.69	12814
928.796	12806
928.901	12700
929.007	12563
929.112	12711
929.218	12570
929.323	12574
929.428	12559
929.533	12639
929.638	12456
929.743	12490
929.848	12578
929.953	12525
930.058	12388
930.163	12277
930.267	12258
930.372	12361
930.477	12148
930.581	12403
930.685	12292
930.79	12117
930.894	12136
930.998	11999
931.103	12209
931.207	11859
931.311	11760
931.415	11638
931.519	11440
931.623	11360
