Data from test_V78500241_2564.txt Node
Date: Fri Mar 25 15:59:33 CST 2022
User: usil
Spectrometer: V785-0024
Trigger mode: 0
Integration Time (sec): 4.000000E-1
Scans to average: 1
Nonlinearity correction enabled: false
Boxcar width: 0
Storing dark spectrum: false
XAxis mode: Wavelengths
Number of Pixels in Spectrum: 1024
>>>>>Begin Spectral Data<<<<<
801.071	28615
801.214	28542
801.356	28421
801.499	28379
801.641	28341
801.783	28284
801.926	28090
802.068	28101
802.211	28322
802.353	28112
802.496	28013
802.638	27960
802.78	27918
802.923	28006
803.065	27732
803.208	27751
803.35	27827
803.492	28002
803.635	28238
803.777	27994
803.919	28059
804.061	28386
804.204	28219
804.346	28128
804.488	28059
804.63	28188
804.773	28105
804.915	28207
805.057	28268
805.199	28192
805.341	28287
805.483	28394
805.626	28249
805.768	28200
805.91	28367
806.052	28242
806.194	28310
806.336	28451
806.478	28333
806.62	28238
806.762	28344
806.904	28637
807.046	28793
807.188	28790
807.33	28984
807.472	28805
807.614	28793
807.756	28915
807.898	28630
808.04	28653
808.182	28531
808.324	28828
808.465	28592
808.607	28888
808.749	29022
808.891	29102
809.033	29395
809.174	29060
809.316	29044
809.458	28888
809.6	29052
809.741	28991
809.883	29105
810.025	29303
810.166	29296
810.308	29337
810.45	29170
810.591	29109
810.733	28995
810.875	28961
811.016	28946
811.158	28953
811.299	29029
811.441	29155
811.582	29212
811.724	28824
811.865	29014
812.007	28892
812.148	29147
812.29	29166
812.431	29216
812.573	29383
812.714	29471
812.855	29627
812.997	29695
813.138	29710
813.279	29623
813.421	29520
813.562	29524
813.703	29364
813.845	29277
813.986	28965
814.127	28900
814.268	28675
814.41	28816
814.551	28744
814.692	28763
814.833	28653
814.974	28748
815.115	28755
815.256	28538
815.397	28535
815.539	28656
815.68	28512
815.821	28474
815.962	28618
816.103	28409
816.244	28253
816.385	28394
816.526	28261
816.666	28105
816.807	28143
816.948	28063
817.089	28177
817.23	27979
817.371	28021
817.512	27918
817.653	28044
817.793	27835
817.934	27998
818.075	27998
818.216	27998
818.356	27960
818.497	27930
818.638	27812
818.778	27770
818.919	27850
819.06	27975
819.2	27998
819.341	28101
819.481	27869
819.622	28242
819.762	28363
819.903	28390
820.043	28196
820.184	28101
820.324	28158
820.465	28253
820.605	28200
820.746	28059
820.886	28135
821.026	28188
821.167	28063
821.307	28124
821.447	28139
821.588	27918
821.728	27903
821.868	27728
822.008	27625
822.149	27557
822.289	27496
822.429	27298
822.569	27329
822.709	27157
822.849	27009
822.99	27104
823.13	27001
823.27	26990
823.41	26792
823.55	26659
823.69	26868
823.83	26834
823.97	26697
824.11	26754
824.25	26750
824.389	26663
824.529	26743
824.669	26651
824.809	26720
824.949	26788
825.089	26621
825.228	26705
825.368	26503
825.508	26526
825.648	26667
825.787	26708
825.927	26621
826.067	26541
826.206	26503
826.346	26686
826.485	26686
826.625	26579
826.765	26587
826.904	26606
827.044	26328
827.183	26419
827.323	26233
827.462	26263
827.601	26263
827.741	26332
827.88	26336
828.02	26149
828.159	26423
828.298	26233
828.437	26339
828.577	26221
828.716	26396
828.855	26218
828.994	25959
829.134	25932
829.273	25974
829.412	25963
829.551	25925
829.69	25974
829.829	25989
829.968	26020
830.107	25974
830.246	25902
830.385	25860
830.524	25776
830.663	25807
830.802	25548
830.941	25594
831.08	25362
831.219	25639
831.357	25704
831.496	25765
831.635	25521
831.774	25506
831.913	25441
832.051	25502
832.19	25324
832.329	25289
832.467	25278
832.606	25255
832.744	25232
832.883	25232
833.022	25244
833.16	25190
833.299	25278
833.437	25320
833.576	25491
833.714	25396
833.852	25365
833.991	25403
834.129	25377
834.267	25373
834.406	25324
834.544	25457
834.682	25384
834.821	25247
834.959	25529
835.097	25240
835.235	25343
835.373	25285
835.511	25301
835.65	24981
835.788	25114
835.926	25099
836.064	24962
836.202	25034
836.34	25027
836.478	25308
836.615	25046
836.753	25050
836.891	25152
837.029	25263
837.167	25099
837.305	25046
837.443	25042
837.58	25023
837.718	24958
837.856	25015
837.993	24894
838.131	24928
838.269	24844
838.406	24909
838.544	24684
838.681	24642
838.819	24582
838.956	24308
839.094	24429
839.231	24521
839.369	24566
839.506	24738
839.643	24719
839.781	24270
839.918	24369
840.055	24426
840.193	24437
840.33	24369
840.467	24323
840.604	24372
840.742	24555
840.879	24251
841.016	24243
841.153	24281
841.29	24471
841.427	24289
841.564	24342
841.701	24300
841.838	24117
841.975	24209
842.112	24201
842.249	24194
842.385	24076
842.522	24213
842.659	24022
842.796	24098
842.933	24045
843.069	24034
843.206	23988
843.343	24053
843.479	24136
843.616	24148
843.752	23840
843.889	23942
844.025	24083
844.162	23817
844.298	23977
844.435	23927
844.571	23870
844.708	23920
844.844	24038
844.98	23927
845.117	23988
845.253	23874
845.389	23680
845.525	23783
845.661	23718
845.798	23425
845.934	23630
846.07	23627
846.206	23551
846.342	23703
846.478	23570
846.614	23368
846.75	23258
846.886	23273
847.022	23292
847.158	23433
847.294	23265
847.429	23288
847.565	23269
847.701	23585
847.837	23143
847.972	23056
848.108	23086
848.244	23113
848.379	22908
848.515	22965
848.65	22854
848.786	22908
848.921	22923
849.057	22995
849.192	23071
849.328	22866
849.463	23064
849.598	22805
849.734	22706
849.869	22725
850.004	22729
850.14	22645
850.275	22706
850.41	22603
850.545	22626
850.68	22687
850.815	22672
850.95	22527
851.085	22896
851.22	22771
851.355	22713
851.49	22611
851.625	22630
851.76	22702
851.895	22637
852.03	22656
852.165	22679
852.299	22554
852.434	22679
852.569	22812
852.703	22630
852.838	22755
852.973	22637
853.107	22748
853.242	22580
853.376	22500
853.511	22261
853.645	22436
853.78	22466
853.914	22527
854.048	22451
854.183	22542
854.317	22557
854.451	22748
854.585	22504
854.72	22417
854.854	22569
854.988	22386
855.122	22478
855.256	22363
855.39	22523
855.524	22447
855.658	22481
855.792	22512
855.926	22421
856.06	22577
856.194	22497
856.327	22424
856.461	22352
856.595	22390
856.729	22497
856.862	22630
856.996	22641
857.13	22607
857.263	22474
857.397	22634
857.53	22462
857.664	22569
857.797	22577
857.931	22691
858.064	22653
858.197	22500
858.331	22485
858.464	22531
858.597	22348
858.731	22462
858.864	22485
858.997	22508
859.13	22485
859.263	22459
859.396	22645
859.529	22554
859.662	22443
859.795	22356
859.928	22402
860.061	22664
860.194	22649
860.327	22493
860.46	22504
860.592	22588
860.725	22687
860.858	22622
860.99	22504
861.123	22367
861.256	22398
861.388	22508
861.521	23151
861.653	22341
861.786	22204
861.918	22344
862.05	22344
862.183	22390
862.315	22386
862.447	22379
862.58	22489
862.712	22253
862.844	22215
862.976	22310
863.108	22379
863.24	22634
863.372	22200
863.504	22192
863.636	22181
863.768	22238
863.9	22284
864.032	22192
864.164	22226
864.296	22322
864.428	22211
864.559	22371
864.691	22215
864.823	22253
864.954	22246
865.086	22150
865.217	22147
865.349	22078
865.48	22124
865.612	22276
865.743	22287
865.875	22109
866.006	22048
866.137	22051
866.269	22135
866.4	22044
866.531	21983
866.662	21960
866.793	22002
866.924	21972
867.055	22063
867.186	22105
867.317	22059
867.448	21968
867.579	21907
867.71	21861
867.841	21991
867.972	22177
868.103	21994
868.233	21994
868.364	21869
868.495	22223
868.625	22287
868.756	22299
868.886	22223
869.017	22310
869.147	22367
869.278	22447
869.408	22344
869.539	22257
869.669	22409
869.799	22337
869.929	22424
870.06	22333
870.19	22474
870.32	22527
870.45	22527
870.58	22717
870.71	22725
870.84	22637
870.97	22649
871.1	22626
871.23	22797
871.36	22885
871.489	22656
871.619	22744
871.749	22634
871.879	22930
872.008	22942
872.138	22854
872.267	22965
872.397	22736
872.526	22790
872.656	22790
872.785	22721
872.915	22957
873.044	22991
873.173	22961
873.303	23010
873.432	23018
873.561	22984
873.69	22892
873.819	22797
873.948	23041
874.077	22923
874.206	22942
874.335	22774
874.464	22869
874.593	23246
874.722	22881
874.851	23064
874.979	23181
875.108	23147
875.237	23014
875.365	22976
875.494	23083
875.623	23318
875.751	23174
875.88	23147
876.008	23121
876.136	23330
876.265	23558
876.393	23543
876.521	23615
876.65	23531
876.778	23535
876.906	23417
877.034	23474
877.162	23471
877.29	23356
877.418	23421
877.546	23417
877.674	23490
877.802	23387
877.93	23467
878.058	23341
878.185	23288
878.313	23433
878.441	23425
878.568	23273
878.696	23421
878.824	23440
878.951	23440
879.079	23668
879.206	23657
879.333	23661
879.461	23406
879.588	23585
879.715	23638
879.842	23668
879.97	23509
880.097	23322
880.224	23162
880.351	23398
880.478	23280
880.605	23166
880.732	23220
880.859	23315
880.986	23204
881.112	23383
881.239	23056
881.366	23086
881.493	22930
881.619	22987
881.746	22877
881.872	22812
881.999	22622
882.125	22721
882.252	22854
882.378	22885
882.505	22972
882.631	22713
882.757	22554
882.883	22592
883.01	22516
883.136	22466
883.262	22436
883.388	22352
883.514	22474
883.64	22565
883.766	22447
883.892	22436
884.018	22310
884.143	22421
884.269	22557
884.395	22090
884.52	22124
884.646	22082
884.772	21975
884.897	21876
885.023	22257
885.148	22246
885.274	22158
885.399	22211
885.524	22093
885.65	22105
885.775	22074
885.9	22067
886.025	22310
886.15	22204
886.275	22078
886.4	22082
886.525	22070
886.65	22048
886.775	21956
886.9	22215
887.025	22188
887.149	22131
887.274	21873
887.399	21915
887.523	21789
887.648	21770
887.773	21873
887.897	21888
888.021	21861
888.146	21869
888.27	21911
888.395	22055
888.519	21987
888.643	21983
888.767	21975
888.891	21732
889.015	21774
889.139	21854
889.263	21713
889.387	21656
889.511	21793
889.635	21739
889.759	21549
889.883	21561
890.006	21530
890.13	21682
890.254	21606
890.377	21603
890.501	21351
890.624	21424
890.748	21504
890.871	21222
890.995	21264
891.118	21089
891.241	21306
891.364	21222
891.488	21340
891.611	21256
891.734	21188
891.857	21302
891.98	21287
892.103	21268
892.226	21207
892.349	21291
892.471	21024
892.594	21233
892.717	21150
892.839	21058
892.962	21173
893.085	21195
893.207	21116
893.33	20979
893.452	21093
893.575	21055
893.697	21070
893.819	21344
893.941	21279
894.064	21287
894.186	21043
894.308	21032
894.43	21165
894.552	21351
894.674	21085
894.796	21013
894.918	21150
895.04	21112
895.161	21119
895.283	21154
895.405	20998
895.526	21020
895.648	21051
895.769	21195
895.891	21028
896.012	21249
896.134	21180
896.255	21081
896.376	21001
896.498	21036
896.619	21104
896.74	21100
896.861	21138
896.982	21275
897.103	21515
897.224	21424
897.345	21302
897.466	21180
897.587	21340
897.708	21321
897.828	21367
897.949	21256
898.07	21036
898.19	21119
898.311	21332
898.431	21150
898.552	21249
898.672	21348
898.792	21416
898.913	21268
899.033	21169
899.153	21043
899.273	20982
899.393	21085
899.513	21173
899.633	20975
899.753	21020
899.873	21005
899.993	20960
900.113	20902
900.232	20994
900.352	20918
900.472	20735
900.591	20773
900.711	20876
900.83	20739
900.95	20967
901.069	20941
901.189	20568
901.308	20442
901.427	20290
901.546	20507
901.665	20351
901.784	20240
901.904	20180
902.023	20054
902.141	19982
902.26	19898
902.379	20027
902.498	19795
902.617	19818
902.735	19997
902.854	19879
902.973	19757
903.091	19502
903.21	19582
903.328	19506
903.446	19381
903.565	19407
903.683	19236
903.801	19171
903.919	19164
904.038	19183
904.156	19175
904.274	19168
904.392	19069
904.51	19015
904.627	19038
904.745	19072
904.863	19080
904.981	18935
905.098	18757
905.216	18741
905.334	18791
905.451	18772
905.569	18802
905.686	18703
905.803	18692
905.921	18498
906.038	18707
906.155	18498
906.272	18429
906.389	18445
906.506	18391
906.623	18251
906.74	18319
906.857	18190
906.974	18133
907.091	18308
907.208	18410
907.324	18220
907.441	18140
907.557	17973
907.674	17927
907.79	17863
907.907	17851
908.023	17961
908.139	17980
908.256	17920
908.372	17889
908.488	17866
908.604	17691
908.72	17695
908.836	17710
908.952	17600
909.068	17676
909.184	17760
909.3	17748
909.415	17615
909.531	17649
909.647	17452
909.762	17311
909.878	17265
909.993	17376
910.108	17341
910.224	17341
910.339	17311
910.454	17334
910.57	17231
910.685	17052
910.8	17280
910.915	17436
911.03	17223
911.145	17060
911.259	16972
911.374	16915
911.489	16885
911.604	16805
911.718	16713
911.833	16774
911.947	16588
912.062	16523
912.176	16645
912.291	16679
912.405	16694
912.519	16809
912.633	16869
912.748	16854
912.862	16717
912.976	16531
913.09	16375
913.204	16424
913.318	16478
913.431	16558
913.545	16649
913.659	16596
913.772	16527
913.886	16390
914	16291
914.113	16363
914.226	16371
914.34	16348
914.453	16177
914.566	16341
914.68	16120
914.793	16120
914.906	15975
915.019	15873
915.132	15861
915.245	15827
915.358	15918
915.47	15831
915.583	15831
915.696	15846
915.809	15934
915.921	15968
916.034	15800
916.146	15781
916.259	15675
916.371	15781
916.483	15869
916.595	15603
916.708	15671
916.82	15717
916.932	15682
917.044	15656
917.156	15542
917.268	15424
917.38	15477
917.491	15500
917.603	15557
917.715	15542
917.826	15610
917.938	15370
918.049	15450
918.161	15416
918.272	15580
918.384	15587
918.495	15367
918.606	15363
918.717	15226
918.828	15275
918.939	15180
919.05	15138
919.161	15256
919.272	15051
919.383	15070
919.494	15275
919.604	15302
919.715	15203
919.826	15142
919.936	15127
920.047	15249
920.157	15291
920.267	15359
920.378	15207
920.488	15279
920.598	15408
920.708	15420
920.818	15287
920.928	15344
921.038	15523
921.148	15363
921.258	15146
921.368	15074
921.477	14967
921.587	14826
921.697	14872
921.806	14853
921.916	14746
922.025	14632
922.134	14560
922.244	14503
922.353	14594
922.462	14427
922.571	14446
922.68	14172
922.789	14172
922.898	14183
923.007	14149
923.116	14180
923.224	14195
923.333	14161
923.442	13940
923.55	14016
923.659	14111
923.767	14005
923.876	13993
923.984	14027
924.092	13890
924.201	13814
924.309	13917
924.417	13925
924.525	13833
924.633	13837
924.741	14762
924.849	13639
924.956	13731
925.064	13636
925.172	13548
925.279	13643
925.387	13556
925.494	13693
925.602	13662
925.709	13639
925.816	13381
925.924	13514
926.031	13597
926.138	13518
926.245	13594
926.352	13480
926.459	13601
926.566	13693
926.673	13396
926.779	13388
926.886	13343
926.993	13206
927.099	13095
927.206	13076
927.312	13046
927.419	13206
927.525	13122
927.631	13137
927.737	12996
927.843	12966
927.95	12890
928.056	12859
928.162	12943
928.267	12954
928.373	13453
928.479	12897
928.585	12886
928.69	12932
928.796	12905
928.901	12779
929.007	12719
929.112	12920
929.218	12806
929.323	12681
929.428	12673
929.533	12757
929.638	12631
929.743	12574
929.848	12658
929.953	12585
930.058	12544
930.163	12296
930.267	12338
930.372	12471
930.477	12258
930.581	12521
930.685	12300
930.79	12175
930.894	12209
930.998	12163
931.103	12292
931.207	11965
931.311	11855
931.415	11703
931.519	11570
931.623	11581
