Data from test_V78500241_3067.txt Node
Date: Fri Mar 25 16:03:02 CST 2022
User: usil
Spectrometer: V785-0024
Trigger mode: 0
Integration Time (sec): 4.000000E-1
Scans to average: 1
Nonlinearity correction enabled: false
Boxcar width: 0
Storing dark spectrum: false
XAxis mode: Wavelengths
Number of Pixels in Spectrum: 1024
>>>>>Begin Spectral Data<<<<<
801.071	28774
801.214	28588
801.356	28493
801.499	28352
801.641	28310
801.783	28246
801.926	28337
802.068	28318
802.211	28192
802.353	28200
802.496	28010
802.638	28029
802.78	28025
802.923	27884
803.065	27895
803.208	28029
803.35	28131
803.492	28112
803.635	28295
803.777	28070
803.919	28238
804.061	28443
804.204	28329
804.346	28131
804.488	28265
804.63	28295
804.773	28219
804.915	28268
805.057	28447
805.199	28196
805.341	28268
805.483	28306
805.626	28428
805.768	28337
805.91	28394
806.052	28516
806.194	28280
806.336	28588
806.478	28382
806.62	28504
806.762	28432
806.904	28672
807.046	28965
807.188	28767
807.33	28759
807.472	28995
807.614	28896
807.756	28869
807.898	28626
808.04	28721
808.182	28717
808.324	28672
808.465	28721
808.607	28900
808.749	28976
808.891	29083
809.033	29193
809.174	29254
809.316	29022
809.458	29105
809.6	29037
809.741	29105
809.883	29330
810.025	29414
810.166	29375
810.308	29391
810.45	29375
810.591	29296
810.733	29109
810.875	28995
811.016	28946
811.158	28942
811.299	29178
811.441	29231
811.582	29280
811.724	29098
811.865	29166
812.007	29121
812.148	29113
812.29	29124
812.431	29189
812.573	29493
812.714	29497
812.855	29623
812.997	29646
813.138	29912
813.279	29718
813.421	29566
813.562	29600
813.703	29372
813.845	29364
813.986	28987
814.127	28797
814.268	28923
814.41	28908
814.551	28820
814.692	28801
814.833	28679
814.974	28717
815.115	28888
815.256	28561
815.397	28653
815.539	28691
815.68	28637
815.821	28497
815.962	28577
816.103	28584
816.244	28569
816.385	28489
816.526	28436
816.666	28196
816.807	28166
816.948	28147
817.089	28078
817.23	28196
817.371	28029
817.512	28124
817.653	28120
817.793	28169
817.934	28185
818.075	28055
818.216	28211
818.356	28158
818.497	27937
818.638	27720
818.778	27789
818.919	27899
819.06	27937
819.2	28025
819.341	28116
819.481	28162
819.622	28371
819.762	28409
819.903	28436
820.043	28363
820.184	28413
820.324	28291
820.465	28265
820.605	28215
820.746	28223
820.886	28177
821.026	28257
821.167	28223
821.307	28188
821.447	28196
821.588	28059
821.728	27937
821.868	27861
822.008	27774
822.149	27675
822.289	27572
822.429	27336
822.569	27447
822.709	27233
822.849	27036
822.99	27138
823.13	27150
823.27	27032
823.41	26940
823.55	26994
823.69	26933
823.83	27001
823.97	26891
824.11	26887
824.25	26754
824.389	26724
824.529	26914
824.669	26754
824.809	26975
824.949	26929
825.089	26929
825.228	26918
825.368	26648
825.508	26769
825.648	26625
825.787	26750
825.927	26826
826.067	26606
826.206	26655
826.346	26693
826.485	26670
826.625	26758
826.765	26777
826.904	26800
827.044	26461
827.183	26450
827.323	26374
827.462	26461
827.601	26453
827.741	26317
827.88	26389
828.02	26282
828.159	26275
828.298	26336
828.437	26488
828.577	26362
828.716	26419
828.855	26305
828.994	26092
829.134	26122
829.273	26065
829.412	25989
829.551	25978
829.69	26126
829.829	26031
829.968	26077
830.107	26233
830.246	25974
830.385	25963
830.524	26016
830.663	25932
830.802	25826
830.941	25647
831.08	25746
831.219	25746
831.357	25738
831.496	25887
831.635	25811
831.774	25674
831.913	25521
832.051	25510
832.19	25384
832.329	25514
832.467	25403
832.606	25457
832.744	25259
832.883	25343
833.022	25221
833.16	25335
833.299	25453
833.437	25320
833.576	25400
833.714	25388
833.852	25445
833.991	25472
834.129	25601
834.267	25582
834.406	25453
834.544	25529
834.682	25434
834.821	25403
834.959	25590
835.097	25453
835.235	25483
835.373	25392
835.511	25278
835.65	25236
835.788	25403
835.926	25183
836.064	25015
836.202	25103
836.34	25301
836.478	25244
836.615	25289
836.753	25202
836.891	25251
837.029	25266
837.167	25228
837.305	25110
837.443	25129
837.58	25213
837.718	25206
837.856	25088
837.993	25137
838.131	25042
838.269	24970
838.406	25065
838.544	25027
838.681	24768
838.819	24658
838.956	24563
839.094	24498
839.231	24715
839.369	24768
839.506	24977
839.643	24779
839.781	24646
839.918	24410
840.055	24498
840.193	24498
840.33	24376
840.467	24475
840.604	24559
840.742	24658
840.879	24216
841.016	24350
841.153	24266
841.29	24414
841.427	24426
841.564	24433
841.701	24315
841.838	24486
841.975	24372
842.112	24266
842.249	24247
842.385	24247
842.522	24391
842.659	24296
842.796	24235
842.933	24247
843.069	24087
843.206	24072
843.343	24228
843.479	23965
843.616	24174
843.752	23980
843.889	24015
844.025	23999
844.162	23904
844.298	24178
844.435	23961
844.571	24018
844.708	23908
844.844	24117
844.98	24159
845.117	24049
845.253	23779
845.389	23840
845.525	23866
845.661	23764
845.798	23767
845.934	23726
846.07	23733
846.206	23661
846.342	23882
846.478	23623
846.614	23459
846.75	23406
846.886	23337
847.022	23520
847.158	23577
847.294	23501
847.429	23482
847.565	23436
847.701	23581
847.837	23159
847.972	23280
848.108	23345
848.244	23360
848.379	23132
848.515	23044
848.65	23006
848.786	22911
848.921	22984
849.057	23147
849.192	23094
849.328	23044
849.463	22953
849.598	22991
849.734	22961
849.869	22801
850.004	22679
850.14	22752
850.275	22793
850.41	22725
850.545	22725
850.68	22835
850.815	22900
850.95	22763
851.085	22987
851.22	22942
851.355	22873
851.49	22767
851.625	22733
851.76	22759
851.895	22675
852.03	22672
852.165	22717
852.299	22744
852.434	23003
852.569	22824
852.703	22713
852.838	22683
852.973	22915
853.107	22946
853.242	22786
853.376	22698
853.511	22630
853.645	22542
853.78	22596
853.914	22649
854.048	22455
854.183	22493
854.317	22455
854.451	22816
854.585	22615
854.72	22607
854.854	22634
854.988	22478
855.122	22649
855.256	22474
855.39	22538
855.524	22713
855.658	22493
855.792	22508
855.926	22573
856.06	22626
856.194	22710
856.327	22557
856.461	22535
856.595	22504
856.729	22675
856.862	22641
856.996	22706
857.13	22588
857.263	22767
857.397	22812
857.53	22516
857.664	22664
857.797	22668
857.931	22664
858.064	22516
858.197	22774
858.331	22592
858.464	22500
858.597	22535
858.731	22527
858.864	22538
858.997	22443
859.13	22573
859.263	22679
859.396	22694
859.529	22641
859.662	22516
859.795	22634
859.928	22550
860.061	22660
860.194	22790
860.327	22641
860.46	22603
860.592	22702
860.725	22793
860.858	22854
860.99	22516
861.123	22569
861.256	22485
861.388	22516
861.521	23345
861.653	22440
861.786	22348
861.918	22459
862.05	22405
862.183	22611
862.315	22527
862.447	22618
862.58	22546
862.712	22291
862.844	22196
862.976	22337
863.108	22333
863.24	22809
863.372	22131
863.504	22386
863.636	22329
863.768	22352
863.9	22348
864.032	22204
864.164	22211
864.296	22211
864.428	22352
864.559	22409
864.691	22341
864.823	22261
864.954	22261
865.086	22303
865.217	22181
865.349	22059
865.48	22166
865.612	22246
865.743	22413
865.875	22238
866.006	22211
866.137	22139
866.269	22162
866.4	22158
866.531	22093
866.662	22097
866.793	22173
866.924	22086
867.055	22082
867.186	22234
867.317	22063
867.448	22055
867.579	22150
867.71	21983
867.841	22040
867.972	22070
868.103	22006
868.233	22093
868.364	22070
868.495	22177
868.625	22341
868.756	22519
868.886	22268
869.017	22291
869.147	22398
869.278	22409
869.408	22314
869.539	22379
869.669	22371
869.799	22474
869.929	22443
870.06	22466
870.19	22713
870.32	22664
870.45	22599
870.58	22763
870.71	22820
870.84	22896
870.97	22729
871.1	22687
871.23	22908
871.36	22866
871.489	22965
871.619	22801
871.749	22980
871.879	22881
872.008	22972
872.138	23014
872.267	22946
872.397	22809
872.526	22752
872.656	22771
872.785	22706
872.915	22911
873.044	23075
873.173	22858
873.303	23075
873.432	23136
873.561	23071
873.69	22984
873.819	23067
873.948	23079
874.077	22984
874.206	22946
874.335	22900
874.464	23064
874.593	23356
874.722	23220
874.851	23204
874.979	23204
875.108	23208
875.237	23242
875.365	23189
875.494	23174
875.623	23242
875.751	23105
875.88	23223
876.008	23383
876.136	23292
876.265	23684
876.393	23707
876.521	23676
876.65	23646
876.778	23436
876.906	23452
877.034	23490
877.162	23642
877.29	23474
877.418	23531
877.546	23558
877.674	23486
877.802	23547
877.93	23512
878.058	23452
878.185	23459
878.313	23410
878.441	23535
878.568	23417
878.696	23448
878.824	23596
878.951	23543
879.079	23661
879.206	23836
879.333	23710
879.461	23543
879.588	23665
879.715	23653
879.842	23779
879.97	23611
880.097	23315
880.224	23212
880.351	23387
880.478	23391
880.605	23330
880.732	23353
880.859	23554
880.986	23227
881.112	23307
881.239	23132
881.366	23147
881.493	22942
881.619	22850
881.746	22873
881.872	22774
881.999	23010
882.125	22866
882.252	22938
882.378	22889
882.505	22919
882.631	22797
882.757	22497
882.883	22774
883.01	22542
883.136	22516
883.262	22405
883.388	22436
883.514	22634
883.64	22702
883.766	22470
883.892	22409
884.018	22356
884.143	22569
884.269	22668
884.395	22360
884.52	22097
884.646	22211
884.772	22162
884.897	22120
885.023	22257
885.148	22337
885.274	22375
885.399	22295
885.524	22344
885.65	22196
885.775	22177
885.9	22154
886.025	22371
886.15	22409
886.275	22086
886.4	22086
886.525	22322
886.65	22032
886.775	22067
886.9	22211
887.025	22303
887.149	22226
887.274	21987
887.399	22048
887.523	21895
887.648	21720
887.773	21823
887.897	22055
888.021	22002
888.146	21873
888.27	22128
888.395	21975
888.519	21903
888.643	21880
888.767	21922
888.891	21804
889.015	21686
889.139	21808
889.263	21789
889.387	21892
889.511	21926
889.635	21865
889.759	21846
889.883	21762
890.006	21675
890.13	21789
890.254	21663
890.377	21637
890.501	21469
890.624	21557
890.748	21576
890.871	21428
890.995	21310
891.118	21306
891.241	21279
891.364	21245
891.488	21553
891.611	21367
891.734	21268
891.857	21264
891.98	21256
892.103	21291
892.226	21325
892.349	21230
892.471	21070
892.594	21142
892.717	21291
892.839	21218
892.962	21184
893.085	21214
893.207	21195
893.33	20963
893.452	21161
893.575	21355
893.697	21131
893.819	21359
893.941	21374
894.064	21302
894.186	21192
894.308	21154
894.43	21176
894.552	21378
894.674	21249
894.796	20952
894.918	21104
895.04	21222
895.161	21260
895.283	21283
895.405	21176
895.526	21142
895.648	21135
895.769	21154
895.891	21317
896.012	21157
896.134	21188
896.255	20986
896.376	21169
896.498	21127
896.619	21245
896.74	21081
896.861	21180
896.982	21549
897.103	21519
897.224	21378
897.345	21374
897.466	21294
897.587	21252
897.708	21545
897.828	21405
897.949	21310
898.07	21245
898.19	21336
898.311	21488
898.431	21279
898.552	21344
898.672	21454
898.792	21401
898.913	21306
899.033	21226
899.153	21112
899.273	21017
899.393	21039
899.513	21157
899.633	21055
899.753	21051
899.873	21100
899.993	21184
900.113	20933
900.232	21131
900.352	20872
900.472	20842
900.591	20849
900.711	20876
900.83	20804
900.95	21005
901.069	20861
901.189	20845
901.308	20454
901.427	20434
901.546	20427
901.665	20343
901.784	20374
901.904	20389
902.023	20161
902.141	20092
902.26	19944
902.379	19932
902.498	19944
902.617	19746
902.735	19993
902.854	19883
902.973	19780
903.091	19597
903.21	19616
903.328	19518
903.446	19472
903.565	19426
903.683	19343
903.801	19175
903.919	19308
904.038	19324
904.156	19148
904.274	19168
904.392	19065
904.51	19141
904.627	19107
904.745	19175
904.863	19190
904.981	18996
905.098	18795
905.216	18650
905.334	18844
905.451	18802
905.569	18791
905.686	18779
905.803	18760
905.921	18578
906.038	18654
906.155	18563
906.272	18506
906.389	18464
906.506	18300
906.623	18391
906.74	18372
906.857	18220
906.974	18243
907.091	18262
907.208	18429
907.324	18361
907.441	18171
907.557	18148
907.674	18079
907.79	17923
907.907	17980
908.023	17984
908.139	18083
908.256	18049
908.372	17912
908.488	17912
908.604	17756
908.72	17767
908.836	17794
908.952	17726
909.068	17760
909.184	17824
909.3	17726
909.415	17798
909.531	17653
909.647	17425
909.762	17433
909.878	17368
909.993	17398
910.108	17448
910.224	17360
910.339	17296
910.454	17345
910.57	17277
910.685	17212
910.8	17398
910.915	17429
911.03	17258
911.145	17045
911.259	16957
911.374	16930
911.489	16927
911.604	16869
911.718	16736
911.833	16736
911.947	16596
912.062	16599
912.176	16828
912.291	16740
912.405	16759
912.519	17010
912.633	16889
912.748	16801
912.862	16816
912.976	16596
913.09	16504
913.204	16535
913.318	16577
913.431	16786
913.545	16698
913.659	16596
913.772	16508
913.886	16375
914	16337
914.113	16443
914.226	16569
914.34	16386
914.453	16303
914.566	16421
914.68	16226
914.793	16242
914.906	16044
915.019	15911
915.132	15827
915.245	15930
915.358	15972
915.47	15850
915.583	15869
915.696	16006
915.809	15998
915.921	16010
916.034	15903
916.146	15751
916.259	15747
916.371	15922
916.483	15876
916.595	15701
916.708	15751
916.82	15679
916.932	15701
917.044	15720
917.156	15667
917.268	15504
917.38	15595
917.491	15584
917.603	15526
917.715	15739
917.826	15564
917.938	15507
918.049	15431
918.161	15572
918.272	15610
918.384	15549
918.495	15530
918.606	15374
918.717	15268
918.828	15454
918.939	15260
919.05	15188
919.161	15363
919.272	15024
919.383	15138
919.494	15340
919.604	15389
919.715	15249
919.826	15161
919.936	15298
920.047	15313
920.157	15245
920.267	15420
920.378	15252
920.488	15241
920.598	15435
920.708	15481
920.818	15382
920.928	15336
921.038	15526
921.148	15447
921.258	15157
921.368	15199
921.477	14944
921.587	14925
921.697	14758
921.806	14986
921.916	14849
922.025	14739
922.134	14568
922.244	14450
922.353	14590
922.462	14332
922.571	14408
922.68	14244
922.789	14256
922.898	14221
923.007	14229
923.116	14290
923.224	14248
923.333	14229
923.442	14100
923.55	13989
923.659	14031
923.767	14111
923.876	14020
923.984	14142
924.092	13944
924.201	13963
924.309	14035
924.417	13906
924.525	13925
924.633	13868
924.741	14610
924.849	13753
924.956	13887
925.064	13624
925.172	13483
925.279	13533
925.387	13655
925.494	13616
925.602	13689
925.709	13609
925.816	13453
925.924	13582
926.031	13624
926.138	13502
926.245	13552
926.352	13438
926.459	13620
926.566	13597
926.673	13483
926.779	13392
926.886	13369
926.993	13156
927.099	13183
927.206	13099
927.312	13114
927.419	13156
927.525	13095
927.631	13152
927.737	13118
927.843	13046
927.95	12833
928.056	12970
928.162	12993
928.267	13099
928.373	13559
928.479	13015
928.585	12741
928.69	12886
928.796	12935
928.901	12867
929.007	12700
929.112	12856
929.218	12817
929.323	12681
929.428	12623
929.533	12817
929.638	12578
929.743	12677
929.848	12597
929.953	12635
930.058	12502
930.163	12346
930.267	12388
930.372	12369
930.477	12342
930.581	12502
930.685	12395
930.79	12213
930.894	12209
930.998	12175
931.103	12395
931.207	11977
931.311	11885
931.415	11817
931.519	11592
931.623	11589
