Data from test_V78500241_234.txt Node
Date: Fri Mar 25 15:43:25 CST 2022
User: usil
Spectrometer: V785-0024
Trigger mode: 0
Integration Time (sec): 4.000000E-1
Scans to average: 1
Nonlinearity correction enabled: false
Boxcar width: 0
Storing dark spectrum: false
XAxis mode: Wavelengths
Number of Pixels in Spectrum: 1024
>>>>>Begin Spectral Data<<<<<
801.071	29581
801.214	29539
801.356	29356
801.499	29356
801.641	29155
801.783	29239
801.926	29223
802.068	29048
802.211	29136
802.353	28934
802.496	28873
802.638	28744
802.78	28717
802.923	28752
803.065	28611
803.208	28740
803.35	28816
803.492	28911
803.635	29090
803.777	28908
803.919	29075
804.061	29258
804.204	28995
804.346	28885
804.488	28733
804.63	28854
804.773	28698
804.915	28843
805.057	28968
805.199	28835
805.341	28957
805.483	29052
805.626	29067
805.768	28919
805.91	28915
806.052	29090
806.194	29121
806.336	29147
806.478	29216
806.62	29132
806.762	29109
806.904	29334
807.046	29482
807.188	29452
807.33	29459
807.472	29478
807.614	29360
807.756	29433
807.898	29303
808.04	29193
808.182	29117
808.324	29185
808.465	29162
808.607	29334
808.749	29600
808.891	29718
809.033	29729
809.174	29554
809.316	29657
809.458	29554
809.6	29589
809.741	29653
809.883	29668
810.025	29843
810.166	29916
810.308	29840
810.45	29809
810.591	29748
810.733	29676
810.875	29737
811.016	29558
811.158	29406
811.299	29710
811.441	29729
811.582	29585
811.724	29558
811.865	29585
812.007	29570
812.148	29520
812.29	29505
812.431	29813
812.573	29798
812.714	29984
812.855	30015
812.997	30239
813.138	30308
813.279	30106
813.421	30121
813.562	30064
813.703	29908
813.845	29828
813.986	29577
814.127	29284
814.268	29181
814.41	29326
814.551	29231
814.692	29242
814.833	29155
814.974	29185
815.115	29200
815.256	29086
815.397	29124
815.539	29166
815.68	29048
815.821	29128
815.962	28904
816.103	28961
816.244	28869
816.385	28721
816.526	28683
816.666	28379
816.807	28280
816.948	28557
817.089	28474
817.23	28478
817.371	28341
817.512	28455
817.653	28470
817.793	28356
817.934	28398
818.075	28386
818.216	28504
818.356	28173
818.497	28226
818.638	28200
818.778	28086
818.919	28200
819.06	28143
819.2	28314
819.341	28295
819.481	28367
819.622	28557
819.762	28774
819.903	28538
820.043	28584
820.184	28485
820.324	28337
820.465	28493
820.605	28459
820.746	28455
820.886	28367
821.026	28394
821.167	28352
821.307	28474
821.447	28516
821.588	28344
821.728	28120
821.868	28021
822.008	27911
822.149	27827
822.289	27713
822.429	27572
822.569	27568
822.709	27370
822.849	27207
822.99	27119
823.13	27146
823.27	27218
823.41	27077
823.55	26872
823.69	26963
823.83	27047
823.97	26998
824.11	26902
824.25	26899
824.389	26960
824.529	26986
824.669	26975
824.809	26948
824.949	26918
825.089	26990
825.228	26857
825.368	26689
825.508	26731
825.648	26872
825.787	26716
825.927	26815
826.067	26678
826.206	26632
826.346	26944
826.485	26845
826.625	26571
826.765	26773
826.904	26750
827.044	26396
827.183	26442
827.323	26419
827.462	26575
827.601	26431
827.741	26347
827.88	26336
828.02	26275
828.159	26294
828.298	26442
828.437	26362
828.577	26339
828.716	26442
828.855	26290
828.994	26084
829.134	26126
829.273	26149
829.412	26081
829.551	25887
829.69	26050
829.829	25986
829.968	26153
830.107	26024
830.246	25970
830.385	25951
830.524	25845
830.663	25887
830.802	25742
830.941	25647
831.08	25563
831.219	25655
831.357	25674
831.496	25852
831.635	25552
831.774	25548
831.913	25419
832.051	25331
832.19	25514
832.329	25316
832.467	25460
832.606	25228
832.744	25251
832.883	25225
833.022	25324
833.16	25316
833.299	25312
833.437	25168
833.576	25377
833.714	25434
833.852	25190
833.991	25373
834.129	25327
834.267	25384
834.406	25133
834.544	25293
834.682	25278
834.821	25316
834.959	25324
835.097	25164
835.235	25331
835.373	25141
835.511	25179
835.65	25206
835.788	25095
835.926	24958
836.064	24852
836.202	24992
836.34	25061
836.478	25118
836.615	25129
836.753	25038
836.891	25004
837.029	25084
837.167	25069
837.305	24882
837.443	24913
837.58	24958
837.718	24954
837.856	24890
837.993	24890
838.131	24764
838.269	24840
838.406	24646
838.544	24707
838.681	24551
838.819	24623
838.956	24304
839.094	24296
839.231	24304
839.369	24418
839.506	24722
839.643	24437
839.781	24334
839.918	24209
840.055	24262
840.193	24327
840.33	24342
840.467	24243
840.604	24270
840.742	24490
840.879	24003
841.016	24057
841.153	24064
841.29	24262
841.427	24110
841.564	24209
841.701	24197
841.838	24136
841.975	24110
842.112	24102
842.249	23939
842.385	24011
842.522	24106
842.659	23965
842.796	23973
842.933	23882
843.069	23703
843.206	23752
843.343	23874
843.479	23775
843.616	23870
843.752	23680
843.889	23718
844.025	23592
844.162	23604
844.298	23798
844.435	23558
844.571	23490
844.708	23695
844.844	23726
844.98	23745
845.117	23695
845.253	23528
845.389	23490
845.525	23509
845.661	23410
845.798	23414
845.934	23372
846.07	23356
846.206	23356
846.342	23512
846.478	23231
846.614	23071
846.75	23105
846.886	22946
847.022	22999
847.158	23029
847.294	23022
847.429	23083
847.565	23048
847.701	23311
847.837	22721
847.972	22702
848.108	22835
848.244	22744
848.379	22664
848.515	22584
848.65	22664
848.786	22588
848.921	22557
849.057	22683
849.192	22736
849.328	22691
849.463	22557
849.598	22474
849.734	22523
849.869	22443
850.004	22246
850.14	22489
850.275	22447
850.41	22268
850.545	22253
850.68	22261
850.815	22261
850.95	22348
851.085	22447
851.22	22455
851.355	22303
851.49	22360
851.625	22352
851.76	22352
851.895	22314
852.03	22276
852.165	22291
852.299	22337
852.434	22371
852.569	22382
852.703	22352
852.838	22291
852.973	22466
853.107	22489
853.242	22200
853.376	22128
853.511	21991
853.645	22112
853.78	22177
853.914	22185
854.048	22143
854.183	22169
854.317	22128
854.451	22272
854.585	22048
854.72	22139
854.854	22253
854.988	22105
855.122	22124
855.256	21949
855.39	22093
855.524	22124
855.658	22147
855.792	22166
855.926	22093
856.06	22257
856.194	22230
856.327	22207
856.461	22131
856.595	22181
856.729	22154
856.862	22310
856.996	22204
857.13	22143
857.263	22082
857.397	22135
857.53	22097
857.664	22150
857.797	22021
857.931	22200
858.064	22070
858.197	22139
858.331	21994
858.464	22078
858.597	22021
858.731	21983
858.864	22013
858.997	21953
859.13	22082
859.263	22093
859.396	22158
859.529	22044
859.662	21953
859.795	22017
859.928	21926
860.061	22192
860.194	22139
860.327	22131
860.46	22112
860.592	22048
860.725	22238
860.858	22173
860.99	22048
861.123	22032
861.256	22040
861.388	22112
861.521	22748
861.653	21911
861.786	21850
861.918	21949
862.05	21960
862.183	22063
862.315	22051
862.447	22215
862.58	22070
862.712	21793
862.844	21774
862.976	21880
863.108	21838
863.24	22185
863.372	21652
863.504	21766
863.636	21842
863.768	21709
863.9	21766
864.032	21679
864.164	21778
864.296	21709
864.428	21781
864.559	21846
864.691	21800
864.823	21701
864.954	21827
865.086	21686
865.217	21709
865.349	21473
865.48	21625
865.612	21603
865.743	21660
865.875	21667
866.006	21633
866.137	21557
866.269	21698
866.4	21633
866.531	21652
866.662	21549
866.793	21477
866.924	21526
867.055	21572
867.186	21519
867.317	21561
867.448	21428
867.579	21583
867.71	21587
867.841	21389
867.972	21534
868.103	21420
868.233	21477
868.364	21481
868.495	21610
868.625	21743
868.756	21838
868.886	21736
869.017	21770
869.147	21785
869.278	21922
869.408	21888
869.539	21762
869.669	21895
869.799	21793
869.929	21964
870.06	21770
870.19	22070
870.32	22078
870.45	22002
870.58	22139
870.71	22249
870.84	22249
870.97	22207
871.1	22211
871.23	22386
871.36	22428
871.489	22295
871.619	22424
871.749	22303
871.879	22325
872.008	22375
872.138	22481
872.267	22462
872.397	22314
872.526	22196
872.656	22207
872.785	22382
872.915	22341
873.044	22481
873.173	22375
873.303	22466
873.432	22447
873.561	22466
873.69	22417
873.819	22398
873.948	22421
874.077	22500
874.206	22337
874.335	22379
874.464	22569
874.593	22641
874.722	22557
874.851	22672
874.979	22664
875.108	22752
875.237	22683
875.365	22538
875.494	22565
875.623	22683
875.751	22607
875.88	22653
876.008	22713
876.136	22831
876.265	23037
876.393	23216
876.521	23071
876.65	23075
876.778	23025
876.906	22752
877.034	22980
877.162	22843
877.29	22831
877.418	23052
877.546	22957
877.674	23064
877.802	23022
877.93	23060
878.058	22873
878.185	22869
878.313	22919
878.441	23060
878.568	22824
878.696	22949
878.824	23010
878.951	23067
879.079	23003
879.206	23208
879.333	23014
879.461	23083
879.588	23105
879.715	23208
879.842	23132
879.97	22953
880.097	22755
880.224	22938
880.351	22759
880.478	22793
880.605	22691
880.732	22774
880.859	22968
880.986	22843
881.112	22862
881.239	22679
881.366	22470
881.493	22470
881.619	22348
881.746	22428
881.872	22322
881.999	22261
882.125	22352
882.252	22360
882.378	22276
882.505	22508
882.631	22188
882.757	22215
882.883	22169
883.01	22082
883.136	22101
883.262	21956
883.388	21934
883.514	22116
883.64	22044
883.766	22010
883.892	21812
884.018	21865
884.143	22025
884.269	22051
884.395	21739
884.52	21709
884.646	21701
884.772	21587
884.897	21538
885.023	21675
885.148	21816
885.274	21770
885.399	21873
885.524	21587
885.65	21759
885.775	21705
885.9	21720
886.025	21713
886.15	21717
886.275	21564
886.4	21530
886.525	21622
886.65	21580
886.775	21667
886.9	21876
887.025	21915
887.149	21656
887.274	21542
887.399	21408
887.523	21526
887.648	21310
887.773	21344
887.897	21538
888.021	21481
888.146	21329
888.27	21386
888.395	21477
888.519	21272
888.643	21405
888.767	21412
888.891	21428
889.015	21214
889.139	21260
889.263	21127
889.387	21192
889.511	21378
889.635	21211
889.759	21195
889.883	21146
890.006	21233
890.13	21386
890.254	21150
890.377	21173
890.501	20948
890.624	20963
890.748	21032
890.871	20872
890.995	20716
891.118	20765
891.241	20754
891.364	20800
891.488	20899
891.611	20754
891.734	20731
891.857	20838
891.98	20663
892.103	20845
892.226	20758
892.349	20693
892.471	20541
892.594	20644
892.717	20655
892.839	20750
892.962	20678
893.085	20781
893.207	20708
893.33	20609
893.452	20750
893.575	20819
893.697	20697
893.819	20788
893.941	20785
894.064	20716
894.186	20625
894.308	20590
894.43	20727
894.552	20838
894.674	20762
894.796	20526
894.918	20625
895.04	20743
895.161	20636
895.283	20716
895.405	20609
895.526	20648
895.648	20629
895.769	20697
895.891	20758
896.012	20754
896.134	20644
896.255	20629
896.376	20632
896.498	20739
896.619	20632
896.74	20716
896.861	20792
896.982	21081
897.103	21001
897.224	20998
897.345	20921
897.466	20944
897.587	20914
897.708	20948
897.828	20880
897.949	20807
898.07	20682
898.19	20731
898.311	20933
898.431	20804
898.552	20826
898.672	20807
898.792	20838
898.913	20918
899.033	20617
899.153	20648
899.273	20488
899.393	20602
899.513	20473
899.633	20609
899.753	20492
899.873	20507
899.993	20503
900.113	20400
900.232	20530
900.352	20617
900.472	20385
900.591	20271
900.711	20301
900.83	20301
900.95	20374
901.069	20469
901.189	20187
901.308	19955
901.427	20069
901.546	20016
901.665	19906
901.784	20031
901.904	19776
902.023	19696
902.141	19472
902.26	19384
902.379	19476
902.498	19403
902.617	19312
902.735	19544
902.854	19400
902.973	19251
903.091	19008
903.21	19072
903.328	19091
903.446	18954
903.565	18913
903.683	18875
903.801	18722
903.919	18810
904.038	18719
904.156	18620
904.274	18757
904.392	18654
904.51	18589
904.627	18559
904.745	18700
904.863	18715
904.981	18437
905.098	18327
905.216	18213
905.334	18300
905.451	18311
905.569	18224
905.686	18330
905.803	18239
905.921	18041
906.038	18163
906.155	18163
906.272	17923
906.389	18007
906.506	17824
906.623	17889
906.74	17756
906.857	17623
906.974	17710
907.091	17988
907.208	17908
907.324	17790
907.441	17611
907.557	17520
907.674	17585
907.79	17402
907.907	17425
908.023	17516
908.139	17516
908.256	17406
908.372	17349
908.488	17311
908.604	17193
908.72	17204
908.836	17136
908.952	17162
909.068	17208
909.184	17288
909.3	17162
909.415	17098
909.531	17227
909.647	16816
909.762	16877
909.878	16847
909.993	16835
910.108	16801
910.224	16839
910.339	16812
910.454	16782
910.57	16580
910.685	16656
910.8	16961
910.915	16805
911.03	16664
911.145	16455
911.259	16413
911.374	16398
911.489	16375
911.604	16272
911.718	16158
911.833	16234
911.947	16162
912.062	16067
912.176	16200
912.291	16268
912.405	16261
912.519	16409
912.633	16344
912.748	16204
912.862	16048
912.976	16093
913.09	15941
913.204	15846
913.318	15915
913.431	16105
913.545	16044
913.659	16063
913.772	15960
913.886	15774
914	15781
914.113	15861
914.226	15854
914.34	15972
914.453	15728
914.566	15827
914.68	15766
914.793	15675
914.906	15526
915.019	15412
915.132	15329
915.245	15336
915.358	15412
915.47	15351
915.583	15386
915.696	15431
915.809	15507
915.921	15405
916.034	15310
916.146	15214
916.259	15260
916.371	15393
916.483	15306
916.595	15222
916.708	15192
916.82	15173
916.932	15169
917.044	15146
917.156	15199
917.268	14994
917.38	15097
917.491	14944
917.603	15089
917.715	15081
917.826	15100
917.938	14944
918.049	14864
918.161	14975
918.272	14971
918.384	15093
918.495	14941
918.606	14834
918.717	14659
918.828	14788
918.939	14769
919.05	14712
919.161	14804
919.272	14507
919.383	14674
919.494	14697
919.604	14971
919.715	14667
919.826	14625
919.936	14674
920.047	14769
920.157	14682
920.267	14895
920.378	14686
920.488	14594
920.598	14864
920.708	15001
920.818	14823
920.928	14819
921.038	14918
921.148	14937
921.258	14644
921.368	14503
921.477	14370
921.587	14408
921.697	14271
921.806	14343
921.916	14240
922.025	14130
922.134	14126
922.244	14058
922.353	14138
922.462	13898
922.571	13849
922.68	13822
922.789	13723
922.898	13677
923.007	13605
923.116	13693
923.224	13647
923.333	13670
923.442	13537
923.55	13434
923.659	13525
923.767	13457
923.876	13453
923.984	13632
924.092	13373
924.201	13331
924.309	13373
924.417	13350
924.525	13430
924.633	13339
924.741	14069
924.849	13145
924.956	13285
925.064	13088
925.172	13057
925.279	13031
925.387	13088
925.494	13099
925.602	13152
925.709	13107
925.816	13042
925.924	13015
926.031	13091
926.138	12996
926.245	13088
926.352	12962
926.459	13145
926.566	13110
926.673	12890
926.779	12886
926.886	12810
926.993	12635
927.099	12681
927.206	12551
927.312	12631
927.419	12726
927.525	12620
927.631	12627
927.737	12547
927.843	12509
927.95	12361
928.056	12448
928.162	12502
928.267	12502
928.373	13206
928.479	12532
928.585	12235
928.69	12399
928.796	12414
928.901	12308
929.007	12220
929.112	12304
929.218	12292
929.323	12095
929.428	12186
929.533	12323
929.638	12133
929.743	12098
929.848	12182
929.953	12194
930.058	12068
930.163	11859
930.267	11859
930.372	11927
930.477	11798
930.581	11999
930.685	11855
930.79	11767
930.894	11733
930.998	11729
931.103	11866
931.207	11379
931.311	11387
931.415	11330
931.519	11113
931.623	11014
