Data from test_V78500241_1260.txt Node
Date: Fri Mar 25 15:50:31 CST 2022
User: usil
Spectrometer: V785-0024
Trigger mode: 0
Integration Time (sec): 4.000000E-1
Scans to average: 1
Nonlinearity correction enabled: false
Boxcar width: 0
Storing dark spectrum: false
XAxis mode: Wavelengths
Number of Pixels in Spectrum: 1024
>>>>>Begin Spectral Data<<<<<
801.071	28892
801.214	28881
801.356	28668
801.499	28668
801.641	28489
801.783	28489
801.926	28497
802.068	28519
802.211	28428
802.353	28314
802.496	28177
802.638	28120
802.78	28051
802.923	28150
803.065	28040
803.208	28135
803.35	28295
803.492	28295
803.635	28253
803.777	28249
803.919	28481
804.061	28615
804.204	28489
804.346	28356
804.488	28287
804.63	28371
804.773	28310
804.915	28436
805.057	28641
805.199	28390
805.341	28542
805.483	28645
805.626	28618
805.768	28341
805.91	28599
806.052	28740
806.194	28538
806.336	28694
806.478	28596
806.62	28675
806.762	28725
806.904	28847
807.046	29132
807.188	28987
807.33	29166
807.472	29044
807.614	28976
807.756	29094
807.898	28847
808.04	28873
808.182	28946
808.324	28767
808.465	28896
808.607	29166
808.749	29410
808.891	29223
809.033	29330
809.174	29482
809.316	29273
809.458	29284
809.6	29147
809.741	29364
809.883	29463
810.025	29611
810.166	29627
810.308	29668
810.45	29577
810.591	29345
810.733	29299
810.875	29265
811.016	29166
811.158	29193
811.299	29372
811.441	29337
811.582	29440
811.724	29398
811.865	29140
812.007	29220
812.148	29250
812.29	29280
812.431	29627
812.573	29592
812.714	29699
812.855	29935
812.997	29912
813.138	30053
813.279	29946
813.421	29882
813.562	29798
813.703	29710
813.845	29379
813.986	29326
814.127	29178
814.268	29094
814.41	29098
814.551	29083
814.692	29029
814.833	28927
814.974	29056
815.115	29041
815.256	28839
815.397	28885
815.539	28869
815.68	28881
815.821	28717
815.962	28805
816.103	28801
816.244	28569
816.385	28664
816.526	28580
816.666	28504
816.807	28371
816.948	28333
817.089	28546
817.23	28542
817.371	28329
817.512	28314
817.653	28257
817.793	28223
817.934	28253
818.075	28272
818.216	28398
818.356	28276
818.497	28257
818.638	28185
818.778	28188
818.919	28078
819.06	28204
819.2	28443
819.341	28333
819.481	28390
819.622	28546
819.762	28877
819.903	28656
820.043	28580
820.184	28531
820.324	28546
820.465	28637
820.605	28584
820.746	28394
820.886	28299
821.026	28348
821.167	28542
821.307	28489
821.447	28436
821.588	28306
821.728	28158
821.868	27968
822.008	27854
822.149	27850
822.289	27880
822.429	27553
822.569	27583
822.709	27557
822.849	27268
822.99	27336
823.13	27306
823.27	27195
823.41	27256
823.55	27009
823.69	27199
823.83	27192
823.97	27157
824.11	27005
824.25	26971
824.389	27024
824.529	27169
824.669	27077
824.809	27165
824.949	27154
825.089	27287
825.228	27043
825.368	26845
825.508	26864
825.648	26963
825.787	26826
825.927	27020
826.067	26864
826.206	27020
826.346	26891
826.485	26902
826.625	26998
826.765	26921
826.904	26906
827.044	26701
827.183	26670
827.323	26651
827.462	26731
827.601	26609
827.741	26663
827.88	26712
828.02	26530
828.159	26438
828.298	26587
828.437	26651
828.577	26545
828.716	26765
828.855	26606
828.994	26290
829.134	26400
829.273	26332
829.412	26225
829.551	26237
829.69	26271
829.829	26275
829.968	26457
830.107	26412
830.246	26313
830.385	26187
830.524	26088
830.663	26107
830.802	25986
830.941	25951
831.08	25830
831.219	25959
831.357	25989
831.496	26130
831.635	25837
831.774	25890
831.913	25784
832.051	25753
832.19	25742
832.329	25681
832.467	25628
832.606	25628
832.744	25590
832.883	25670
833.022	25559
833.16	25510
833.299	25575
833.437	25601
833.576	25674
833.714	25616
833.852	25696
833.991	25681
834.129	25586
834.267	25784
834.406	25571
834.544	25700
834.682	25700
834.821	25620
834.959	25772
835.097	25605
835.235	25708
835.373	25704
835.511	25609
835.65	25460
835.788	25445
835.926	25270
836.064	25213
836.202	25301
836.34	25525
836.478	25479
836.615	25396
836.753	25415
836.891	25479
837.029	25521
837.167	25396
837.305	25324
837.443	25460
837.58	25095
837.718	25312
837.856	25297
837.993	25206
838.131	25297
838.269	25160
838.406	25194
838.544	25122
838.681	24985
838.819	24863
838.956	24905
839.094	24684
839.231	24738
839.369	24871
839.506	25190
839.643	25004
839.781	24734
839.918	24639
840.055	24802
840.193	24681
840.33	24612
840.467	24665
840.604	24730
840.742	25019
840.879	24525
841.016	24642
841.153	24608
841.29	24776
841.427	24665
841.564	24688
841.701	24555
841.838	24623
841.975	24494
842.112	24498
842.249	24315
842.385	24433
842.522	24589
842.659	24547
842.796	24456
842.933	24376
843.069	24342
843.206	24353
843.343	24467
843.479	24327
843.616	24342
843.752	24095
843.889	24243
844.025	24197
844.162	24072
844.298	24254
844.435	24197
844.571	24117
844.708	24186
844.844	24266
844.98	24167
845.117	24292
845.253	24095
845.389	24022
845.525	24144
845.661	23977
845.798	24003
845.934	24041
846.07	23920
846.206	24045
846.342	24038
846.478	23977
846.614	23653
846.75	23543
846.886	23604
847.022	23630
847.158	23577
847.294	23554
847.429	23619
847.565	23490
847.701	23783
847.837	23395
847.972	23258
848.108	23474
848.244	23387
848.379	23307
848.515	23280
848.65	23086
848.786	23140
848.921	23212
849.057	23334
849.192	23162
849.328	23292
849.463	23223
849.598	23083
849.734	23098
849.869	23181
850.004	23056
850.14	23052
850.275	23083
850.41	22923
850.545	23006
850.68	22942
850.815	23022
850.95	22980
851.085	23185
851.22	23079
851.355	22976
851.49	23022
851.625	22915
851.76	22892
851.895	22968
852.03	22877
852.165	23048
852.299	23010
852.434	23018
852.569	22965
852.703	22934
852.838	23037
852.973	23052
853.107	22953
853.242	23003
853.376	22847
853.511	22656
853.645	22908
853.78	22854
853.914	22824
854.048	22649
854.183	22778
854.317	22862
854.451	22858
854.585	22786
854.72	22820
854.854	22771
854.988	22748
855.122	22812
855.256	22630
855.39	22733
855.524	22869
855.658	22782
855.792	22786
855.926	22790
856.06	22869
856.194	22938
856.327	22748
856.461	22755
856.595	22649
856.729	22752
856.862	22892
856.996	22824
857.13	22782
857.263	22854
857.397	22752
857.53	22717
857.664	22786
857.797	22778
857.931	22923
858.064	22911
858.197	22812
858.331	22721
858.464	22607
858.597	22649
858.731	22710
858.864	22828
858.997	22596
859.13	22790
859.263	22877
859.396	22782
859.529	22771
859.662	22744
859.795	22694
859.928	22748
860.061	22953
860.194	22953
860.327	22927
860.46	22805
860.592	22923
860.725	22930
860.858	22892
860.99	22805
861.123	22763
861.256	22831
861.388	22736
861.521	23296
861.653	22786
861.786	22580
861.918	22679
862.05	22706
862.183	22744
862.315	22706
862.447	22790
862.58	22702
862.712	22485
862.844	22557
862.976	22577
863.108	22470
863.24	22858
863.372	22440
863.504	22413
863.636	22485
863.768	22523
863.9	22417
864.032	22360
864.164	22303
864.296	22440
864.428	22645
864.559	22485
864.691	22508
864.823	22512
864.954	22462
865.086	22497
865.217	22375
865.349	22234
865.48	22314
865.612	22348
865.743	22443
865.875	22470
866.006	22276
866.137	22485
866.269	22192
866.4	22249
866.531	22314
866.662	22207
866.793	22318
866.924	22375
867.055	22325
867.186	22226
867.317	22272
867.448	22169
867.579	22322
867.71	22291
867.841	22139
867.972	22306
868.103	22169
868.233	22318
868.364	22295
868.495	22341
868.625	22436
868.756	22588
868.886	22538
869.017	22538
869.147	22535
869.278	22580
869.408	22455
869.539	22523
869.669	22569
869.799	22618
869.929	22569
870.06	22641
870.19	22740
870.32	22892
870.45	22892
870.58	22881
870.71	22885
870.84	22987
870.97	22896
871.1	22862
871.23	23128
871.36	23113
871.489	23151
871.619	23033
871.749	23151
871.879	23102
872.008	23280
872.138	23155
872.267	22995
872.397	22980
872.526	22889
872.656	22908
872.785	22980
872.915	23216
873.044	23284
873.173	23181
873.303	23220
873.432	23166
873.561	23124
873.69	23121
873.819	23166
873.948	23147
874.077	23239
874.206	23006
874.335	23052
874.464	23269
874.593	23273
874.722	23326
874.851	23341
874.979	23398
875.108	23220
875.237	23368
875.365	23208
875.494	23292
875.623	23337
875.751	23322
875.88	23410
876.008	23448
876.136	23417
876.265	23703
876.393	23836
876.521	23779
876.65	23866
876.778	23726
876.906	23802
877.034	23649
877.162	23581
877.29	23478
877.418	23737
877.546	23653
877.674	23592
877.802	23642
877.93	23695
878.058	23604
878.185	23615
878.313	23551
878.441	23608
878.568	23474
878.696	23592
878.824	23885
878.951	23733
879.079	23764
879.206	23923
879.333	23954
879.461	23668
879.588	23847
879.715	23802
879.842	23840
879.97	23745
880.097	23463
880.224	23512
880.351	23455
880.478	23528
880.605	23425
880.732	23478
880.859	23710
880.986	23486
881.112	23452
881.239	23391
881.366	23303
881.493	23098
881.619	23044
881.746	23147
881.872	23113
881.999	22930
882.125	23079
882.252	23296
882.378	23022
882.505	23105
882.631	22805
882.757	22828
882.883	22763
883.01	22729
883.136	22706
883.262	22538
883.388	22478
883.514	22820
883.64	22828
883.766	22588
883.892	22405
884.018	22459
884.143	22584
884.269	22698
884.395	22447
884.52	22394
884.646	22287
884.772	22322
884.897	22211
885.023	22375
885.148	22371
885.274	22443
885.399	22440
885.524	22436
885.65	22371
885.775	22455
885.9	22314
886.025	22352
886.15	22382
886.275	22219
886.4	22341
886.525	22303
886.65	22276
886.775	22249
886.9	22466
887.025	22428
887.149	22333
887.274	22177
887.399	22276
887.523	22112
887.648	22032
887.773	21983
887.897	22219
888.021	22158
888.146	22063
888.27	22181
888.395	22226
888.519	22059
888.643	22109
888.767	22124
888.891	22051
889.015	21949
889.139	22006
889.263	21941
889.387	21926
889.511	22150
889.635	22097
889.759	21812
889.883	21884
890.006	21968
890.13	22032
890.254	21732
890.377	21747
890.501	21637
890.624	21591
890.748	21698
890.871	21454
890.995	21496
891.118	21424
891.241	21488
891.364	21469
891.488	21580
891.611	21454
891.734	21321
891.857	21595
891.98	21287
892.103	21481
892.226	21367
892.349	21332
892.471	21332
892.594	21325
892.717	21435
892.839	21302
892.962	21275
893.085	21412
893.207	21332
893.33	21256
893.452	21203
893.575	21268
893.697	21264
893.819	21408
893.941	21488
894.064	21378
894.186	21252
894.308	21351
894.43	21359
894.552	21557
894.674	21325
894.796	21211
894.918	21165
895.04	21317
895.161	21298
895.283	21332
895.405	21256
895.526	21169
895.648	21344
895.769	21313
895.891	21317
896.012	21344
896.134	21260
896.255	21310
896.376	21058
896.498	21329
896.619	21237
896.74	21237
896.861	21279
896.982	21629
897.103	21743
897.224	21564
897.345	21485
897.466	21374
897.587	21477
897.708	21644
897.828	21583
897.949	21435
898.07	21306
898.19	21405
898.311	21420
898.431	21294
898.552	21553
898.672	21561
898.792	21576
898.913	21351
899.033	21424
899.153	21192
899.273	21074
899.393	21272
899.513	21313
899.633	21127
899.753	21272
899.873	21058
899.993	21302
900.113	21047
900.232	21184
900.352	21135
900.472	21093
900.591	20853
900.711	21116
900.83	20880
900.95	21089
901.069	21173
901.189	20796
901.308	20682
901.427	20488
901.546	20530
901.665	20469
901.784	20556
901.904	20393
902.023	20263
902.141	20081
902.26	20016
902.379	20157
902.498	20012
902.617	20001
902.735	20153
902.854	19993
902.973	20027
903.091	19750
903.21	19681
903.328	19655
903.446	19556
903.565	19540
903.683	19476
903.801	19346
903.919	19339
904.038	19289
904.156	19343
904.274	19240
904.392	19358
904.51	19179
904.627	19266
904.745	19202
904.863	19247
904.981	18977
905.098	18901
905.216	18909
905.334	18966
905.451	18981
905.569	18882
905.686	18897
905.803	18905
905.921	18722
906.038	18817
906.155	18730
906.272	18486
906.389	18639
906.506	18395
906.623	18464
906.74	18403
906.857	18239
906.974	18384
907.091	18494
907.208	18464
907.324	18448
907.441	18315
907.557	18167
907.674	18304
907.79	18060
907.907	18136
908.023	18174
908.139	18213
908.256	18068
908.372	18057
908.488	18068
908.604	17893
908.72	17885
908.836	17786
908.952	17847
909.068	17786
909.184	17988
909.3	17824
909.415	17927
909.531	17828
909.647	17558
909.762	17638
909.878	17509
909.993	17661
910.108	17581
910.224	17463
910.339	17547
910.454	17410
910.57	17254
910.685	17292
910.8	17615
910.915	17482
911.03	17398
911.145	17109
911.259	17166
911.374	17121
911.489	17113
911.604	17003
911.718	16869
911.833	16881
911.947	16911
912.062	16748
912.176	16984
912.291	16961
912.405	16972
912.519	16949
912.633	17052
912.748	16881
912.862	16828
912.976	16706
913.09	16466
913.204	16615
913.318	16645
913.431	16793
913.545	16752
913.659	16702
913.772	16599
913.886	16443
914	16390
914.113	16527
914.226	16535
914.34	16531
914.453	16257
914.566	16485
914.68	16265
914.793	16192
914.906	16124
915.019	16051
915.132	15964
915.245	16116
915.358	16006
915.47	16067
915.583	16143
915.696	16086
915.809	16078
915.921	16135
916.034	15991
916.146	15994
916.259	15907
916.371	16044
916.483	15987
916.595	15785
916.708	15869
916.82	15854
916.932	15865
917.044	15812
917.156	15861
917.268	15652
917.38	15625
917.491	15648
917.603	15660
917.715	15732
917.826	15785
917.938	15504
918.049	15447
918.161	15591
918.272	15625
918.384	15717
918.495	15564
918.606	15462
918.717	15310
918.828	15378
918.939	15504
919.05	15351
919.161	15397
919.272	15169
919.383	15287
919.494	15496
919.604	15542
919.715	15359
919.826	15233
919.936	15298
920.047	15473
920.157	15378
920.267	15458
920.378	15355
920.488	15214
920.598	15389
920.708	15644
920.818	15462
920.928	15393
921.038	15648
921.148	15553
921.258	15272
921.368	15252
921.477	15150
921.587	15138
921.697	14891
921.806	15062
921.916	14864
922.025	14785
922.134	14716
922.244	14651
922.353	14686
922.462	14556
922.571	14488
922.68	14298
922.789	14225
922.898	14305
923.007	14385
923.116	14339
923.224	14237
923.333	14130
923.442	14199
923.55	14145
923.659	14092
923.767	14221
923.876	14027
923.984	14183
924.092	13936
924.201	13967
924.309	14005
924.417	14050
924.525	14008
924.633	13982
924.741	14948
924.849	13734
924.956	13868
925.064	13780
925.172	13590
925.279	13674
925.387	13750
925.494	13769
925.602	13833
925.709	13750
925.816	13597
925.924	13632
926.031	13677
926.138	13609
926.245	13723
926.352	13502
926.459	13655
926.566	13643
926.673	13624
926.779	13392
926.886	13343
926.993	13221
927.099	13274
927.206	13156
927.312	13232
927.419	13320
927.525	13126
927.631	13221
927.737	13126
927.843	13110
927.95	12962
928.056	13088
928.162	13069
928.267	13084
928.373	13704
928.479	13129
928.585	12738
928.69	13004
928.796	13008
928.901	12909
929.007	12711
929.112	12882
929.218	12878
929.323	12837
929.428	12684
929.533	12882
929.638	12719
929.743	12650
929.848	12753
929.953	12658
930.058	12585
930.163	12330
930.267	12448
930.372	12631
930.477	12357
930.581	12681
930.685	12418
930.79	12285
930.894	12369
930.998	12266
931.103	12357
931.207	12015
931.311	11904
931.415	11912
931.519	11722
931.623	11703
