Data from test_V78500241_2588.txt Node
Date: Fri Mar 25 15:59:43 CST 2022
User: usil
Spectrometer: V785-0024
Trigger mode: 0
Integration Time (sec): 4.000000E-1
Scans to average: 1
Nonlinearity correction enabled: false
Boxcar width: 0
Storing dark spectrum: false
XAxis mode: Wavelengths
Number of Pixels in Spectrum: 1024
>>>>>Begin Spectral Data<<<<<
801.071	28599
801.214	28550
801.356	28200
801.499	28329
801.641	28139
801.783	28166
801.926	28276
802.068	28158
802.211	28093
802.353	28070
802.496	27880
802.638	27934
802.78	27835
802.923	27899
803.065	27633
803.208	27888
803.35	27812
803.492	27922
803.635	28257
803.777	28135
803.919	28268
804.061	28424
804.204	28196
804.346	28078
804.488	27994
804.63	28044
804.773	28097
804.915	28192
805.057	28200
805.199	28086
805.341	28109
805.483	28344
805.626	28200
805.768	28128
805.91	28211
806.052	28230
806.194	28200
806.336	28440
806.478	28230
806.62	28265
806.762	28375
806.904	28565
807.046	28763
807.188	28721
807.33	28752
807.472	28736
807.614	28744
807.756	28691
807.898	28672
808.04	28516
808.182	28557
808.324	28497
808.465	28694
808.607	28911
808.749	28888
808.891	28984
809.033	29136
809.174	29014
809.316	29109
809.458	28835
809.6	28877
809.741	29227
809.883	29094
810.025	29140
810.166	29189
810.308	29429
810.45	29124
810.591	29155
810.733	29083
810.875	28896
811.016	28927
811.158	28984
811.299	28987
811.441	29189
811.582	29033
811.724	29010
811.865	28767
812.007	28797
812.148	28957
812.29	28987
812.431	29242
812.573	29368
812.714	29246
812.855	29429
812.997	29745
813.138	29680
813.279	29535
813.421	29497
813.562	29383
813.703	29227
813.845	29121
813.986	28862
814.127	28748
814.268	28733
814.41	28615
814.551	28500
814.692	28740
814.833	28645
814.974	28535
815.115	28740
815.256	28672
815.397	28554
815.539	28535
815.68	28481
815.821	28386
815.962	28573
816.103	28512
816.244	28318
816.385	28185
816.526	28196
816.666	28116
816.807	28055
816.948	27934
817.089	28032
817.23	28051
817.371	27979
817.512	27983
817.653	27751
817.793	27873
817.934	27922
818.075	27903
818.216	27994
818.356	27911
818.497	27789
818.638	27675
818.778	27797
818.919	27842
819.06	27774
819.2	27884
819.341	27907
819.481	27964
819.622	28093
819.762	28356
819.903	28215
820.043	28147
820.184	28173
820.324	28154
820.465	28169
820.605	28124
820.746	28082
820.886	28017
821.026	27991
821.167	28082
821.307	28093
821.447	28128
821.588	27857
821.728	27747
821.868	27534
822.008	27462
822.149	27412
822.289	27466
822.429	27249
822.569	27173
822.709	27055
822.849	26921
822.99	26967
823.13	26948
823.27	26754
823.41	26773
823.55	26682
823.69	26819
823.83	26800
823.97	26712
824.11	26507
824.25	26438
824.389	26518
824.529	26598
824.669	26621
824.809	26701
824.949	26636
825.089	26785
825.228	26583
825.368	26431
825.508	26484
825.648	26362
825.787	26442
825.927	26385
826.067	26503
826.206	26484
826.346	26434
826.485	26530
826.625	26473
826.765	26697
826.904	26522
827.044	26263
827.183	26336
827.323	26149
827.462	26176
827.601	26225
827.741	26233
827.88	26290
828.02	26096
828.159	26081
828.298	26122
828.437	26309
828.577	26111
828.716	26381
828.855	26130
828.994	25826
829.134	25837
829.273	25769
829.412	25860
829.551	25731
829.69	25997
829.829	25894
829.968	25963
830.107	25875
830.246	25871
830.385	25837
830.524	25761
830.663	25734
830.802	25605
830.941	25491
831.08	25502
831.219	25590
831.357	25464
831.496	25799
831.635	25415
831.774	25400
831.913	25377
832.051	25274
832.19	25251
832.329	25392
832.467	25114
832.606	25133
832.744	25088
832.883	25160
833.022	25008
833.16	25129
833.299	25095
833.437	25190
833.576	25175
833.714	25194
833.852	25255
833.991	25225
834.129	25228
834.267	25251
834.406	25282
834.544	25240
834.682	25263
834.821	25137
834.959	25396
835.097	25171
835.235	25304
835.373	25156
835.511	25194
835.65	25027
835.788	25046
835.926	24859
836.064	24764
836.202	24859
836.34	25107
836.478	25152
836.615	24954
836.753	24992
836.891	25202
837.029	24913
837.167	25034
837.305	24871
837.443	24875
837.58	24947
837.718	24905
837.856	25034
837.993	24833
838.131	24791
838.269	24757
838.406	24745
838.544	24669
838.681	24585
838.819	24551
838.956	24346
839.094	24273
839.231	24369
839.369	24513
839.506	24646
839.643	24639
839.781	24281
839.918	24270
840.055	24228
840.193	24163
840.33	24152
840.467	24319
840.604	24330
840.742	24616
840.879	23935
841.016	24182
841.153	24060
841.29	24311
841.427	24125
841.564	24281
841.701	24117
841.838	24102
841.975	24136
842.112	24117
842.249	24110
842.385	24022
842.522	24197
842.659	24049
842.796	23863
842.933	24026
843.069	23817
843.206	23855
843.343	23939
843.479	24079
843.616	23942
843.752	23802
843.889	23786
844.025	23950
844.162	23676
844.298	23904
844.435	23790
844.571	23657
844.708	23764
844.844	24038
844.98	23878
845.117	23821
845.253	23676
845.389	23459
845.525	23646
845.661	23608
845.798	23520
845.934	23444
846.07	23379
846.206	23486
846.342	23512
846.478	23452
846.614	23189
846.75	23166
846.886	23216
847.022	23170
847.158	23254
847.294	23265
847.429	23334
847.565	23193
847.701	23376
847.837	22984
847.972	23006
848.108	23048
848.244	23014
848.379	22843
848.515	22763
848.65	22771
848.786	22748
848.921	22850
849.057	22835
849.192	22809
849.328	22824
849.463	22839
849.598	22778
849.734	22637
849.869	22664
850.004	22618
850.14	22653
850.275	22573
850.41	22577
850.545	22508
850.68	22550
850.815	22523
850.95	22634
851.085	22733
851.22	22702
851.355	22577
851.49	22516
851.625	22523
851.76	22432
851.895	22405
852.03	22428
852.165	22592
852.299	22603
852.434	22622
852.569	22561
852.703	22398
852.838	22573
852.973	22588
853.107	22660
853.242	22432
853.376	22421
853.511	22344
853.645	22337
853.78	22508
853.914	22413
854.048	22367
854.183	22303
854.317	22497
854.451	22622
854.585	22314
854.72	22409
854.854	22363
854.988	22272
855.122	22386
855.256	22329
855.39	22295
855.524	22451
855.658	22497
855.792	22360
855.926	22409
856.06	22432
856.194	22333
856.327	22421
856.461	22284
856.595	22363
856.729	22322
856.862	22546
856.996	22348
857.13	22470
857.263	22485
857.397	22508
857.53	22432
857.664	22432
857.797	22356
857.931	22478
858.064	22379
858.197	22535
858.331	22325
858.464	22223
858.597	22219
858.731	22379
858.864	22436
858.997	22287
859.13	22284
859.263	22299
859.396	22451
859.529	22398
859.662	22382
859.795	22390
859.928	22440
860.061	22573
860.194	22557
860.327	22443
860.46	22382
860.592	22519
860.725	22398
860.858	22402
860.99	22474
861.123	22390
861.256	22337
861.388	22337
861.521	23113
861.653	22363
861.786	22230
861.918	22276
862.05	22211
862.183	22329
862.315	22295
862.447	22436
862.58	22322
862.712	21972
862.844	22139
862.976	22242
863.108	22177
863.24	22592
863.372	21972
863.504	22173
863.636	22143
863.768	22120
863.9	22090
864.032	21960
864.164	22051
864.296	22173
864.428	22177
864.559	22177
864.691	22169
864.823	21903
864.954	22211
865.086	22051
865.217	21991
865.349	21865
865.48	22135
865.612	22044
865.743	22097
865.875	22021
866.006	22013
866.137	21956
866.269	21991
866.4	21983
866.531	21907
866.662	21793
866.793	21972
866.924	21953
867.055	21975
867.186	21785
867.317	21819
867.448	21789
867.579	22040
867.71	21827
867.841	21960
867.972	21915
868.103	21926
868.233	21838
868.364	21846
868.495	22029
868.625	22078
868.756	22295
868.886	22082
869.017	22154
869.147	22234
869.278	22211
869.408	22196
869.539	22181
869.669	22219
869.799	22230
869.929	22219
870.06	22234
870.19	22386
870.32	22451
870.45	22405
870.58	22516
870.71	22630
870.84	22668
870.97	22668
871.1	22542
871.23	22729
871.36	22774
871.489	22634
871.619	22698
871.749	22725
871.879	22721
872.008	22763
872.138	22687
872.267	22733
872.397	22641
872.526	22588
872.656	22535
872.785	22531
872.915	22824
873.044	22733
873.173	22801
873.303	22744
873.432	22866
873.561	22911
873.69	22816
873.819	22896
873.948	22892
874.077	22767
874.206	22706
874.335	22805
874.464	22858
874.593	23003
874.722	22976
874.851	22885
874.979	22968
875.108	23025
875.237	22904
875.365	22889
875.494	22953
875.623	22972
875.751	23044
875.88	23010
876.008	23056
876.136	23094
876.265	23402
876.393	23440
876.521	23429
876.65	23528
876.778	23395
876.906	23379
877.034	23307
877.162	23318
877.29	23254
877.418	23463
877.546	23364
877.674	23231
877.802	23258
877.93	23444
878.058	23204
878.185	23079
878.313	23277
878.441	23220
878.568	23197
878.696	23311
878.824	23406
878.951	23337
879.079	23410
879.206	23592
879.333	23493
879.461	23341
879.588	23410
879.715	23398
879.842	23657
879.97	23364
880.097	23151
880.224	23239
880.351	23105
880.478	23117
880.605	23128
880.732	23170
880.859	23231
880.986	23246
881.112	23151
881.239	22980
881.366	22824
881.493	22717
881.619	22645
881.746	22721
881.872	22717
881.999	22721
882.125	22599
882.252	22790
882.378	22691
882.505	22763
882.631	22527
882.757	22432
882.883	22375
883.01	22421
883.136	22440
883.262	22158
883.388	22097
883.514	22451
883.64	22379
883.766	22360
883.892	22086
884.018	22249
884.143	22223
884.269	22405
884.395	22105
884.52	21926
884.646	22002
884.772	21949
884.897	21884
885.023	22021
885.148	22093
885.274	22162
885.399	22166
885.524	22032
885.65	22059
885.775	22059
885.9	21922
886.025	22025
886.15	22006
886.275	22048
886.4	21876
886.525	22063
886.65	21983
886.775	21876
886.9	22147
887.025	22234
887.149	21884
887.274	21812
887.399	21701
887.523	21698
887.648	21717
887.773	21736
887.897	21854
888.021	21964
888.146	21800
888.27	21880
888.395	21884
888.519	21759
888.643	21873
888.767	21682
888.891	21644
889.015	21523
889.139	21599
889.263	21492
889.387	21739
889.511	21766
889.635	21637
889.759	21549
889.883	21481
890.006	21610
890.13	21660
890.254	21545
890.377	21561
890.501	21336
890.624	21199
890.748	21344
890.871	21310
890.995	21184
891.118	21024
891.241	21146
891.364	21127
891.488	21340
891.611	21169
891.734	21108
891.857	21252
891.98	21135
892.103	21116
892.226	21123
892.349	21062
892.471	20914
892.594	21005
892.717	20960
892.839	20937
892.962	21039
893.085	20998
893.207	21032
893.33	20876
893.452	20906
893.575	21051
893.697	20979
893.819	21241
893.941	21119
894.064	21104
894.186	21032
894.308	20853
894.43	20952
894.552	21230
894.674	21077
894.796	20971
894.918	20990
895.04	21017
895.161	20933
895.283	21085
895.405	20895
895.526	20925
895.648	21017
895.769	21096
895.891	20948
896.012	21157
896.134	21005
896.255	20990
896.376	20956
896.498	20960
896.619	20941
896.74	21055
896.861	20963
896.982	21272
897.103	21401
897.224	21211
897.345	21256
897.466	21268
897.587	21184
897.708	21306
897.828	21192
897.949	21077
898.07	20910
898.19	21051
898.311	21275
898.431	21081
898.552	21180
898.672	21306
898.792	21192
898.913	21268
899.033	21112
899.153	20933
899.273	20849
899.393	20857
899.513	20967
899.633	20929
899.753	20902
899.873	20861
899.993	20963
900.113	20811
900.232	20891
900.352	20902
900.472	20743
900.591	20625
900.711	20644
900.83	20590
900.95	20811
901.069	20705
901.189	20689
901.308	20339
901.427	20161
901.546	20248
901.665	20347
901.784	20309
901.904	20138
902.023	20054
902.141	19879
902.26	19772
902.379	19818
902.498	19662
902.617	19833
902.735	19753
902.854	19723
902.973	19727
903.091	19464
903.21	19422
903.328	19464
903.446	19285
903.565	19285
903.683	19266
903.801	19152
903.919	19198
904.038	19126
904.156	19061
904.274	19027
904.392	18920
904.51	18905
904.627	18840
904.745	18878
904.863	19015
904.981	18768
905.098	18650
905.216	18707
905.334	18688
905.451	18589
905.569	18616
905.686	18745
905.803	18635
905.921	18437
906.038	18498
906.155	18296
906.272	18296
906.389	18308
906.506	18163
906.623	18129
906.74	18197
906.857	18144
906.974	18178
907.091	18136
907.208	18251
907.324	18125
907.441	17950
907.557	17908
907.674	17790
907.79	17916
907.907	17847
908.023	17802
908.139	17824
908.256	17836
908.372	17718
908.488	17710
908.604	17600
908.72	17604
908.836	17627
908.952	17493
909.068	17589
909.184	17699
909.3	17611
909.415	17543
909.531	17585
909.647	17280
909.762	17322
909.878	17315
909.993	17265
910.108	17227
910.224	17254
910.339	17246
910.454	17079
910.57	17117
910.685	17003
910.8	17330
910.915	17258
911.03	17121
911.145	16987
911.259	16843
911.374	16877
911.489	16801
911.604	16740
911.718	16554
911.833	16584
911.947	16569
912.062	16531
912.176	16653
912.291	16634
912.405	16596
912.519	16736
912.633	16797
912.748	16618
912.862	16584
912.976	16424
913.09	16329
913.204	16421
913.318	16367
913.431	16489
913.545	16481
913.659	16550
913.772	16398
913.886	16280
914	16219
914.113	16207
914.226	16265
914.34	16325
914.453	16093
914.566	16181
914.68	16055
914.793	16071
914.906	15785
915.019	15880
915.132	15884
915.245	15698
915.358	15785
915.47	15808
915.583	15797
915.696	15808
915.809	15903
915.921	15842
916.034	15625
916.146	15675
916.259	15652
916.371	15728
916.483	15717
916.595	15526
916.708	15705
916.82	15542
916.932	15576
917.044	15622
917.156	15511
917.268	15466
917.38	15382
917.491	15389
917.603	15401
917.715	15496
917.826	15488
917.938	15306
918.049	15294
918.161	15351
918.272	15397
918.384	15519
918.495	15401
918.606	15268
918.717	15077
918.828	15165
918.939	15180
919.05	15184
919.161	15123
919.272	14933
919.383	15028
919.494	15241
919.604	15302
919.715	15146
919.826	15017
919.936	15100
920.047	15211
920.157	15131
920.267	15310
920.378	15169
920.488	15192
920.598	15176
920.708	15454
920.818	15275
920.928	15233
921.038	15435
921.148	15447
921.258	15020
921.368	14880
921.477	14834
921.587	14845
921.697	14735
921.806	14914
921.916	14823
922.025	14476
922.134	14495
922.244	14533
922.353	14469
922.462	14408
922.571	14309
922.68	14142
922.789	14157
922.898	14126
923.007	14100
923.116	14103
923.224	14046
923.333	14142
923.442	14031
923.55	14005
923.659	13967
923.767	13986
923.876	13826
923.984	13967
924.092	13769
924.201	13837
924.309	13883
924.417	13753
924.525	13753
924.633	13719
924.741	14689
924.849	13480
924.956	13670
925.064	13480
925.172	13472
925.279	13464
925.387	13540
925.494	13537
925.602	13677
925.709	13506
925.816	13457
925.924	13445
926.031	13510
926.138	13506
926.245	13506
926.352	13301
926.459	13396
926.566	13495
926.673	13274
926.779	13232
926.886	13209
926.993	13160
927.099	13027
927.206	13042
927.312	12985
927.419	13034
927.525	12943
927.631	13107
927.737	13008
927.843	12863
927.95	12787
928.056	12867
928.162	12810
928.267	12935
928.373	13346
928.479	12973
928.585	12703
928.69	12776
928.796	12905
928.901	12700
929.007	12528
929.112	12741
929.218	12597
929.323	12585
929.428	12585
929.533	12673
929.638	12544
929.743	12433
929.848	12593
929.953	12513
930.058	12441
930.163	12258
930.267	12235
930.372	12391
930.477	12247
930.581	12452
930.685	12365
930.79	12110
930.894	12129
930.998	12064
931.103	12308
931.207	11882
931.311	11821
931.415	11718
931.519	11528
931.623	11387
