Data from test_V78500241_326.txt Node
Date: Fri Mar 25 15:44:03 CST 2022
User: usil
Spectrometer: V785-0024
Trigger mode: 0
Integration Time (sec): 4.000000E-1
Scans to average: 1
Nonlinearity correction enabled: false
Boxcar width: 0
Storing dark spectrum: false
XAxis mode: Wavelengths
Number of Pixels in Spectrum: 1024
>>>>>Begin Spectral Data<<<<<
801.071	29809
801.214	29866
801.356	29501
801.499	29497
801.641	29482
801.783	29322
801.926	29459
802.068	29440
802.211	29417
802.353	29425
802.496	29121
802.638	29132
802.78	29117
802.923	29075
803.065	29044
803.208	29265
803.35	29220
803.492	29162
803.635	29307
803.777	29197
803.919	29353
804.061	29570
804.204	29239
804.346	29280
804.488	29288
804.63	29455
804.773	29254
804.915	29402
805.057	29417
805.199	29299
805.341	29391
805.483	29490
805.626	29459
805.768	29269
805.91	29440
806.052	29402
806.194	29512
806.336	29764
806.478	29505
806.62	29391
806.762	29554
806.904	29718
807.046	30026
807.188	30072
807.33	29885
807.472	30072
807.614	29817
807.756	29874
807.898	29699
808.04	29714
808.182	29680
808.324	29665
808.465	29714
808.607	29935
808.749	30114
808.891	30213
809.033	30315
809.174	30205
809.316	30144
809.458	30068
809.6	30159
809.741	30197
809.883	30273
810.025	30311
810.166	30422
810.308	30365
810.45	30437
810.591	30361
810.733	30216
810.875	30091
811.016	30163
811.158	30125
811.299	30209
811.441	30327
811.582	30319
811.724	30209
811.865	30026
812.007	30190
812.148	30182
812.29	30285
812.431	30239
812.573	30342
812.714	30483
812.855	30582
812.997	30681
813.138	30821
813.279	30798
813.421	30544
813.562	30555
813.703	30563
813.845	30277
813.986	30133
814.127	29969
814.268	29954
814.41	29798
814.551	29794
814.692	29920
814.833	29756
814.974	29737
815.115	29813
815.256	29653
815.397	29589
815.539	29828
815.68	29497
815.821	29455
815.962	29509
816.103	29585
816.244	29372
816.385	29421
816.526	29197
816.666	29155
816.807	29071
816.948	29136
817.089	29280
817.23	29056
817.371	29025
817.512	29136
817.653	29029
817.793	29025
817.934	29003
818.075	29022
818.216	28987
818.356	29010
818.497	28923
818.638	28596
818.778	28748
818.919	28782
819.06	28824
819.2	28828
819.341	28976
819.481	29090
819.622	29181
819.762	29402
819.903	29330
820.043	29155
820.184	29200
820.324	29109
820.465	29250
820.605	29098
820.746	29185
820.886	29044
821.026	29094
821.167	29128
821.307	29178
821.447	29056
821.588	28930
821.728	28691
821.868	28557
822.008	28443
822.149	28363
822.289	28474
822.429	28242
822.569	28063
822.709	28188
822.849	27926
822.99	27930
823.13	27911
823.27	27838
823.41	27762
823.55	27618
823.69	27770
823.83	27759
823.97	27747
824.11	27564
824.25	27504
824.389	27644
824.529	27644
824.669	27637
824.809	27675
824.949	27587
825.089	27583
825.228	27545
825.368	27557
825.508	27462
825.648	27408
825.787	27462
825.927	27462
826.067	27283
826.206	27351
826.346	27359
826.485	27363
826.625	27340
826.765	27530
826.904	27431
827.044	27005
827.183	27047
827.323	27036
827.462	27169
827.601	27051
827.741	27165
827.88	27112
828.02	26838
828.159	27055
828.298	27123
828.437	27058
828.577	27005
828.716	27245
828.855	26921
828.994	26743
829.134	26769
829.273	26746
829.412	26693
829.551	26575
829.69	26826
829.829	26670
829.968	26792
830.107	26788
830.246	26644
830.385	26678
830.524	26621
830.663	26575
830.802	26457
830.941	26282
831.08	26225
831.219	26381
831.357	26385
831.496	26492
831.635	26282
831.774	26115
831.913	26062
832.051	26043
832.19	26081
832.329	26035
832.467	25947
832.606	25902
832.744	25784
832.883	25906
833.022	25909
833.16	25974
833.299	26008
833.437	25947
833.576	26046
833.714	26088
833.852	26100
833.991	26062
834.129	26065
834.267	26043
834.406	26043
834.544	25917
834.682	25978
834.821	25963
834.959	25989
835.097	25887
835.235	25959
835.373	25928
835.511	26001
835.65	25670
835.788	25822
835.926	25662
836.064	25567
836.202	25601
836.34	25849
836.478	25803
836.615	25704
836.753	25795
836.891	25647
837.029	25685
837.167	25807
837.305	25685
837.443	25605
837.58	25594
837.718	25655
837.856	25753
837.993	25575
838.131	25567
838.269	25472
838.406	25422
838.544	25312
838.681	25240
838.819	25122
838.956	24992
839.094	25019
839.231	25023
839.369	25164
839.506	25304
839.643	25228
839.781	25000
839.918	24806
840.055	25050
840.193	25004
840.33	24856
840.467	24958
840.604	24852
840.742	25198
840.879	24795
841.016	24802
841.153	24719
841.29	24913
841.427	24829
841.564	24871
841.701	24916
841.838	24719
841.975	24730
842.112	24726
842.249	24776
842.385	24597
842.522	24783
842.659	24661
842.796	24471
842.933	24490
843.069	24437
843.206	24639
843.343	24707
843.479	24475
843.616	24574
843.752	24285
843.889	24311
844.025	24395
844.162	24353
844.298	24308
844.435	24289
844.571	24235
844.708	24270
844.844	24410
844.98	24429
845.117	24334
845.253	24296
845.389	24197
845.525	24281
845.661	24190
845.798	23954
845.934	24121
846.07	24003
846.206	24034
846.342	24159
846.478	23999
846.614	23809
846.75	23737
846.886	23741
847.022	23737
847.158	23748
847.294	23771
847.429	23729
847.565	23684
847.701	23996
847.837	23433
847.972	23402
848.108	23585
848.244	23585
848.379	23376
848.515	23284
848.65	23356
848.786	23197
848.921	23265
849.057	23433
849.192	23455
849.328	23345
849.463	23395
849.598	23258
849.734	23151
849.869	23159
850.004	23136
850.14	23075
850.275	22869
850.41	22991
850.545	23006
850.68	22911
850.815	23079
850.95	23132
851.085	23162
851.22	23105
851.355	22965
851.49	23075
851.625	23014
851.76	22949
851.895	22938
852.03	22873
852.165	23029
852.299	23166
852.434	23006
852.569	22968
852.703	22991
852.838	23025
852.973	23181
853.107	23060
853.242	22976
853.376	22919
853.511	22763
853.645	22843
853.78	22919
853.914	22885
854.048	22763
854.183	22805
854.317	22904
854.451	23064
854.585	22946
854.72	22816
854.854	22801
854.988	22839
855.122	22854
855.256	22607
855.39	22881
855.524	22965
855.658	22782
855.792	22858
855.926	22881
856.06	22831
856.194	22900
856.327	22839
856.461	22721
856.595	22809
856.729	22683
856.862	22949
856.996	22797
857.13	22927
857.263	22919
857.397	22949
857.53	22858
857.664	22839
857.797	22839
857.931	22904
858.064	22919
858.197	22835
858.331	22835
858.464	22809
858.597	22748
858.731	22904
858.864	22767
858.997	22710
859.13	22801
859.263	22801
859.396	22877
859.529	22850
859.662	22698
859.795	22672
859.928	22744
860.061	22850
860.194	23006
860.327	22908
860.46	22748
860.592	22904
860.725	22896
860.858	22847
860.99	22915
861.123	22672
861.256	22721
861.388	22721
861.521	23497
861.653	22672
861.786	22470
861.918	22637
862.05	22752
862.183	22679
862.315	23014
862.447	22850
862.58	22752
862.712	22470
862.844	22538
862.976	22554
863.108	22546
863.24	22850
863.372	22462
863.504	22561
863.636	22447
863.768	22588
863.9	22470
864.032	22303
864.164	22344
864.296	22451
864.428	22523
864.559	22500
864.691	22333
864.823	22375
864.954	22402
865.086	22367
865.217	22360
865.349	22382
865.48	22440
865.612	22253
865.743	22405
865.875	22485
866.006	22284
866.137	22238
866.269	22356
866.4	22341
866.531	22261
866.662	22329
866.793	22299
866.924	22253
867.055	22249
867.186	22253
867.317	22150
867.448	22246
867.579	22200
867.71	22109
867.841	22166
867.972	22318
868.103	22234
868.233	22249
868.364	22295
868.495	22348
868.625	22398
868.756	22584
868.886	22402
869.017	22485
869.147	22592
869.278	22550
869.408	22542
869.539	22500
869.669	22542
869.799	22455
869.929	22542
870.06	22603
870.19	22759
870.32	22736
870.45	22949
870.58	22801
870.71	22976
870.84	22949
870.97	22805
871.1	22850
871.23	23117
871.36	23189
871.489	22991
871.619	23094
871.749	23239
871.879	23086
872.008	23204
872.138	23044
872.267	23090
872.397	22824
872.526	22995
872.656	22919
872.785	22911
872.915	23086
873.044	23265
873.173	23060
873.303	23204
873.432	23113
873.561	23113
873.69	23170
873.819	23121
873.948	23189
874.077	23109
874.206	23048
874.335	23098
874.464	23254
874.593	23353
874.722	23185
874.851	23261
874.979	23368
875.108	23395
875.237	23334
875.365	23242
875.494	23299
875.623	23455
875.751	23345
875.88	23349
876.008	23349
876.136	23512
876.265	23668
876.393	23767
876.521	23748
876.65	23680
876.778	23707
876.906	23817
877.034	23627
877.162	23661
877.29	23619
877.418	23775
877.546	23707
877.674	23710
877.802	23710
877.93	23562
878.058	23615
878.185	23467
878.313	23630
878.441	23760
878.568	23482
878.696	23490
878.824	23661
878.951	23668
879.079	23836
879.206	24026
879.333	23760
879.461	23665
879.588	23729
879.715	23760
879.842	24045
879.97	23577
880.097	23509
880.224	23471
880.351	23398
880.478	23501
880.605	23433
880.732	23520
880.859	23665
880.986	23512
881.112	23505
881.239	23436
881.366	23200
881.493	23200
881.619	22889
881.746	23113
881.872	23033
881.999	22968
882.125	22927
882.252	23162
882.378	22953
882.505	23029
882.631	22740
882.757	22748
882.883	22713
883.01	22801
883.136	22554
883.262	22634
883.388	22634
883.514	22683
883.64	22664
883.766	22634
883.892	22561
884.018	22538
884.143	22542
884.269	22790
884.395	22363
884.52	22341
884.646	22379
884.772	22337
884.897	22226
885.023	22424
885.148	22337
885.274	22451
885.399	22523
885.524	22310
885.65	22375
885.775	22287
885.9	22211
886.025	22375
886.15	22413
886.275	22185
886.4	22185
886.525	22238
886.65	22158
886.775	22356
886.9	22474
887.025	22596
887.149	22314
887.274	22131
887.399	22025
887.523	22177
887.648	22059
887.773	21880
887.897	22162
888.021	22078
888.146	21911
888.27	22226
888.395	22158
888.519	22162
888.643	22017
888.767	22143
888.891	21903
889.015	21865
889.139	21945
889.263	21907
889.387	21979
889.511	22116
889.635	22067
889.759	21854
889.883	21797
890.006	21793
890.13	21960
890.254	21785
890.377	21838
890.501	21663
890.624	21477
890.748	21675
890.871	21291
890.995	21424
891.118	21374
891.241	21454
891.364	21428
891.488	21511
891.611	21317
891.734	21549
891.857	21477
891.98	21424
892.103	21450
892.226	21408
892.349	21431
892.471	21131
892.594	21378
892.717	21420
892.839	21245
892.962	21443
893.085	21397
893.207	21363
893.33	21237
893.452	21127
893.575	21287
893.697	21329
893.819	21412
893.941	21424
894.064	21420
894.186	21245
894.308	21154
894.43	21245
894.552	21382
894.674	21367
894.796	21112
894.918	21230
895.04	21249
895.161	21374
895.283	21386
895.405	21291
895.526	21249
895.648	21370
895.769	21279
895.891	21317
896.012	21359
896.134	21310
896.255	21279
896.376	21313
896.498	21272
896.619	21340
896.74	21237
896.861	21306
896.982	21671
897.103	21797
897.224	21523
897.345	21553
897.466	21458
897.587	21507
897.708	21614
897.828	21500
897.949	21538
898.07	21272
898.19	21397
898.311	21507
898.431	21458
898.552	21477
898.672	21469
898.792	21511
898.913	21454
899.033	21218
899.153	21287
899.273	21218
899.393	21135
899.513	21203
899.633	21112
899.753	21108
899.873	21135
899.993	21230
900.113	21085
900.232	21119
900.352	21127
900.472	21017
900.591	20815
900.711	20979
900.83	20914
900.95	21077
901.069	20986
901.189	20811
901.308	20609
901.427	20427
901.546	20533
901.665	20465
901.784	20457
901.904	20328
902.023	20244
902.141	20149
902.26	19986
902.379	20077
902.498	19860
902.617	19936
902.735	20077
902.854	20024
902.973	19993
903.091	19681
903.21	19597
903.328	19651
903.446	19521
903.565	19392
903.683	19586
903.801	19430
903.919	19540
904.038	19373
904.156	19255
904.274	19358
904.392	19194
904.51	19126
904.627	19145
904.745	19236
904.863	19251
904.981	18928
905.098	18817
905.216	18825
905.334	18901
905.451	18901
905.569	18795
905.686	18886
905.803	18757
905.921	18486
906.038	18688
906.155	18646
906.272	18490
906.389	18498
906.506	18304
906.623	18311
906.74	18395
906.857	18163
906.974	18281
907.091	18486
907.208	18391
907.324	18266
907.441	18296
907.557	18079
907.674	18068
907.79	18060
907.907	17958
908.023	18068
908.139	17996
908.256	17942
908.372	17950
908.488	17897
908.604	17748
908.72	17813
908.836	17767
908.952	17748
909.068	17775
909.184	17764
909.3	17554
909.415	17691
909.531	17710
909.647	17592
909.762	17360
909.878	17410
909.993	17459
910.108	17231
910.224	17356
910.339	17448
910.454	17261
910.57	17208
910.685	17231
910.8	17341
910.915	17356
911.03	17246
911.145	17006
911.259	16995
911.374	16915
911.489	16957
911.604	16942
911.718	16668
911.833	16736
911.947	16626
912.062	16596
912.176	16790
912.291	16782
912.405	16710
912.519	16869
912.633	16809
912.748	16873
912.862	16698
912.976	16535
913.09	16485
913.204	16466
913.318	16584
913.431	16615
913.545	16565
913.659	16649
913.772	16481
913.886	16371
914	16200
914.113	16379
914.226	16584
914.34	16432
914.453	16147
914.566	16333
914.68	16234
914.793	16147
914.906	16006
915.019	15842
915.132	15857
915.245	15968
915.358	15922
915.47	15949
915.583	15983
915.696	15857
915.809	16055
915.921	16154
916.034	15857
916.146	15739
916.259	15759
916.371	15838
916.483	15850
916.595	15682
916.708	15629
916.82	15812
916.932	15660
917.044	15660
917.156	15568
917.268	15435
917.38	15473
917.491	15549
917.603	15507
917.715	15603
917.826	15644
917.938	15370
918.049	15355
918.161	15545
918.272	15580
918.384	15614
918.495	15412
918.606	15306
918.717	15169
918.828	15302
918.939	15230
919.05	15230
919.161	15184
919.272	14990
919.383	15066
919.494	15165
919.604	15458
919.715	15252
919.826	15116
919.936	15154
920.047	15249
920.157	15161
920.267	15351
920.378	15199
920.488	15138
920.598	15382
920.708	15481
920.818	15306
920.928	15291
921.038	15450
921.148	15397
921.258	15123
921.368	14975
921.477	14979
921.587	14933
921.697	14811
921.806	14918
921.916	14750
922.025	14552
922.134	14651
922.244	14465
922.353	14530
922.462	14465
922.571	14282
922.68	14309
922.789	14233
922.898	14225
923.007	14123
923.116	14142
923.224	14176
923.333	14168
923.442	13989
923.55	14016
923.659	14008
923.767	13967
923.876	13909
923.984	13928
924.092	13849
924.201	13909
924.309	13932
924.417	13974
924.525	13715
924.633	13811
924.741	14530
924.849	13540
924.956	13723
925.064	13552
925.172	13491
925.279	13472
925.387	13559
925.494	13605
925.602	13704
925.709	13616
925.816	13453
925.924	13449
926.031	13601
926.138	13365
926.245	13533
926.352	13460
926.459	13556
926.566	13525
926.673	13365
926.779	13198
926.886	13255
926.993	13038
927.099	13164
927.206	13053
927.312	13000
927.419	13053
927.525	13095
927.631	13141
927.737	12966
927.843	12852
927.95	12795
928.056	12920
928.162	12920
928.267	12878
928.373	13510
928.479	12932
928.585	12715
928.69	12814
928.796	12821
928.901	12703
929.007	12703
929.112	12745
929.218	12745
929.323	12639
929.428	12566
929.533	12779
929.638	12498
929.743	12547
929.848	12506
929.953	12547
930.058	12422
930.163	12342
930.267	12292
930.372	12410
930.477	12273
930.581	12433
930.685	12338
930.79	12182
930.894	12155
930.998	12125
931.103	12258
931.207	11836
931.311	11802
931.415	11665
931.519	11490
931.623	11490
