Data from test_V78500241_574.txt Node
Date: Fri Mar 25 15:45:46 CST 2022
User: usil
Spectrometer: V785-0024
Trigger mode: 0
Integration Time (sec): 4.000000E-1
Scans to average: 1
Nonlinearity correction enabled: false
Boxcar width: 0
Storing dark spectrum: false
XAxis mode: Wavelengths
Number of Pixels in Spectrum: 1024
>>>>>Begin Spectral Data<<<<<
801.071	27641
801.214	27572
801.356	27329
801.499	27252
801.641	27154
801.783	27306
801.926	27245
802.068	27165
802.211	27165
802.353	26849
802.496	26716
802.638	26960
802.78	26845
802.923	26823
803.065	26632
803.208	26845
803.35	26804
803.492	26940
803.635	27051
803.777	26796
803.919	26918
804.061	27165
804.204	26967
804.346	26925
804.488	26902
804.63	26830
804.773	26940
804.915	26998
805.057	27169
805.199	27013
805.341	27119
805.483	27100
805.626	27085
805.768	27017
805.91	27096
806.052	27089
806.194	26998
806.336	27355
806.478	27180
806.62	26956
806.762	27241
806.904	27549
807.046	27736
807.188	27564
807.33	27576
807.472	27652
807.614	27454
807.756	27416
807.898	27378
808.04	27256
808.182	27401
808.324	27416
808.465	27355
808.607	27572
808.749	27922
808.891	27827
809.033	27857
809.174	27808
809.316	27865
809.458	27797
809.6	27793
809.741	28010
809.883	27884
810.025	27979
810.166	27968
810.308	28013
810.45	28090
810.591	27918
810.733	27838
810.875	27739
811.016	27671
811.158	27686
811.299	27785
811.441	27998
811.582	28017
811.724	27774
811.865	27671
812.007	27637
812.148	27686
812.29	27816
812.431	28006
812.573	28093
812.714	28109
812.855	28299
812.997	28318
813.138	28478
813.279	28436
813.421	28382
813.562	28268
813.703	28109
813.845	28002
813.986	27667
814.127	27606
814.268	27405
814.41	27424
814.551	27401
814.692	27568
814.833	27310
814.974	27439
815.115	27534
815.256	27283
815.397	27325
815.539	27386
815.68	27260
815.821	27085
815.962	27173
816.103	27340
816.244	27077
816.385	27142
816.526	26891
816.666	26792
816.807	26686
816.948	26689
817.089	26754
817.23	26785
817.371	26788
817.512	26743
817.653	26625
817.793	26644
817.934	26712
818.075	26598
818.216	26640
818.356	26686
818.497	26670
818.638	26404
818.778	26400
818.919	26518
819.06	26332
819.2	26651
819.341	26785
819.481	26712
819.622	26967
819.762	27119
819.903	26921
820.043	26979
820.184	26834
820.324	26876
820.465	26929
820.605	26963
820.746	26864
820.886	26823
821.026	26834
821.167	26792
821.307	26883
821.447	26678
821.588	26579
821.728	26583
821.868	26362
822.008	26328
822.149	26221
822.289	26138
822.429	26027
822.569	25875
822.709	25803
822.849	25715
822.99	25822
823.13	25674
823.27	25715
823.41	25449
823.55	25472
823.69	25605
823.83	25601
823.97	25464
824.11	25289
824.25	25327
824.389	25388
824.529	25518
824.669	25369
824.809	25525
824.949	25495
825.089	25533
825.228	25392
825.368	25240
825.508	25194
825.648	25168
825.787	25259
825.927	25228
826.067	25240
826.206	25095
826.346	25194
826.485	25419
826.625	25145
826.765	25213
826.904	25293
827.044	24970
827.183	24924
827.323	24833
827.462	24932
827.601	25023
827.741	24867
827.88	24764
828.02	24734
828.159	24859
828.298	25027
828.437	25118
828.577	24810
828.716	24958
828.855	25008
828.994	24696
829.134	24479
829.273	24616
829.412	24566
829.551	24589
829.69	24623
829.829	24734
829.968	24642
830.107	24639
830.246	24612
830.385	24593
830.524	24346
830.663	24334
830.802	24399
830.941	24190
831.08	24167
831.219	24361
831.357	24277
831.496	24437
831.635	24205
831.774	24091
831.913	24125
832.051	24072
832.19	23931
832.329	24091
832.467	23904
832.606	23882
832.744	23870
832.883	23794
833.022	23843
833.16	23874
833.299	23809
833.437	23889
833.576	23999
833.714	23935
833.852	23961
833.991	24026
834.129	24003
834.267	24041
834.406	23874
834.544	23885
834.682	23927
834.821	23939
834.959	24068
835.097	23741
835.235	23984
835.373	23965
835.511	23958
835.65	23794
835.788	23714
835.926	23676
836.064	23707
836.202	23608
836.34	23684
836.478	23961
836.615	23783
836.753	23832
836.891	23809
837.029	23923
837.167	23695
837.305	23729
837.443	23649
837.58	23482
837.718	23790
837.856	23562
837.993	23562
838.131	23634
838.269	23509
838.406	23600
838.544	23345
838.681	23223
838.819	23227
838.956	23086
839.094	23094
839.231	23147
839.369	23269
839.506	23558
839.643	23353
839.781	23056
839.918	23086
840.055	23067
840.193	23010
840.33	22968
840.467	23071
840.604	22984
840.742	23227
840.879	22972
841.016	23033
841.153	22991
841.29	23060
841.427	22949
841.564	22995
841.701	23056
841.838	22953
841.975	22805
842.112	22873
842.249	22896
842.385	22721
842.522	23086
842.659	22908
842.796	22828
842.933	22831
843.069	22668
843.206	22569
843.343	22820
843.479	22694
843.616	22782
843.752	22531
843.889	22584
844.025	22668
844.162	22580
844.298	22497
844.435	22417
844.571	22500
844.708	22500
844.844	22710
844.98	22599
845.117	22649
845.253	22405
845.389	22428
845.525	22466
845.661	22421
845.798	22295
845.934	22428
846.07	22295
846.206	22242
846.342	22424
846.478	22360
846.614	22029
846.75	22063
846.886	22006
847.022	22128
847.158	22021
847.294	21987
847.429	22025
847.565	21975
847.701	22135
847.837	21671
847.972	21701
848.108	21907
848.244	21816
848.379	21732
848.515	21622
848.65	21530
848.786	21542
848.921	21637
849.057	21656
849.192	21603
849.328	21523
849.463	21557
849.598	21572
849.734	21557
849.869	21431
850.004	21355
850.14	21389
850.275	21420
850.41	21272
850.545	21233
850.68	21332
850.815	21344
850.95	21367
851.085	21515
851.22	21534
851.355	21268
851.49	21462
851.625	21260
851.76	21374
851.895	21245
852.03	21222
852.165	21344
852.299	21443
852.434	21393
852.569	21359
852.703	21336
852.838	21329
852.973	21595
853.107	21500
853.242	21313
853.376	21302
853.511	21043
853.645	21142
853.78	21188
853.914	21272
854.048	21157
854.183	21089
854.317	21245
854.451	21351
854.585	21169
854.72	21131
854.854	21165
854.988	21233
855.122	21119
855.256	21108
855.39	21058
855.524	21173
855.658	21077
855.792	21260
855.926	21169
856.06	21245
856.194	21237
856.327	21104
856.461	21039
856.595	21127
856.729	21119
856.862	21226
856.996	21184
857.13	21306
857.263	21363
857.397	21279
857.53	21176
857.664	21256
857.797	21233
857.931	21260
858.064	21161
858.197	21211
858.331	21131
858.464	21051
858.597	21112
858.731	21233
858.864	21070
858.997	21192
859.13	21169
859.263	21298
859.396	21317
859.529	21264
859.662	21188
859.795	21085
859.928	21241
860.061	21401
860.194	21447
860.327	21226
860.46	21195
860.592	21355
860.725	21393
860.858	21241
860.99	21291
861.123	20937
861.256	21081
861.388	21283
861.521	21694
861.653	21066
861.786	21005
861.918	21051
862.05	21135
862.183	21283
862.315	21135
862.447	21127
862.58	21123
862.712	20880
862.844	20883
862.976	20975
863.108	21017
863.24	21363
863.372	20826
863.504	20918
863.636	20849
863.768	20887
863.9	20891
864.032	20899
864.164	20868
864.296	21070
864.428	21024
864.559	21085
864.691	21005
864.823	20864
864.954	20963
865.086	20918
865.217	20868
865.349	20735
865.48	20933
865.612	20925
865.743	20933
865.875	20849
866.006	20773
866.137	20899
866.269	20868
866.4	20781
866.531	20716
866.662	20682
866.793	20705
866.924	20804
867.055	20838
867.186	20826
867.317	20773
867.448	20632
867.579	20727
867.71	20891
867.841	20693
867.972	20811
868.103	20750
868.233	20735
868.364	20701
868.495	20872
868.625	21005
868.756	21135
868.886	20853
869.017	21024
869.147	21070
869.278	21157
869.408	21066
869.539	20990
869.669	21131
869.799	21070
869.929	21150
870.06	21241
870.19	21348
870.32	21306
870.45	21332
870.58	21367
870.71	21511
870.84	21511
870.97	21462
871.1	21348
871.23	21496
871.36	21606
871.489	21633
871.619	21629
871.749	21644
871.879	21534
872.008	21709
872.138	21717
872.267	21542
872.397	21397
872.526	21530
872.656	21492
872.785	21477
872.915	21663
873.044	21679
873.173	21507
873.303	21629
873.432	21713
873.561	21766
873.69	21583
873.819	21663
873.948	21648
874.077	21728
874.206	21667
874.335	21485
874.464	21816
874.593	21884
874.722	21797
874.851	22025
874.979	21922
875.108	21876
875.237	21804
875.365	21701
875.494	21861
875.623	21873
875.751	21846
875.88	21880
876.008	21941
876.136	22029
876.265	22280
876.393	22428
876.521	22253
876.65	22268
876.778	22177
876.906	22074
877.034	22310
877.162	22166
877.29	22128
877.418	22143
877.546	22215
877.674	22215
877.802	22234
877.93	22173
878.058	22105
878.185	22097
878.313	22101
878.441	22143
878.568	21968
878.696	21991
878.824	22230
878.951	22219
879.079	22371
879.206	22489
879.333	22428
879.461	22314
879.588	22382
879.715	22310
879.842	22527
879.97	22280
880.097	22017
880.224	21922
880.351	22074
880.478	22040
880.605	22025
880.732	22093
880.859	22238
880.986	22032
881.112	21926
881.239	21823
881.366	21743
881.493	21637
881.619	21485
881.746	21523
881.872	21667
881.999	21553
882.125	21473
882.252	21583
882.378	21622
882.505	21675
882.631	21332
882.757	21351
882.883	21340
883.01	21389
883.136	21302
883.262	21180
883.388	21165
883.514	21264
883.64	21222
883.766	21245
883.892	21150
884.018	21100
884.143	21214
884.269	21264
884.395	20937
884.52	20910
884.646	20921
884.772	20918
884.897	20864
885.023	20883
885.148	21066
885.274	21013
885.399	21104
885.524	20914
885.65	20994
885.775	20941
885.9	20788
886.025	21051
886.15	21009
886.275	20876
886.4	20743
886.525	20792
886.65	20792
886.775	20880
886.9	21070
887.025	21184
887.149	20921
887.274	20769
887.399	20575
887.523	20724
887.648	20701
887.773	20640
887.897	20716
888.021	20758
888.146	20670
888.27	20785
888.395	20739
888.519	20731
888.643	20724
888.767	20796
888.891	20568
889.015	20507
889.139	20621
889.263	20457
889.387	20606
889.511	20754
889.635	20575
889.759	20442
889.883	20461
890.006	20476
890.13	20606
890.254	20415
890.377	20499
890.501	20206
890.624	20263
890.748	20256
890.871	20111
890.995	20088
891.118	19997
891.241	20062
891.364	20142
891.488	20275
891.611	20069
891.734	20100
891.857	20088
891.98	20119
892.103	19955
892.226	20069
892.349	20069
892.471	19871
892.594	19947
892.717	20039
892.839	20016
892.962	19970
893.085	20145
893.207	20039
893.33	19894
893.452	19875
893.575	20119
893.697	19913
893.819	20206
893.941	20187
894.064	19997
894.186	19959
894.308	19928
894.43	20046
894.552	20081
894.674	20012
894.796	19974
894.918	20016
895.04	19986
895.161	20161
895.283	20039
895.405	19837
895.526	20073
895.648	19868
895.769	20043
895.891	20073
896.012	20077
896.134	19993
896.255	19959
896.376	19906
896.498	19963
896.619	19997
896.74	19849
896.861	20024
896.982	20328
897.103	20522
897.224	20187
897.345	20290
897.466	20039
897.587	20324
897.708	20404
897.828	20161
897.949	20103
898.07	20107
898.19	20092
898.311	20240
898.431	20134
898.552	20256
898.672	20256
898.792	20218
898.913	20202
899.033	20145
899.153	19970
899.273	19928
899.393	20081
899.513	19970
899.633	20058
899.753	19963
899.873	19898
899.993	19993
900.113	19993
900.232	19982
900.352	19913
900.472	19791
900.591	19769
900.711	19757
900.83	19757
900.95	19753
901.069	19814
901.189	19651
901.308	19472
901.427	19343
901.546	19289
901.665	19331
901.784	19331
901.904	19160
902.023	19126
902.141	18966
902.26	18901
902.379	18886
902.498	18901
902.617	18791
902.735	18833
902.854	18783
902.973	18719
903.091	18551
903.21	18620
903.328	18582
903.446	18498
903.565	18315
903.683	18357
903.801	18270
903.919	18334
904.038	18281
904.156	18155
904.274	18266
904.392	18049
904.51	18148
904.627	18095
904.745	18068
904.863	18034
904.981	17821
905.098	17790
905.216	17916
905.334	17805
905.451	17798
905.569	17695
905.686	17832
905.803	17851
905.921	17589
906.038	17684
906.155	17608
906.272	17452
906.389	17551
906.506	17311
906.623	17334
906.74	17345
906.857	17113
906.974	17147
907.091	17376
907.208	17372
907.324	17254
907.441	17170
907.557	16965
907.674	17006
907.79	16991
907.907	17052
908.023	17006
908.139	16972
908.256	16919
908.372	16968
908.488	16877
908.604	16675
908.72	16790
908.836	16698
908.952	16729
909.068	16744
909.184	16900
909.3	16679
909.415	16694
909.531	16858
909.647	16493
909.762	16451
909.878	16409
909.993	16489
910.108	16337
910.224	16329
910.339	16310
910.454	16337
910.57	16173
910.685	16238
910.8	16508
910.915	16386
911.03	16219
911.145	16036
911.259	15998
911.374	16040
911.489	15979
911.604	15903
911.718	15732
911.833	15728
911.947	15755
912.062	15690
912.176	15762
912.291	15979
912.405	15827
912.519	15915
912.633	15964
912.748	15884
912.862	15762
912.976	15614
913.09	15481
913.204	15545
913.318	15644
913.431	15739
913.545	15759
913.659	15622
913.772	15549
913.886	15523
914	15363
914.113	15386
914.226	15595
914.34	15412
914.453	15412
914.566	15431
914.68	15241
914.793	15275
914.906	15192
915.019	15036
915.132	15058
915.245	14948
915.358	14975
915.47	15020
915.583	14998
915.696	15013
915.809	15058
915.921	15081
916.034	14967
916.146	14914
916.259	14929
916.371	15043
916.483	15039
916.595	14937
916.708	14941
916.82	14857
916.932	14868
917.044	14796
917.156	14811
917.268	14667
917.38	14705
917.491	14640
917.603	14663
917.715	14724
917.826	14788
917.938	14720
918.049	14571
918.161	14590
918.272	14739
918.384	14716
918.495	14530
918.606	14476
918.717	14408
918.828	14427
918.939	14438
919.05	14400
919.161	14446
919.272	14328
919.383	14275
919.494	14492
919.604	14549
919.715	14419
919.826	14332
919.936	14389
920.047	14480
920.157	14415
920.267	14530
920.378	14400
920.488	14396
920.598	14606
920.708	14743
920.818	14590
920.928	14526
921.038	14682
921.148	14606
921.258	14404
921.368	14259
921.477	14073
921.587	14138
921.697	13970
921.806	14088
921.916	14027
922.025	13959
922.134	13826
922.244	13765
922.353	13849
922.462	13670
922.571	13586
922.68	13468
922.789	13453
922.898	13365
923.007	13304
923.116	13392
923.224	13358
923.333	13327
923.442	13282
923.55	13221
923.659	13217
923.767	13293
923.876	13232
923.984	13285
924.092	13126
924.201	13194
924.309	13145
924.417	13202
924.525	13110
924.633	13091
924.741	13902
924.849	12909
924.956	13004
925.064	12890
925.172	12875
925.279	12894
925.387	12867
925.494	12897
925.602	12947
925.709	12840
925.816	12798
925.924	12741
926.031	12856
926.138	12798
926.245	12764
926.352	12738
926.459	12791
926.566	12844
926.673	12745
926.779	12547
926.886	12681
926.993	12525
927.099	12380
927.206	12327
927.312	12418
927.419	12429
927.525	12319
927.631	12445
927.737	12407
927.843	12266
927.95	12068
928.056	12277
928.162	12254
928.267	12289
928.373	12962
928.479	12327
928.585	12110
928.69	12224
928.796	12292
928.901	12102
929.007	11977
929.112	12121
929.218	12133
929.323	11935
929.428	12015
929.533	12136
929.638	11916
929.743	11961
929.848	11931
929.953	12007
930.058	11882
930.163	11756
930.267	11771
930.372	11824
930.477	11688
930.581	11847
930.685	11741
930.79	11562
930.894	11630
930.998	11573
931.103	11707
931.207	11330
931.311	11315
931.415	11197
931.519	11014
931.623	10976
