Data from test_V78500241_1565.txt Node
Date: Fri Mar 25 15:52:38 CST 2022
User: usil
Spectrometer: V785-0024
Trigger mode: 0
Integration Time (sec): 4.000000E-1
Scans to average: 1
Nonlinearity correction enabled: false
Boxcar width: 0
Storing dark spectrum: false
XAxis mode: Wavelengths
Number of Pixels in Spectrum: 1024
>>>>>Begin Spectral Data<<<<<
801.071	28051
801.214	27960
801.356	27842
801.499	27751
801.641	27671
801.783	27580
801.926	27739
802.068	27743
802.211	27492
802.353	27481
802.496	27374
802.638	27332
802.78	27241
802.923	27294
803.065	27256
803.208	27150
803.35	27230
803.492	27382
803.635	27526
803.777	27416
803.919	27610
804.061	27869
804.204	27701
804.346	27488
804.488	27420
804.63	27427
804.773	27462
804.915	27492
805.057	27633
805.199	27397
805.341	27603
805.483	27656
805.626	27618
805.768	27530
805.91	27713
806.052	27622
806.194	27587
806.336	27876
806.478	27720
806.62	27743
806.762	27743
806.904	27987
807.046	28128
807.188	27998
807.33	28150
807.472	28181
807.614	28067
807.756	28238
807.898	27918
808.04	28032
808.182	27918
808.324	27880
808.465	28040
808.607	28147
808.749	28325
808.891	28447
809.033	28531
809.174	28382
809.316	28272
809.458	28291
809.6	28211
809.741	28497
809.883	28504
810.025	28653
810.166	28634
810.308	28519
810.45	28405
810.591	28523
810.733	28299
810.875	28158
811.016	28158
811.158	28238
811.299	28379
811.441	28436
811.582	28462
811.724	28356
811.865	28268
812.007	28303
812.148	28314
812.29	28363
812.431	28485
812.573	28641
812.714	28622
812.855	28904
812.997	28763
813.138	28995
813.279	28938
813.421	28881
813.562	28691
813.703	28550
813.845	28527
813.986	28303
814.127	28185
814.268	27953
814.41	28010
814.551	27960
814.692	28090
814.833	27998
814.974	28109
815.115	27899
815.256	27869
815.397	27922
815.539	27762
815.68	27705
815.821	27675
815.962	27926
816.103	27736
816.244	27709
816.385	27690
816.526	27644
816.666	27408
816.807	27275
816.948	27500
817.089	27401
817.23	27264
817.371	27454
817.512	27233
817.653	27393
817.793	27424
817.934	27393
818.075	27435
818.216	27397
818.356	27165
818.497	27154
818.638	27017
818.778	27112
818.919	27047
819.06	27127
819.2	27077
819.341	27370
819.481	27370
819.622	27561
819.762	27545
819.903	27485
820.043	27488
820.184	27488
820.324	27447
820.465	27477
820.605	27298
820.746	27317
820.886	27298
821.026	27408
821.167	27279
821.307	27519
821.447	27374
821.588	27249
821.728	27138
821.868	27036
822.008	26769
822.149	26765
822.289	26918
822.429	26499
822.569	26404
822.709	26469
822.849	26237
822.99	26305
823.13	26259
823.27	26259
823.41	26069
823.55	25978
823.69	26039
823.83	26100
823.97	25944
824.11	25864
824.25	25890
824.389	25906
824.529	25982
824.669	25902
824.809	26138
824.949	26043
825.089	26107
825.228	26043
825.368	25742
825.508	25811
825.648	25849
825.787	25875
825.927	25757
826.067	25784
826.206	25723
826.346	25833
826.485	25780
826.625	25833
826.765	25898
826.904	25811
827.044	25601
827.183	25613
827.323	25548
827.462	25575
827.601	25464
827.741	25487
827.88	25556
828.02	25502
828.159	25472
828.298	25590
828.437	25556
828.577	25495
828.716	25552
828.855	25419
828.994	25145
829.134	25190
829.273	25232
829.412	25282
829.551	25259
829.69	25266
829.829	25282
829.968	25316
830.107	25403
830.246	25091
830.385	25152
830.524	25179
830.663	25072
830.802	24871
830.941	24863
831.08	24700
831.219	24924
831.357	24810
831.496	25019
831.635	24821
831.774	24753
831.913	24726
832.051	24673
832.19	24620
832.329	24604
832.467	24635
832.606	24483
832.744	24346
832.883	24441
833.022	24452
833.16	24536
833.299	24467
833.437	24597
833.576	24540
833.714	24528
833.852	24719
833.991	24551
834.129	24642
834.267	24540
834.406	24642
834.544	24597
834.682	24547
834.821	24479
834.959	24544
835.097	24555
835.235	24593
835.373	24346
835.511	24601
835.65	24384
835.788	24391
835.926	24365
836.064	24197
836.202	24155
836.34	24365
836.478	24426
836.615	24376
836.753	24380
836.891	24384
837.029	24342
837.167	24433
837.305	24292
837.443	24262
837.58	24072
837.718	24178
837.856	24361
837.993	24125
838.131	24213
838.269	24095
838.406	24121
838.544	24011
838.681	23874
838.819	23878
838.956	23684
839.094	23630
839.231	23790
839.369	23939
839.506	24045
839.643	23794
839.781	23653
839.918	23539
840.055	23722
840.193	23592
840.33	23592
840.467	23615
840.604	23687
840.742	23988
840.879	23558
841.016	23528
841.153	23577
841.29	23600
841.427	23630
841.564	23665
841.701	23592
841.838	23570
841.975	23573
842.112	23379
842.249	23429
842.385	23326
842.522	23414
842.659	23509
842.796	23311
842.933	23330
843.069	23250
843.206	23181
843.343	23395
843.479	23379
843.616	23372
843.752	23064
843.889	23102
844.025	23372
844.162	23006
844.298	23174
844.435	23121
844.571	23181
844.708	23208
844.844	23155
844.98	23246
845.117	23330
845.253	23048
845.389	22991
845.525	22946
845.661	22885
845.798	22839
845.934	22900
846.07	22797
846.206	22900
846.342	22885
846.478	22778
846.614	22641
846.75	22489
846.886	22542
847.022	22588
847.158	22546
847.294	22535
847.429	22554
847.565	22641
847.701	22782
847.837	22337
847.972	22223
848.108	22405
848.244	22417
848.379	22154
848.515	22147
848.65	22135
848.786	22166
848.921	22188
849.057	22211
849.192	22207
849.328	22246
849.463	22207
849.598	22093
849.734	22131
849.869	21987
850.004	21899
850.14	21918
850.275	21949
850.41	21823
850.545	21911
850.68	21884
850.815	21884
850.95	21956
851.085	22105
851.22	21956
851.355	21945
851.49	21987
851.625	21888
851.76	21842
851.895	21903
852.03	21789
852.165	21888
852.299	22017
852.434	21953
852.569	21907
852.703	21994
852.838	22078
852.973	21983
853.107	22097
853.242	21857
853.376	21759
853.511	21812
853.645	21770
853.78	21911
853.914	21785
854.048	21713
854.183	21690
854.317	21720
854.451	21975
854.585	21812
854.72	21793
854.854	21751
854.988	21736
855.122	21682
855.256	21625
855.39	21637
855.524	21835
855.658	21819
855.792	21774
855.926	21804
856.06	21915
856.194	21816
856.327	21606
856.461	21690
856.595	21633
856.729	21671
856.862	21884
856.996	21816
857.13	21675
857.263	21831
857.397	21873
857.53	21728
857.664	21800
857.797	21937
857.931	21785
858.064	21755
858.197	21953
858.331	21861
858.464	21595
858.597	21736
858.731	21694
858.864	21644
858.997	21720
859.13	21797
859.263	21816
859.396	21888
859.529	21720
859.662	21720
859.795	21732
859.928	21759
860.061	21869
860.194	21880
860.327	21751
860.46	21686
860.592	21922
860.725	21873
860.858	21903
860.99	21679
861.123	21641
861.256	21656
861.388	21713
861.521	22291
861.653	21663
861.786	21443
861.918	21485
862.05	21667
862.183	21785
862.315	21648
862.447	21709
862.58	21728
862.712	21420
862.844	21447
862.976	21576
863.108	21538
863.24	21983
863.372	21405
863.504	21504
863.636	21481
863.768	21500
863.9	21515
864.032	21428
864.164	21439
864.296	21511
864.428	21469
864.559	21447
864.691	21679
864.823	21587
864.954	21428
865.086	21450
865.217	21351
865.349	21424
865.48	21272
865.612	21393
865.743	21572
865.875	21500
866.006	21302
866.137	21363
866.269	21294
866.4	21340
866.531	21275
866.662	21192
866.793	21291
866.924	21397
867.055	21355
867.186	21264
867.317	21310
867.448	21184
867.579	21192
867.71	21241
867.841	21119
867.972	21359
868.103	21306
868.233	21336
868.364	21332
868.495	21336
868.625	21492
868.756	21606
868.886	21443
869.017	21428
869.147	21667
869.278	21629
869.408	21496
869.539	21519
869.669	21648
869.799	21504
869.929	21610
870.06	21591
870.19	21854
870.32	21766
870.45	21918
870.58	21895
870.71	22032
870.84	22105
870.97	21953
871.1	21911
871.23	22139
871.36	22090
871.489	22051
871.619	21918
871.749	22150
871.879	22207
872.008	22177
872.138	22090
872.267	22101
872.397	22032
872.526	21873
872.656	21998
872.785	21975
872.915	22090
873.044	22219
873.173	22204
873.303	22158
873.432	22204
873.561	22246
873.69	22154
873.819	22166
873.948	22257
874.077	22162
874.206	22063
874.335	22120
874.464	22234
874.593	22386
874.722	22268
874.851	22436
874.979	22344
875.108	22402
875.237	22382
875.365	22219
875.494	22402
875.623	22329
875.751	22211
875.88	22341
876.008	22565
876.136	22432
876.265	22759
876.393	22854
876.521	22816
876.65	22839
876.778	22656
876.906	22535
877.034	22626
877.162	22691
877.29	22702
877.418	22782
877.546	22721
877.674	22588
877.802	22717
877.93	22812
878.058	22786
878.185	22504
878.313	22729
878.441	22634
878.568	22550
878.696	22653
878.824	22812
878.951	22809
879.079	22862
879.206	23105
879.333	22869
879.461	22752
879.588	22850
879.715	22942
879.842	22938
879.97	22725
880.097	22653
880.224	22508
880.351	22653
880.478	22618
880.605	22554
880.732	22485
880.859	22824
880.986	22618
881.112	22634
881.239	22424
881.366	22181
881.493	22310
881.619	22078
881.746	22093
881.872	22116
881.999	22188
882.125	22135
882.252	22116
882.378	22048
882.505	22200
882.631	21922
882.757	21838
882.883	21823
883.01	21812
883.136	21831
883.262	21709
883.388	21580
883.514	21724
883.64	21747
883.766	21717
883.892	21587
884.018	21549
884.143	21762
884.269	21846
884.395	21545
884.52	21359
884.646	21447
884.772	21561
884.897	21340
885.023	21469
885.148	21405
885.274	21679
885.399	21572
885.524	21511
885.65	21405
885.775	21439
885.9	21530
886.025	21458
886.15	21538
886.275	21393
886.4	21291
886.525	21378
886.65	21359
886.775	21287
886.9	21466
887.025	21728
887.149	21329
887.274	21272
887.399	21272
887.523	21192
887.648	21180
887.773	21123
887.897	21268
888.021	21192
888.146	21119
888.27	21176
888.395	21211
888.519	21245
888.643	21233
888.767	21237
888.891	21047
889.015	20937
889.139	21051
889.263	20948
889.387	21024
889.511	21256
889.635	21089
889.759	20914
889.883	20941
890.006	21100
890.13	21157
890.254	20941
890.377	20971
890.501	20754
890.624	20739
890.748	20800
890.871	20655
890.995	20552
891.118	20522
891.241	20613
891.364	20434
891.488	20598
891.611	20480
891.734	20568
891.857	20754
891.98	20511
892.103	20632
892.226	20606
892.349	20545
892.471	20438
892.594	20537
892.717	20400
892.839	20381
892.962	20442
893.085	20537
893.207	20492
893.33	20309
893.452	20415
893.575	20568
893.697	20408
893.819	20530
893.941	20644
894.064	20655
894.186	20332
894.308	20415
894.43	20454
894.552	20655
894.674	20503
894.796	20377
894.918	20385
895.04	20469
895.161	20526
895.283	20579
895.405	20415
895.526	20377
895.648	20362
895.769	20427
895.891	20571
896.012	20625
896.134	20492
896.255	20571
896.376	20389
896.498	20415
896.619	20461
896.74	20522
896.861	20526
896.982	20800
897.103	20941
897.224	20842
897.345	20602
897.466	20552
897.587	20594
897.708	20819
897.828	20621
897.949	20530
898.07	20522
898.19	20716
898.311	20743
898.431	20564
898.552	20629
898.672	20697
898.792	20739
898.913	20670
899.033	20530
899.153	20446
899.273	20328
899.393	20381
899.513	20442
899.633	20469
899.753	20412
899.873	20320
899.993	20389
900.113	20278
900.232	20393
900.352	20332
900.472	20138
900.591	20142
900.711	20221
900.83	20164
900.95	20229
901.069	20221
901.189	20012
901.308	19734
901.427	19738
901.546	19624
901.665	19681
901.784	19826
901.904	19605
902.023	19639
902.141	19304
902.26	19320
902.379	19346
902.498	19304
902.617	19270
902.735	19343
902.854	19148
902.973	19129
903.091	18947
903.21	18932
903.328	18810
903.446	18905
903.565	18715
903.683	18631
903.801	18661
903.919	18768
904.038	18627
904.156	18490
904.274	18570
904.392	18517
904.51	18460
904.627	18570
904.745	18585
904.863	18593
904.981	18429
905.098	18247
905.216	18209
905.334	18182
905.451	18232
905.569	18125
905.686	18262
905.803	18144
905.921	17935
906.038	18011
906.155	17980
906.272	17954
906.389	17836
906.506	17737
906.623	17695
906.74	17805
906.857	17638
906.974	17566
907.091	17752
907.208	17821
907.324	17783
907.441	17687
907.557	17482
907.674	17444
907.79	17482
907.907	17410
908.023	17395
908.139	17303
908.256	17239
908.372	17345
908.488	17246
908.604	17246
908.72	17060
908.836	17227
908.952	17166
909.068	17162
909.184	17170
909.3	17143
909.415	17269
909.531	17204
909.647	16942
909.762	16866
909.878	16949
909.993	16900
910.108	16862
910.224	16725
910.339	16771
910.454	16805
910.57	16752
910.685	16493
910.8	16847
910.915	16831
911.03	16637
911.145	16577
911.259	16424
911.374	16379
911.489	16306
911.604	16375
911.718	16223
911.833	16223
911.947	16238
912.062	16036
912.176	16204
912.291	16314
912.405	16204
912.519	16352
912.633	16402
912.748	16344
912.862	16158
912.976	16116
913.09	16021
913.204	15991
913.318	16090
913.431	16105
913.545	16135
913.659	16207
913.772	15960
913.886	15808
914	15717
914.113	15975
914.226	15930
914.34	15915
914.453	15717
914.566	15865
914.68	15724
914.793	15652
914.906	15504
915.019	15348
915.132	15386
915.245	15389
915.358	15458
915.47	15450
915.583	15393
915.696	15439
915.809	15507
915.921	15603
916.034	15389
916.146	15310
916.259	15363
916.371	15454
916.483	15359
916.595	15283
916.708	15291
916.82	15264
916.932	15252
917.044	15112
917.156	15154
917.268	15093
917.38	15097
917.491	15032
917.603	15150
917.715	15100
917.826	15237
917.938	14986
918.049	14956
918.161	15036
918.272	15138
918.384	15119
918.495	14914
918.606	14872
918.717	14769
918.828	14918
918.939	14811
919.05	14743
919.161	14777
919.272	14667
919.383	14762
919.494	14834
919.604	15013
919.715	14792
919.826	14678
919.936	14720
920.047	14739
920.157	14777
920.267	14948
920.378	14845
920.488	14727
920.598	14937
920.708	15108
920.818	14914
920.928	14804
921.038	15024
921.148	14975
921.258	14758
921.368	14663
921.477	14530
921.587	14518
921.697	14267
921.806	14450
921.916	14313
922.025	14191
922.134	14237
922.244	14012
922.353	14161
922.462	14046
922.571	13928
922.68	13849
922.789	13712
922.898	13746
923.007	13734
923.116	13780
923.224	13875
923.333	13822
923.442	13658
923.55	13578
923.659	13613
923.767	13677
923.876	13620
923.984	13708
924.092	13502
924.201	13586
924.309	13533
924.417	13502
924.525	13346
924.633	13422
924.741	14317
924.849	13343
924.956	13373
925.064	13263
925.172	13110
925.279	13145
925.387	13304
925.494	13324
925.602	13244
925.709	13228
925.816	13080
925.924	13114
926.031	13198
926.138	13133
926.245	13240
926.352	13053
926.459	13076
926.566	13168
926.673	13000
926.779	12947
926.886	12962
926.993	12745
927.099	12772
927.206	12635
927.312	12688
927.419	12741
927.525	12749
927.631	12776
927.737	12665
927.843	12612
927.95	12460
928.056	12559
928.162	12658
928.267	12696
928.373	13194
928.479	12738
928.585	12464
928.69	12608
928.796	12551
928.901	12414
929.007	12300
929.112	12433
929.218	12437
929.323	12315
929.428	12251
929.533	12445
929.638	12239
929.743	12258
929.848	12262
929.953	12205
930.058	12152
930.163	11999
930.267	11965
930.372	12038
930.477	11855
930.581	12239
930.685	12022
930.79	11836
930.894	11897
930.998	11809
931.103	11996
931.207	11573
931.311	11516
931.415	11471
931.519	11273
931.623	11197
