Data from test_V78500241_2337.txt Node
Date: Fri Mar 25 15:57:59 CST 2022
User: usil
Spectrometer: V785-0024
Trigger mode: 0
Integration Time (sec): 4.000000E-1
Scans to average: 1
Nonlinearity correction enabled: false
Boxcar width: 0
Storing dark spectrum: false
XAxis mode: Wavelengths
Number of Pixels in Spectrum: 1024
>>>>>Begin Spectral Data<<<<<
801.071	28394
801.214	28337
801.356	28268
801.499	28207
801.641	28093
801.783	28067
801.926	28093
802.068	28093
802.211	28017
802.353	27960
802.496	27785
802.638	27770
802.78	27663
802.923	27774
803.065	27648
803.208	27656
803.35	27766
803.492	27846
803.635	28017
803.777	27800
803.919	27914
804.061	28120
804.204	28032
804.346	27953
804.488	27884
804.63	27816
804.773	27865
804.915	28036
805.057	28032
805.199	27895
805.341	28048
805.483	28116
805.626	28112
805.768	28067
805.91	28196
806.052	28230
806.194	27979
806.336	28318
806.478	28105
806.62	28230
806.762	28352
806.904	28478
807.046	28637
807.188	28497
807.33	28550
807.472	28459
807.614	28603
807.756	28508
807.898	28371
808.04	28169
808.182	28234
808.324	28401
808.465	28421
808.607	28721
808.749	28938
808.891	28801
809.033	28831
809.174	28984
809.316	28812
809.458	28850
809.6	28713
809.741	28847
809.883	28976
810.025	29037
810.166	29052
810.308	29025
810.45	29006
810.591	28915
810.733	28858
810.875	28706
811.016	28641
811.158	28679
811.299	28843
811.441	28828
811.582	28961
811.724	28774
811.865	28900
812.007	28843
812.148	28869
812.29	28771
812.431	29037
812.573	29041
812.714	29265
812.855	29223
812.997	29360
813.138	29535
813.279	29554
813.421	29421
813.562	29140
813.703	29022
813.845	28881
813.986	28812
814.127	28569
814.268	28421
814.41	28668
814.551	28421
814.692	28569
814.833	28447
814.974	28470
815.115	28470
815.256	28287
815.397	28329
815.539	28344
815.68	28211
815.821	28196
815.962	28409
816.103	28268
816.244	28150
816.385	28147
816.526	27994
816.666	27880
816.807	27587
816.948	27937
817.089	27880
817.23	27964
817.371	27732
817.512	27774
817.653	27698
817.793	27679
817.934	27888
818.075	27759
818.216	27873
818.356	27694
818.497	27656
818.638	27481
818.778	27526
818.919	27603
819.06	27534
819.2	27667
819.341	27823
819.481	27690
819.622	28032
819.762	28143
819.903	28063
820.043	27975
820.184	27861
820.324	27857
820.465	28029
820.605	27922
820.746	27994
820.886	27759
821.026	27888
821.167	27876
821.307	27979
821.447	27888
821.588	27732
821.728	27557
821.868	27325
822.008	27268
822.149	27435
822.289	27447
822.429	27055
822.569	27085
822.709	26906
822.849	26746
822.99	26670
823.13	26727
823.27	26678
823.41	26514
823.55	26453
823.69	26708
823.83	26579
823.97	26526
824.11	26427
824.25	26457
824.389	26374
824.529	26632
824.669	26526
824.809	26655
824.949	26442
825.089	26476
825.228	26530
825.368	26244
825.508	26294
825.648	26385
825.787	26453
825.927	26351
826.067	26256
826.206	26309
826.346	26339
826.485	26294
826.625	26412
826.765	26317
826.904	26290
827.044	26195
827.183	26126
827.323	26065
827.462	26092
827.601	26126
827.741	26005
827.88	25982
828.02	25852
828.159	26020
828.298	26046
828.437	26111
828.577	25890
828.716	26046
828.855	25906
828.994	25620
829.134	25788
829.273	25677
829.412	25719
829.551	25674
829.69	25719
829.829	25708
829.968	25723
830.107	25742
830.246	25647
830.385	25677
830.524	25586
830.663	25521
830.802	25472
830.941	25278
831.08	25304
831.219	25396
831.357	25460
831.496	25556
831.635	25266
831.774	25160
831.913	25228
832.051	25065
832.19	25103
832.329	25072
832.467	25031
832.606	25015
832.744	24996
832.883	25088
833.022	24920
833.16	24890
833.299	25072
833.437	24989
833.576	25091
833.714	25057
833.852	25099
833.991	25141
834.129	25202
834.267	25107
834.406	25042
834.544	25000
834.682	25023
834.821	24996
834.959	25160
835.097	24939
835.235	25080
835.373	25046
835.511	24954
835.65	24886
835.788	24943
835.926	24798
836.064	24829
836.202	24677
836.34	24844
836.478	24970
836.615	24848
836.753	24741
836.891	24741
837.029	24840
837.167	24707
837.305	24825
837.443	24696
837.58	24646
837.718	24738
837.856	24684
837.993	24631
838.131	24688
838.269	24475
838.406	24703
838.544	24494
838.681	24426
838.819	24380
838.956	24171
839.094	24167
839.231	24239
839.369	24338
839.506	24521
839.643	24448
839.781	24129
839.918	24041
840.055	24018
840.193	24148
840.33	24045
840.467	24148
840.604	24163
840.742	24346
840.879	23999
841.016	23866
841.153	23980
841.29	24190
841.427	23988
841.564	24182
841.701	24007
841.838	23984
841.975	23904
842.112	23916
842.249	23893
842.385	23870
842.522	23961
842.659	23946
842.796	23779
842.933	23878
843.069	23764
843.206	23756
843.343	23961
843.479	23786
843.616	23748
843.752	23611
843.889	23562
844.025	23733
844.162	23638
844.298	23585
844.435	23627
844.571	23608
844.708	23627
844.844	23802
844.98	23695
845.117	23680
845.253	23509
845.389	23364
845.525	23372
845.661	23444
845.798	23429
845.934	23353
846.07	23258
846.206	23216
846.342	23436
846.478	23189
846.614	23159
846.75	23014
846.886	22987
847.022	23109
847.158	23048
847.294	23056
847.429	22919
847.565	23006
847.701	23258
847.837	22877
847.972	22694
848.108	22847
848.244	22793
848.379	22725
848.515	22710
848.65	22687
848.786	22713
848.921	22626
849.057	22729
849.192	22675
849.328	22698
849.463	22656
849.598	22675
849.734	22611
849.869	22466
850.004	22443
850.14	22542
850.275	22344
850.41	22371
850.545	22375
850.68	22417
850.815	22481
850.95	22436
851.085	22626
851.22	22542
851.355	22398
851.49	22455
851.625	22394
851.76	22371
851.895	22352
852.03	22295
852.165	22375
852.299	22371
852.434	22398
852.569	22409
852.703	22333
852.838	22443
852.973	22512
853.107	22440
853.242	22249
853.376	22101
853.511	22192
853.645	22158
853.78	22352
853.914	22211
854.048	22166
854.183	22226
854.317	22234
854.451	22424
854.585	22287
854.72	22139
854.854	22268
854.988	22234
855.122	22242
855.256	22093
855.39	22246
855.524	22303
855.658	22188
855.792	22246
855.926	22215
856.06	22295
856.194	22356
856.327	22246
856.461	22097
856.595	22249
856.729	22280
856.862	22276
856.996	22147
857.13	22211
857.263	22413
857.397	22280
857.53	22287
857.664	22287
857.797	22230
857.931	22394
858.064	22299
858.197	22268
858.331	22348
858.464	22036
858.597	22036
858.731	22124
858.864	22265
858.997	22211
859.13	22223
859.263	22291
859.396	22341
859.529	22185
859.662	22211
859.795	22204
859.928	22219
860.061	22413
860.194	22360
860.327	22230
860.46	22223
860.592	22398
860.725	22367
860.858	22341
860.99	22211
861.123	22234
861.256	22051
861.388	22192
861.521	22938
861.653	22158
861.786	22128
861.918	22036
862.05	22139
862.183	22268
862.315	22280
862.447	22219
862.58	22082
862.712	22002
862.844	21846
862.976	22021
863.108	22025
863.24	22443
863.372	21949
863.504	21899
863.636	21941
863.768	21934
863.9	21979
864.032	21781
864.164	21907
864.296	22044
864.428	21994
864.559	21926
864.691	22025
864.823	21979
864.954	21945
865.086	21812
865.217	21892
865.349	21755
865.48	21854
865.612	21819
865.743	21945
865.875	21842
866.006	21838
866.137	21842
866.269	21888
866.4	21743
866.531	21728
866.662	21808
866.793	21641
866.924	21698
867.055	21747
867.186	21789
867.317	21724
867.448	21564
867.579	21717
867.71	21698
867.841	21701
867.972	21679
868.103	21774
868.233	21732
868.364	21797
868.495	21762
868.625	21857
868.756	21979
868.886	21888
869.017	21994
869.147	22048
869.278	22074
869.408	22048
869.539	21922
869.669	21926
869.799	22029
869.929	22230
870.06	22158
870.19	22169
870.32	22173
870.45	22303
870.58	22466
870.71	22470
870.84	22382
870.97	22417
871.1	22375
871.23	22607
871.36	22626
871.489	22500
871.619	22546
871.749	22577
871.879	22573
872.008	22691
872.138	22611
872.267	22592
872.397	22546
872.526	22402
872.656	22360
872.785	22402
872.915	22615
873.044	22637
873.173	22607
873.303	22687
873.432	22592
873.561	22660
873.69	22645
873.819	22641
873.948	22653
874.077	22668
874.206	22443
874.335	22653
874.464	22767
874.593	22820
874.722	22866
874.851	22828
874.979	22900
875.108	22862
875.237	22778
875.365	22694
875.494	22786
875.623	22889
875.751	22953
875.88	22782
876.008	22972
876.136	22885
876.265	23071
876.393	23326
876.521	23322
876.65	23212
876.778	23239
876.906	23227
877.034	23117
877.162	23170
877.29	23090
877.418	23162
877.546	23185
877.674	23060
877.802	23147
877.93	23239
878.058	23064
878.185	22965
878.313	23140
878.441	23197
878.568	23029
878.696	23086
878.824	23181
878.951	23239
879.079	23444
879.206	23448
879.333	23341
879.461	23273
879.588	23204
879.715	23299
879.842	23421
879.97	23090
880.097	22976
880.224	22991
880.351	22889
880.478	23037
880.605	22908
880.732	22999
880.859	23166
880.986	22942
881.112	22976
881.239	22854
881.366	22755
881.493	22634
881.619	22508
881.746	22527
881.872	22577
881.999	22603
882.125	22527
882.252	22531
882.378	22436
882.505	22618
882.631	22394
882.757	22299
882.883	22295
883.01	22158
883.136	22242
883.262	22059
883.388	22059
883.514	22204
883.64	22272
883.766	22063
883.892	21903
884.018	22032
884.143	22181
884.269	22257
884.395	21873
884.52	21766
884.646	21827
884.772	21899
884.897	21785
885.023	21842
885.148	21979
885.274	22040
885.399	21880
885.524	21915
885.65	21850
885.775	21884
885.9	21778
886.025	21941
886.15	21956
886.275	21846
886.4	21724
886.525	21800
886.65	21785
886.775	21835
886.9	21793
887.025	22082
887.149	21766
887.274	21553
887.399	21614
887.523	21572
887.648	21587
887.773	21553
887.897	21762
888.021	21595
888.146	21496
888.27	21762
888.395	21785
888.519	21625
888.643	21629
888.767	21660
888.891	21572
889.015	21294
889.139	21378
889.263	21370
889.387	21450
889.511	21606
889.635	21511
889.759	21359
889.883	21397
890.006	21447
890.13	21389
890.254	21340
890.377	21363
890.501	21161
890.624	21127
890.748	21230
890.871	21005
890.995	21005
891.118	21009
891.241	21058
891.364	20899
891.488	21089
891.611	20975
891.734	20990
891.857	21024
891.98	21020
892.103	21093
892.226	21020
892.349	20895
892.471	20655
892.594	20792
892.717	20906
892.839	20819
892.962	20834
893.085	20902
893.207	20960
893.33	20781
893.452	20739
893.575	20769
893.697	20868
893.819	20971
893.941	21062
894.064	21096
894.186	20887
894.308	20735
894.43	20880
894.552	20971
894.674	20845
894.796	20705
894.918	20883
895.04	20830
895.161	20948
895.283	20937
895.405	20735
895.526	20830
895.648	20895
895.769	20921
895.891	20853
896.012	20811
896.134	20902
896.255	20800
896.376	20739
896.498	20872
896.619	20849
896.74	20857
896.861	20933
896.982	21066
897.103	21161
897.224	21135
897.345	20998
897.466	20918
897.587	21017
897.708	21233
897.828	21081
897.949	21062
898.07	20842
898.19	20933
898.311	21157
898.431	20975
898.552	20982
898.672	21032
898.792	21047
898.913	21070
899.033	20899
899.153	20842
899.273	20773
899.393	20750
899.513	20800
899.633	20796
899.753	20800
899.873	20670
899.993	20864
900.113	20739
900.232	20796
900.352	20533
900.472	20579
900.591	20545
900.711	20606
900.83	20442
900.95	20587
901.069	20606
901.189	20507
901.308	20244
901.427	20096
901.546	20187
901.665	20107
901.784	20096
901.904	19925
902.023	19890
902.141	19674
902.26	19635
902.379	19757
902.498	19575
902.617	19533
902.735	19632
902.854	19533
902.973	19635
903.091	19327
903.21	19316
903.328	19339
903.446	19270
903.565	19031
903.683	19148
903.801	18901
903.919	19129
904.038	19053
904.156	18890
904.274	18928
904.392	18776
904.51	18810
904.627	18741
904.745	18787
904.863	18962
904.981	18681
905.098	18475
905.216	18437
905.334	18574
905.451	18677
905.569	18372
905.686	18536
905.803	18502
905.921	18239
906.038	18384
906.155	18300
906.272	18270
906.389	18197
906.506	18045
906.623	18144
906.74	17965
906.857	17828
906.974	18019
907.091	18133
907.208	18182
907.324	17958
907.441	17942
907.557	17786
907.674	17676
907.79	17668
907.907	17783
908.023	17760
908.139	17707
908.256	17623
908.372	17604
908.488	17733
908.604	17562
908.72	17478
908.836	17482
908.952	17440
909.068	17440
909.184	17596
909.3	17455
909.415	17570
909.531	17421
909.647	17048
909.762	17220
909.878	17113
909.993	17193
910.108	17155
910.224	17136
910.339	17102
910.454	16953
910.57	16927
910.685	16968
910.8	17136
910.915	17064
911.03	16892
911.145	16835
911.259	16763
911.374	16790
911.489	16679
911.604	16713
911.718	16493
911.833	16341
911.947	16409
912.062	16318
912.176	16462
912.291	16474
912.405	16481
912.519	16748
912.633	16683
912.748	16538
912.862	16451
912.976	16306
913.09	16303
913.204	16314
913.318	16120
913.431	16371
913.545	16360
913.659	16344
913.772	16238
913.886	16097
914	15998
914.113	16246
914.226	16215
914.34	16105
914.453	15964
914.566	16109
914.68	15945
914.793	16021
914.906	15675
915.019	15679
915.132	15641
915.245	15717
915.358	15625
915.47	15747
915.583	15667
915.696	15587
915.809	15797
915.921	15743
916.034	15663
916.146	15606
916.259	15538
916.371	15652
916.483	15618
916.595	15469
916.708	15477
916.82	15519
916.932	15447
917.044	15530
917.156	15405
917.268	15222
917.38	15374
917.491	15283
917.603	15275
917.715	15469
917.826	15401
917.938	15283
918.049	15169
918.161	15230
918.272	15412
918.384	15283
918.495	15237
918.606	15028
918.717	14998
918.828	15070
918.939	15032
919.05	14899
919.161	15001
919.272	14735
919.383	14899
919.494	15108
919.604	15256
919.715	14990
919.826	14880
919.936	14952
920.047	15047
920.157	15123
920.267	15195
920.378	15169
920.488	14994
920.598	15093
920.708	15405
920.818	15112
920.928	15116
921.038	15317
921.148	15203
921.258	14952
921.368	14826
921.477	14788
921.587	14708
921.697	14613
921.806	14739
921.916	14594
922.025	14457
922.134	14438
922.244	14347
922.353	14374
922.462	14328
922.571	14187
922.68	14046
922.789	14020
922.898	14016
923.007	13940
923.116	13989
923.224	13982
923.333	14027
923.442	13879
923.55	13849
923.659	13864
923.767	13883
923.876	13685
923.984	13811
924.092	13719
924.201	13757
924.309	13746
924.417	13780
924.525	13651
924.633	13708
924.741	14575
924.849	13506
924.956	13480
925.064	13377
925.172	13392
925.279	13388
925.387	13426
925.494	13369
925.602	13537
925.709	13400
925.816	13308
925.924	13441
926.031	13476
926.138	13316
926.245	13384
926.352	13225
926.459	13403
926.566	13422
926.673	13244
926.779	13122
926.886	13133
926.993	13061
927.099	12924
927.206	12943
927.312	12856
927.419	12928
927.525	12977
927.631	12996
927.737	12821
927.843	12764
927.95	12559
928.056	12760
928.162	12745
928.267	12760
928.373	13403
928.479	12920
928.585	12639
928.69	12753
928.796	12757
928.901	12574
929.007	12494
929.112	12627
929.218	12582
929.323	12410
929.428	12445
929.533	12582
929.638	12361
929.743	12391
929.848	12547
929.953	12395
930.058	12330
930.163	12182
930.267	12178
930.372	12285
930.477	12133
930.581	12388
930.685	12148
930.79	12049
930.894	12022
930.998	12019
931.103	12213
931.207	11794
931.311	11695
931.415	11543
931.519	11444
931.623	11353
