Data from test_V78500241_3203.txt Node
Date: Fri Mar 25 16:03:59 CST 2022
User: usil
Spectrometer: V785-0024
Trigger mode: 0
Integration Time (sec): 4.000000E-1
Scans to average: 1
Nonlinearity correction enabled: false
Boxcar width: 0
Storing dark spectrum: false
XAxis mode: Wavelengths
Number of Pixels in Spectrum: 1024
>>>>>Begin Spectral Data<<<<<
801.071	28455
801.214	28519
801.356	28173
801.499	28226
801.641	28204
801.783	28158
801.926	28158
802.068	28188
802.211	28044
802.353	28021
802.496	27979
802.638	27865
802.78	27884
802.923	27736
803.065	27701
803.208	27842
803.35	27907
803.492	28063
803.635	28036
803.777	28101
803.919	28131
804.061	28538
804.204	28147
804.346	28017
804.488	28188
804.63	28086
804.773	27899
804.915	28101
805.057	28253
805.199	28090
805.341	28223
805.483	28257
805.626	28268
805.768	28086
805.91	28276
806.052	28401
806.194	28139
806.336	28401
806.478	28360
806.62	28287
806.762	28550
806.904	28580
807.046	28866
807.188	28706
807.33	28736
807.472	28892
807.614	28542
807.756	28683
807.898	28577
808.04	28443
808.182	28390
808.324	28512
808.465	28641
808.607	28645
808.749	28968
808.891	29044
809.033	28995
809.174	29098
809.316	28957
809.458	28869
809.6	28843
809.741	28968
809.883	29166
810.025	29212
810.166	29060
810.308	29231
810.45	29185
810.591	29254
810.733	29090
810.875	28965
811.016	28839
811.158	28843
811.299	28949
811.441	29174
811.582	29162
811.724	28831
811.865	28934
812.007	28908
812.148	29124
812.29	29132
812.431	29064
812.573	29235
812.714	29478
812.855	29509
812.997	29467
813.138	29710
813.279	29619
813.421	29448
813.562	29528
813.703	29223
813.845	29105
813.986	28942
814.127	28729
814.268	28694
814.41	28691
814.551	28599
814.692	28546
814.833	28569
814.974	28615
815.115	28573
815.256	28485
815.397	28493
815.539	28584
815.68	28401
815.821	28341
815.962	28527
816.103	28295
816.244	28303
816.385	28234
816.526	28223
816.666	28029
816.807	27899
816.948	27895
817.089	27991
817.23	28074
817.371	27994
817.512	27918
817.653	27922
817.793	27907
817.934	27854
818.075	27979
818.216	28040
818.356	27945
818.497	27831
818.638	27644
818.778	27892
818.919	27736
819.06	27793
819.2	27720
819.341	27869
819.481	27975
819.622	28086
819.762	28371
819.903	28211
820.043	28200
820.184	28268
820.324	28074
820.465	28059
820.605	28116
820.746	28154
820.886	27922
821.026	28234
821.167	28093
821.307	28158
821.447	28101
821.588	27899
821.728	27918
821.868	27778
822.008	27526
822.149	27504
822.289	27466
822.429	27214
822.569	27138
822.709	27100
822.849	26986
822.99	26902
823.13	26925
823.27	26933
823.41	26800
823.55	26716
823.69	26887
823.83	26788
823.97	26765
824.11	26598
824.25	26522
824.389	26552
824.529	26727
824.669	26606
824.809	26765
824.949	26708
825.089	26583
825.228	26678
825.368	26564
825.508	26473
825.648	26552
825.787	26594
825.927	26571
826.067	26434
826.206	26503
826.346	26476
826.485	26545
826.625	26366
826.765	26640
826.904	26492
827.044	26370
827.183	26362
827.323	26324
827.462	26309
827.601	26358
827.741	26305
827.88	26339
828.02	26221
828.159	26229
828.298	26221
828.437	26248
828.577	26130
828.716	26347
828.855	26225
828.994	25883
829.134	26077
829.273	26069
829.412	25940
829.551	25833
829.69	25864
829.829	25940
829.968	25917
830.107	25906
830.246	25883
830.385	25799
830.524	25864
830.663	25635
830.802	25655
830.941	25510
831.08	25575
831.219	25715
831.357	25677
831.496	25753
831.635	25502
831.774	25403
831.913	25407
832.051	25419
832.19	25415
832.329	25373
832.467	25266
832.606	25133
832.744	25190
832.883	25107
833.022	25046
833.16	25206
833.299	25206
833.437	25110
833.576	25232
833.714	25278
833.852	25270
833.991	25316
834.129	25331
834.267	25293
834.406	25221
834.544	25247
834.682	25289
834.821	25282
834.959	25620
835.097	25160
835.235	25346
835.373	25152
835.511	25247
835.65	25076
835.788	25122
835.926	25099
836.064	24867
836.202	24981
836.34	25160
836.478	25251
836.615	25038
836.753	25053
836.891	25171
837.029	25198
837.167	24954
837.305	24932
837.443	24962
837.58	24871
837.718	25023
837.856	24916
837.993	24825
838.131	24844
838.269	24707
838.406	24806
838.544	24681
838.681	24525
838.819	24525
838.956	24380
839.094	24407
839.231	24315
839.369	24536
839.506	24776
839.643	24734
839.781	24407
839.918	24369
840.055	24418
840.193	24266
840.33	24140
840.467	24232
840.604	24281
840.742	24597
840.879	24171
841.016	24174
841.153	24167
841.29	24327
841.427	24186
841.564	24308
841.701	24224
841.838	24300
841.975	24098
842.112	24220
842.249	24076
842.385	23988
842.522	24304
842.659	24095
842.796	24152
842.933	24121
843.069	24038
843.206	23942
843.343	24121
843.479	24152
843.616	24034
843.752	23832
843.889	23748
844.025	23786
844.162	23870
844.298	23882
844.435	23851
844.571	23786
844.708	23741
844.844	24049
844.98	23901
845.117	23954
845.253	23859
845.389	23733
845.525	23623
845.661	23760
845.798	23452
845.934	23600
846.07	23493
846.206	23509
846.342	23691
846.478	23524
846.614	23265
846.75	23143
846.886	23216
847.022	23322
847.158	23353
847.294	23440
847.429	23311
847.565	23181
847.701	23425
847.837	22980
847.972	23075
848.108	22968
848.244	22999
848.379	22801
848.515	22885
848.65	22866
848.786	22790
848.921	22771
849.057	22873
849.192	23029
849.328	22771
849.463	22786
849.598	22839
849.734	22733
849.869	22759
850.004	22622
850.14	22535
850.275	22554
850.41	22580
850.545	22580
850.68	22637
850.815	22675
850.95	22542
851.085	22850
851.22	22645
851.355	22717
851.49	22622
851.625	22447
851.76	22508
851.895	22561
852.03	22489
852.165	22653
852.299	22618
852.434	22694
852.569	22702
852.703	22717
852.838	22668
852.973	22771
853.107	22607
853.242	22531
853.376	22436
853.511	22421
853.645	22470
853.78	22443
853.914	22417
854.048	22462
854.183	22390
854.317	22382
854.451	22653
854.585	22417
854.72	22455
854.854	22569
854.988	22474
855.122	22424
855.256	22280
855.39	22390
855.524	22459
855.658	22443
855.792	22474
855.926	22344
856.06	22474
856.194	22474
856.327	22557
856.461	22386
856.595	22417
856.729	22409
856.862	22500
856.996	22466
857.13	22481
857.263	22504
857.397	22664
857.53	22360
857.664	22428
857.797	22443
857.931	22455
858.064	22470
858.197	22569
858.331	22432
858.464	22440
858.597	22329
858.731	22432
858.864	22318
858.997	22325
859.13	22493
859.263	22451
859.396	22577
859.529	22386
859.662	22341
859.795	22451
859.928	22390
860.061	22626
860.194	22557
860.327	22523
860.46	22580
860.592	22569
860.725	22557
860.858	22546
860.99	22481
861.123	22276
861.256	22390
861.388	22363
861.521	23185
861.653	22238
861.786	22234
861.918	22310
862.05	22322
862.183	22379
862.315	22322
862.447	22478
862.58	22344
862.712	22147
862.844	22131
862.976	22139
863.108	22143
863.24	22535
863.372	22067
863.504	22074
863.636	22139
863.768	22291
863.9	22207
864.032	22032
864.164	22128
864.296	22025
864.428	22284
864.559	22257
864.691	22360
864.823	22196
864.954	22074
865.086	22090
865.217	21934
865.349	21983
865.48	22010
865.612	21975
865.743	22078
865.875	22074
866.006	22082
866.137	22070
866.269	22067
866.4	22044
866.531	22029
866.662	21800
866.793	21835
866.924	21895
867.055	21934
867.186	21857
867.317	21857
867.448	21846
867.579	22044
867.71	21831
867.841	21937
867.972	22006
868.103	21922
868.233	21975
868.364	21880
868.495	22021
868.625	22173
868.756	22200
868.886	22139
869.017	22173
869.147	22329
869.278	22333
869.408	22249
869.539	22139
869.669	22177
869.799	22253
869.929	22272
870.06	22352
870.19	22546
870.32	22405
870.45	22565
870.58	22470
870.71	22763
870.84	22561
870.97	22736
871.1	22584
871.23	22664
871.36	22843
871.489	22710
871.619	22801
871.749	22858
871.879	22790
872.008	22953
872.138	22873
872.267	22702
872.397	22645
872.526	22615
872.656	22618
872.785	22634
872.915	22881
873.044	22953
873.173	22729
873.303	22938
873.432	22885
873.561	22930
873.69	22847
873.819	22740
873.948	22900
874.077	22877
874.206	22850
874.335	22790
874.464	22755
874.593	23075
874.722	22984
874.851	23022
874.979	23151
875.108	23071
875.237	22942
875.365	23010
875.494	23014
875.623	23006
875.751	22881
875.88	23117
876.008	23208
876.136	23235
876.265	23311
876.393	23649
876.521	23376
876.65	23535
876.778	23482
876.906	23364
877.034	23277
877.162	23425
877.29	23387
877.418	23417
877.546	23269
877.674	23303
877.802	23292
877.93	23345
878.058	23368
878.185	23113
878.313	23235
878.441	23410
878.568	23162
878.696	23353
878.824	23307
878.951	23425
879.079	23703
879.206	23589
879.333	23490
879.461	23455
879.588	23436
879.715	23497
879.842	23623
879.97	23406
880.097	23284
880.224	23075
880.351	23113
880.478	23174
880.605	23166
880.732	23216
880.859	23417
880.986	23227
881.112	23185
881.239	23086
881.366	22934
881.493	22805
881.619	22759
881.746	22698
881.872	22816
881.999	22733
882.125	22630
882.252	22774
882.378	22744
882.505	22889
882.631	22603
882.757	22451
882.883	22440
883.01	22504
883.136	22523
883.262	22371
883.388	22249
883.514	22409
883.64	22379
883.766	22329
883.892	22204
884.018	22215
884.143	22348
884.269	22554
884.395	22207
884.52	22017
884.646	22017
884.772	22010
884.897	21934
885.023	22109
885.148	22082
885.274	22124
885.399	22154
885.524	22082
885.65	22029
885.775	22025
885.9	22078
886.025	22006
886.15	22177
886.275	21987
886.4	22006
886.525	21953
886.65	22032
886.775	21949
886.9	22147
887.025	22207
887.149	21945
887.274	21876
887.399	21728
887.523	21778
887.648	21743
887.773	21679
887.897	21835
888.021	21857
888.146	21789
888.27	21873
888.395	21880
888.519	21827
888.643	21888
888.767	21903
888.891	21728
889.015	21595
889.139	21595
889.263	21576
889.387	21644
889.511	21842
889.635	21587
889.759	21576
889.883	21492
890.006	21568
890.13	21663
890.254	21519
890.377	21603
890.501	21477
890.624	21332
890.748	21287
890.871	21336
890.995	21100
891.118	21233
891.241	21188
891.364	21329
891.488	21351
891.611	21176
891.734	21062
891.857	21207
891.98	21169
892.103	21264
892.226	21146
892.349	21138
892.471	20868
892.594	20998
892.717	21096
892.839	20933
892.962	21081
893.085	21089
893.207	21055
893.33	20918
893.452	20967
893.575	21043
893.697	21036
893.819	21150
893.941	21203
894.064	21096
894.186	20975
894.308	21028
894.43	21112
894.552	21165
894.674	21184
894.796	20906
894.918	21032
895.04	20986
895.161	21028
895.283	21036
895.405	20921
895.526	21131
895.648	20990
895.769	20986
895.891	20971
896.012	21051
896.134	21154
896.255	21020
896.376	20769
896.498	20986
896.619	20986
896.74	20956
896.861	21089
896.982	21325
897.103	21469
897.224	21249
897.345	21180
897.466	21176
897.587	21135
897.708	21348
897.828	21370
897.949	21218
898.07	20990
898.19	21150
898.311	21252
898.431	21173
898.552	21260
898.672	21367
898.792	21233
898.913	21252
899.033	21081
899.153	20956
899.273	20921
899.393	20906
899.513	21001
899.633	20906
899.753	20899
899.873	20941
899.993	21017
900.113	20910
900.232	20838
900.352	20811
900.472	20910
900.591	20636
900.711	20731
900.83	20564
900.95	20769
901.069	20823
901.189	20594
901.308	20423
901.427	20298
901.546	20240
901.665	20199
901.784	20240
901.904	20183
902.023	20103
902.141	19887
902.26	19860
902.379	19940
902.498	19776
902.617	19708
902.735	19795
902.854	19746
902.973	19769
903.091	19563
903.21	19392
903.328	19499
903.446	19449
903.565	19263
903.683	19190
903.801	19141
903.919	19263
904.038	19175
904.156	18894
904.274	19160
904.392	19069
904.51	18962
904.627	18954
904.745	19072
904.863	19156
904.981	18810
905.098	18722
905.216	18738
905.334	18745
905.451	18669
905.569	18620
905.686	18623
905.803	18646
905.921	18486
906.038	18525
906.155	18528
906.272	18384
906.389	18315
906.506	18239
906.623	18235
906.74	18121
906.857	18045
906.974	18106
907.091	18395
907.208	18289
907.324	18292
907.441	18171
907.557	18003
907.674	17958
907.79	17726
907.907	17802
908.023	18049
908.139	18068
908.256	17885
908.372	17707
908.488	17745
908.604	17703
908.72	17570
908.836	17649
908.952	17509
909.068	17608
909.184	17775
909.3	17638
909.415	17680
909.531	17585
909.647	17353
909.762	17379
909.878	17368
909.993	17227
910.108	17318
910.224	17227
910.339	17326
910.454	17166
910.57	17155
910.685	17090
910.8	17239
910.915	17250
911.03	17025
911.145	16942
911.259	16885
911.374	16892
911.489	16816
911.604	16843
911.718	16634
911.833	16774
911.947	16561
912.062	16405
912.176	16637
912.291	16622
912.405	16683
912.519	16759
912.633	16858
912.748	16649
912.862	16558
912.976	16413
913.09	16291
913.204	16352
913.318	16519
913.431	16637
913.545	16466
913.659	16622
913.772	16348
913.886	16215
914	16200
914.113	16276
914.226	16360
914.34	16249
914.453	16192
914.566	16261
914.68	16097
914.793	16010
914.906	15968
915.019	15781
915.132	15842
915.245	15827
915.358	15835
915.47	15774
915.583	15694
915.696	15846
915.809	15892
915.921	15922
916.034	15755
916.146	15724
916.259	15751
916.371	15770
916.483	15743
916.595	15648
916.708	15587
916.82	15584
916.932	15610
917.044	15614
917.156	15633
917.268	15424
917.38	15515
917.491	15496
917.603	15435
917.715	15523
917.826	15481
917.938	15401
918.049	15298
918.161	15340
918.272	15523
918.384	15534
918.495	15386
918.606	15298
918.717	15119
918.828	15279
918.939	15165
919.05	15138
919.161	15165
919.272	15024
919.383	14960
919.494	15226
919.604	15355
919.715	15157
919.826	15039
919.936	15047
920.047	15146
920.157	15176
920.267	15298
920.378	15081
920.488	15104
920.598	15317
920.708	15485
920.818	15241
920.928	15207
921.038	15454
921.148	15287
921.258	15180
921.368	15020
921.477	14880
921.587	14838
921.697	14746
921.806	14864
921.916	14686
922.025	14621
922.134	14587
922.244	14400
922.353	14495
922.462	14438
922.571	14393
922.68	14164
922.789	14138
922.898	14111
923.007	14088
923.116	14138
923.224	13986
923.333	14084
923.442	13928
923.55	14008
923.659	13967
923.767	14031
923.876	13921
923.984	14031
924.092	13894
924.201	13868
924.309	13875
924.417	13894
924.525	13715
924.633	13788
924.741	14526
924.849	13502
924.956	13674
925.064	13613
925.172	13506
925.279	13460
925.387	13544
925.494	13620
925.602	13681
925.709	13518
925.816	13377
925.924	13540
926.031	13483
926.138	13438
926.245	13407
926.352	13331
926.459	13521
926.566	13514
926.673	13354
926.779	13301
926.886	13228
926.993	13126
927.099	13050
927.206	13088
927.312	12966
927.419	13091
927.525	13061
927.631	13118
927.737	12852
927.843	12875
927.95	12806
928.056	12875
928.162	12894
928.267	12932
928.373	13483
928.479	12913
928.585	12730
928.69	12810
928.796	12886
928.901	12688
929.007	12608
929.112	12654
929.218	12677
929.323	12566
929.428	12597
929.533	12768
929.638	12506
929.743	12498
929.848	12642
929.953	12517
930.058	12471
930.163	12266
930.267	12285
930.372	12391
930.477	12213
930.581	12479
930.685	12209
930.79	12190
930.894	12186
930.998	12095
931.103	12201
931.207	11954
931.311	11794
931.415	11657
931.519	11539
931.623	11608
