Data from test_V78500241_2073.txt Node
Date: Fri Mar 25 15:56:09 CST 2022
User: usil
Spectrometer: V785-0024
Trigger mode: 0
Integration Time (sec): 4.000000E-1
Scans to average: 1
Nonlinearity correction enabled: false
Boxcar width: 0
Storing dark spectrum: false
XAxis mode: Wavelengths
Number of Pixels in Spectrum: 1024
>>>>>Begin Spectral Data<<<<<
801.071	29044
801.214	28869
801.356	28694
801.499	28615
801.641	28622
801.783	28470
801.926	28531
802.068	28729
802.211	28649
802.353	28527
802.496	28265
802.638	28329
802.78	28253
802.923	28154
803.065	28116
803.208	28318
803.35	28253
803.492	28481
803.635	28607
803.777	28413
803.919	28577
804.061	28790
804.204	28664
804.346	28478
804.488	28470
804.63	28447
804.773	28497
804.915	28557
805.057	28615
805.199	28519
805.341	28660
805.483	28698
805.626	28687
805.768	28702
805.91	28713
806.052	28668
806.194	28664
806.336	28866
806.478	28710
806.62	28774
806.762	28923
806.904	28991
807.046	29284
807.188	29052
807.33	29090
807.472	29220
807.614	28976
807.756	29231
807.898	29166
808.04	29064
808.182	28927
808.324	29239
808.465	29102
808.607	29235
808.749	29258
808.891	29436
809.033	29520
809.174	29604
809.316	29474
809.458	29383
809.6	29181
809.741	29452
809.883	29398
810.025	29661
810.166	29509
810.308	29653
810.45	29691
810.591	29535
810.733	29410
810.875	29250
811.016	29364
811.158	29265
811.299	29573
811.441	29543
811.582	29444
811.724	29322
811.865	29307
812.007	29425
812.148	29402
812.29	29375
812.431	29627
812.573	29748
812.714	29870
812.855	29946
812.997	30125
813.138	30201
813.279	29980
813.421	29980
813.562	29923
813.703	29661
813.845	29661
813.986	29277
814.127	29242
814.268	29181
814.41	29216
814.551	28987
814.692	29284
814.833	29029
814.974	29006
815.115	29235
815.256	29067
815.397	29098
815.539	29041
815.68	28968
815.821	29041
815.962	28904
816.103	28961
816.244	28790
816.385	28820
816.526	28752
816.666	28485
816.807	28268
816.948	28554
817.089	28615
817.23	28508
817.371	28474
817.512	28386
817.653	28500
817.793	28443
817.934	28440
818.075	28470
818.216	28443
818.356	28314
818.497	28417
818.638	28067
818.778	28341
818.919	28112
819.06	28162
819.2	28265
819.341	28440
819.481	28512
819.622	28561
819.762	28702
819.903	28653
820.043	28660
820.184	28474
820.324	28618
820.465	28542
820.605	28478
820.746	28519
820.886	28485
821.026	28557
821.167	28531
821.307	28512
821.447	28527
821.588	28386
821.728	28230
821.868	28169
822.008	28032
822.149	27819
822.289	27918
822.429	27698
822.569	27618
822.709	27583
822.849	27370
822.99	27519
823.13	27542
823.27	27329
823.41	27317
823.55	27070
823.69	27207
823.83	27294
823.97	27192
824.11	27081
824.25	27036
824.389	27112
824.529	27119
824.669	27146
824.809	27161
824.949	27268
825.089	27112
825.228	27173
825.368	26845
825.508	26998
825.648	26842
825.787	27005
825.927	27036
826.067	27024
826.206	26891
826.346	27066
826.485	27085
826.625	26975
826.765	26963
826.904	27089
827.044	26758
827.183	26731
827.323	26598
827.462	26739
827.601	26724
827.741	26769
827.88	26727
828.02	26705
828.159	26678
828.298	26670
828.437	26830
828.577	26693
828.716	26796
828.855	26632
828.994	26476
829.134	26423
829.273	26332
829.412	26328
829.551	26366
829.69	26286
829.829	26450
829.968	26427
830.107	26450
830.246	26408
830.385	26374
830.524	26347
830.663	26195
830.802	26054
830.941	26008
831.08	25951
831.219	26195
831.357	26065
831.496	26317
831.635	26084
831.774	25925
831.913	25997
832.051	25830
832.19	25750
832.329	25879
832.467	25681
832.606	25674
832.744	25548
832.883	25556
833.022	25655
833.16	25662
833.299	25746
833.437	25662
833.576	25670
833.714	25837
833.852	25757
833.991	25811
834.129	25822
834.267	25822
834.406	25723
834.544	25811
834.682	25727
834.821	25708
834.959	25887
835.097	25624
835.235	25681
835.373	25563
835.511	25738
835.65	25635
835.788	25529
835.926	25331
836.064	25445
836.202	25384
836.34	25521
836.478	25632
836.615	25495
836.753	25609
836.891	25521
837.029	25476
837.167	25430
837.305	25590
837.443	25479
837.58	25304
837.718	25331
837.856	25362
837.993	25316
838.131	25392
838.269	25171
838.406	25407
838.544	25095
838.681	24973
838.819	24996
838.956	24886
839.094	24844
839.231	24882
839.369	25000
839.506	25236
839.643	25023
839.781	24863
839.918	24681
840.055	24817
840.193	24787
840.33	24764
840.467	24719
840.604	24837
840.742	24943
840.879	24627
841.016	24585
841.153	24620
841.29	24745
841.427	24734
841.564	24764
841.701	24642
841.838	24806
841.975	24547
842.112	24517
842.249	24570
842.385	24456
842.522	24806
842.659	24505
842.796	24525
842.933	24429
843.069	24566
843.206	24441
843.343	24521
843.479	24479
843.616	24528
843.752	24323
843.889	24201
844.025	24369
844.162	24296
844.298	24289
844.435	24285
844.571	24311
844.708	24323
844.844	24319
844.98	24330
845.117	24513
845.253	24220
845.389	24213
845.525	24224
845.661	24079
845.798	23999
845.934	23935
846.07	23901
846.206	24072
846.342	24163
846.478	23859
846.614	23707
846.75	23638
846.886	23741
847.022	23824
847.158	23687
847.294	23779
847.429	23771
847.565	23771
847.701	23923
847.837	23486
847.972	23455
848.108	23608
848.244	23486
848.379	23429
848.515	23246
848.65	23337
848.786	23364
848.921	23303
849.057	23387
849.192	23455
849.328	23471
849.463	23311
849.598	23212
849.734	23162
849.869	23105
850.004	23006
850.14	23098
850.275	23094
850.41	22930
850.545	23086
850.68	22938
850.815	23048
850.95	23094
851.085	23071
851.22	23178
851.355	23010
851.49	23033
851.625	22911
851.76	23075
851.895	23056
852.03	23010
852.165	23124
852.299	23124
852.434	23056
852.569	22961
852.703	22946
852.838	23075
852.973	23094
853.107	23052
853.242	23071
853.376	22885
853.511	22778
853.645	22839
853.78	23033
853.914	22881
854.048	22850
854.183	22965
854.317	22869
854.451	23029
854.585	22854
854.72	22930
854.854	22927
854.988	22877
855.122	22873
855.256	22820
855.39	22839
855.524	22999
855.658	23018
855.792	22976
855.926	22809
856.06	22927
856.194	22953
856.327	22919
856.461	22786
856.595	22820
856.729	22805
856.862	23079
856.996	22843
857.13	22873
857.263	22980
857.397	22877
857.53	22847
857.664	22828
857.797	22968
857.931	22938
858.064	22930
858.197	22782
858.331	22919
858.464	22892
858.597	22797
858.731	22835
858.864	22816
858.997	22892
859.13	22858
859.263	22889
859.396	22866
859.529	22782
859.662	22877
859.795	22896
859.928	22892
860.061	23109
860.194	22976
860.327	22930
860.46	22889
860.592	23037
860.725	23006
860.858	23086
860.99	22831
861.123	22873
861.256	22793
861.388	22946
861.521	23611
861.653	22896
861.786	22740
861.918	22710
862.05	22873
862.183	22687
862.315	22805
862.447	22816
862.58	22831
862.712	22683
862.844	22546
862.976	22687
863.108	22588
863.24	23060
863.372	22561
863.504	22550
863.636	22565
863.768	22649
863.9	22603
864.032	22455
864.164	22485
864.296	22679
864.428	22675
864.559	22733
864.691	22557
864.823	22630
864.954	22611
865.086	22466
865.217	22531
865.349	22440
865.48	22371
865.612	22447
865.743	22580
865.875	22523
866.006	22432
866.137	22455
866.269	22432
866.4	22402
866.531	22382
866.662	22295
866.793	22390
866.924	22322
867.055	22493
867.186	22455
867.317	22352
867.448	22287
867.579	22390
867.71	22375
867.841	22268
867.972	22360
868.103	22409
868.233	22314
868.364	22382
868.495	22462
868.625	22504
868.756	22733
868.886	22538
869.017	22538
869.147	22717
869.278	22755
869.408	22653
869.539	22725
869.669	22721
869.799	22847
869.929	22767
870.06	22683
870.19	22877
870.32	22820
870.45	22995
870.58	22942
870.71	23041
870.84	23083
870.97	22991
871.1	23025
871.23	23250
871.36	23246
871.489	23136
871.619	23242
871.749	23265
871.879	23277
872.008	23334
872.138	23079
872.267	23140
872.397	23109
872.526	23079
872.656	23105
872.785	23022
872.915	23284
873.044	23212
873.173	23223
873.303	23345
873.432	23280
873.561	23444
873.69	23296
873.819	23128
873.948	23349
874.077	23284
874.206	23159
874.335	23235
874.464	23368
874.593	23421
874.722	23398
874.851	23581
874.979	23436
875.108	23581
875.237	23440
875.365	23376
875.494	23387
875.623	23516
875.751	23497
875.88	23524
876.008	23452
876.136	23562
876.265	23901
876.393	24057
876.521	23866
876.65	23939
876.778	23847
876.906	23771
877.034	23760
877.162	23821
877.29	23737
877.418	23646
877.546	23786
877.674	23722
877.802	23752
877.93	23695
878.058	23676
878.185	23737
878.313	23805
878.441	23661
878.568	23611
878.696	23676
878.824	23790
878.951	23745
879.079	23817
879.206	24049
879.333	23923
879.461	23691
879.588	23897
879.715	23935
879.842	23996
879.97	23840
880.097	23665
880.224	23676
880.351	23623
880.478	23676
880.605	23467
880.732	23478
880.859	23847
880.986	23649
881.112	23619
881.239	23459
881.366	23387
881.493	23174
881.619	23136
881.746	23128
881.872	23189
881.999	23204
882.125	23018
882.252	23098
882.378	23052
882.505	23227
882.631	22995
882.757	22672
882.883	22915
883.01	22820
883.136	22809
883.262	22649
883.388	22653
883.514	22809
883.64	22664
883.766	22664
883.892	22527
884.018	22489
884.143	22778
884.269	22847
884.395	22455
884.52	22390
884.646	22382
884.772	22417
884.897	22325
885.023	22394
885.148	22615
885.274	22557
885.399	22512
885.524	22398
885.65	22405
885.775	22550
885.9	22341
886.025	22656
886.15	22417
886.275	22356
886.4	22390
886.525	22360
886.65	22451
886.775	22390
886.9	22546
887.025	22565
887.149	22390
887.274	22234
887.399	22128
887.523	22086
887.648	22135
887.773	22067
887.897	22337
888.021	22303
888.146	22109
888.27	22242
888.395	22379
888.519	22246
888.643	22249
888.767	22249
888.891	22105
889.015	21899
889.139	22139
889.263	21956
889.387	22128
889.511	22185
889.635	22032
889.759	22067
889.883	21937
890.006	21926
890.13	22055
890.254	21778
890.377	21873
890.501	21728
890.624	21679
890.748	21755
890.871	21553
890.995	21412
891.118	21298
891.241	21519
891.364	21443
891.488	21583
891.611	21572
891.734	21561
891.857	21549
891.98	21405
892.103	21363
892.226	21553
892.349	21466
892.471	21294
892.594	21462
892.717	21504
892.839	21344
892.962	21408
893.085	21466
893.207	21393
893.33	21252
893.452	21367
893.575	21450
893.697	21340
893.819	21420
893.941	21553
894.064	21515
894.186	21283
894.308	21283
894.43	21576
894.552	21477
894.674	21507
894.796	21348
894.918	21374
895.04	21359
895.161	21473
895.283	21435
895.405	21389
895.526	21363
895.648	21389
895.769	21477
895.891	21348
896.012	21378
896.134	21389
896.255	21351
896.376	21211
896.498	21302
896.619	21466
896.74	21443
896.861	21412
896.982	21644
897.103	21869
897.224	21564
897.345	21583
897.466	21507
897.587	21519
897.708	21812
897.828	21644
897.949	21534
898.07	21424
898.19	21534
898.311	21759
898.431	21477
898.552	21542
898.672	21625
898.792	21690
898.913	21599
899.033	21435
899.153	21351
899.273	21272
899.393	21348
899.513	21279
899.633	21264
899.753	21268
899.873	21264
899.993	21313
900.113	21169
900.232	21256
900.352	21256
900.472	21070
900.591	20864
900.711	21138
900.83	21112
900.95	21199
901.069	21146
901.189	20956
901.308	20678
901.427	20629
901.546	20648
901.665	20617
901.784	20575
901.904	20457
902.023	20450
902.141	20084
902.26	20115
902.379	20176
902.498	19963
902.617	20142
902.735	20149
902.854	20225
902.973	19970
903.091	19837
903.21	19822
903.328	19746
903.446	19616
903.565	19597
903.683	19597
903.801	19499
903.919	19521
904.038	19400
904.156	19255
904.274	19434
904.392	19354
904.51	19388
904.627	19240
904.745	19308
904.863	19430
904.981	19069
905.098	19027
905.216	18890
905.334	19034
905.451	19004
905.569	18973
905.686	19114
905.803	19015
905.921	18783
906.038	18890
906.155	18753
906.272	18673
906.389	18707
906.506	18471
906.623	18574
906.74	18521
906.857	18445
906.974	18464
907.091	18528
907.208	18540
907.324	18517
907.441	18399
907.557	18182
907.674	18254
907.79	18068
907.907	18239
908.023	18239
908.139	18155
908.256	18213
908.372	18167
908.488	18011
908.604	18022
908.72	17942
908.836	17946
908.952	17893
909.068	17874
909.184	18114
909.3	17969
909.415	17950
909.531	17889
909.647	17695
909.762	17520
909.878	17589
909.993	17623
910.108	17562
910.224	17547
910.339	17634
910.454	17478
910.57	17448
910.685	17425
910.8	17589
910.915	17573
911.03	17406
911.145	17284
911.259	17162
911.374	17197
911.489	17121
911.604	17147
911.718	16923
911.833	16904
911.947	16881
912.062	16828
912.176	16938
912.291	17029
912.405	17033
912.519	17143
912.633	17109
912.748	16892
912.862	16987
912.976	16782
913.09	16664
913.204	16645
913.318	16759
913.431	16938
913.545	16774
913.659	16820
913.772	16622
913.886	16462
914	16493
914.113	16607
914.226	16786
914.34	16550
914.453	16382
914.566	16573
914.68	16459
914.793	16314
914.906	16173
915.019	16067
915.132	16059
915.245	16093
915.358	16181
915.47	16078
915.583	16048
915.696	16109
915.809	16211
915.921	16185
916.034	15899
916.146	16029
916.259	15960
916.371	15956
916.483	15975
916.595	15854
916.708	15915
916.82	15903
916.932	15835
917.044	15800
917.156	15785
917.268	15759
917.38	15812
917.491	15724
917.603	15785
917.715	15827
917.826	15846
917.938	15618
918.049	15610
918.161	15671
918.272	15880
918.384	15808
918.495	15637
918.606	15485
918.717	15435
918.828	15526
918.939	15572
919.05	15382
919.161	15443
919.272	15298
919.383	15351
919.494	15462
919.604	15732
919.715	15393
919.826	15222
919.936	15416
920.047	15424
920.157	15405
920.267	15606
920.378	15355
920.488	15367
920.598	15572
920.708	15667
920.818	15519
920.928	15591
921.038	15720
921.148	15591
921.258	15389
921.368	15233
921.477	15195
921.587	15039
921.697	15055
921.806	15192
921.916	14937
922.025	14826
922.134	14693
922.244	14773
922.353	14708
922.462	14617
922.571	14587
922.68	14450
922.789	14374
922.898	14355
923.007	14374
923.116	14454
923.224	14408
923.333	14271
923.442	14225
923.55	14138
923.659	14187
923.767	14301
923.876	14168
923.984	14218
924.092	14130
924.201	14016
924.309	14187
924.417	14100
924.525	13940
924.633	13982
924.741	14887
924.849	13814
924.956	13978
925.064	13784
925.172	13696
925.279	13765
925.387	13738
925.494	13814
925.602	13879
925.709	13693
925.816	13620
925.924	13655
926.031	13772
926.138	13658
926.245	13681
926.352	13487
926.459	13742
926.566	13765
926.673	13662
926.779	13468
926.886	13521
926.993	13289
927.099	13312
927.206	13225
927.312	13232
927.419	13388
927.525	13331
927.631	13251
927.737	13251
927.843	13126
927.95	13023
928.056	13118
928.162	13091
928.267	13164
928.373	13727
928.479	13137
928.585	12859
928.69	13095
928.796	13038
928.901	12913
929.007	12829
929.112	12897
929.218	12840
929.323	12795
929.428	12779
929.533	12897
929.638	12848
929.743	12779
929.848	12856
929.953	12681
930.058	12669
930.163	12464
930.267	12418
930.372	12612
930.477	12372
930.581	12601
930.685	12464
930.79	12388
930.894	12445
930.998	12319
931.103	12475
931.207	12068
931.311	12003
931.415	11843
931.519	11828
931.623	11726
