Data from test_V78500241_735.txt Node
Date: Fri Mar 25 15:46:53 CST 2022
User: usil
Spectrometer: V785-0024
Trigger mode: 0
Integration Time (sec): 4.000000E-1
Scans to average: 1
Nonlinearity correction enabled: false
Boxcar width: 0
Storing dark spectrum: false
XAxis mode: Wavelengths
Number of Pixels in Spectrum: 1024
>>>>>Begin Spectral Data<<<<<
801.071	28261
801.214	28074
801.356	27895
801.499	27857
801.641	27572
801.783	27606
801.926	27732
802.068	27633
802.211	27652
802.353	27408
802.496	27439
802.638	27412
802.78	27310
802.923	27374
803.065	27226
803.208	27306
803.35	27256
803.492	27431
803.635	27515
803.777	27477
803.919	27713
804.061	27911
804.204	27629
804.346	27359
804.488	27359
804.63	27355
804.773	27447
804.915	27682
805.057	27572
805.199	27629
805.341	27762
805.483	27766
805.626	27690
805.768	27580
805.91	27618
806.052	27690
806.194	27652
806.336	27842
806.478	27644
806.62	27816
806.762	27747
806.904	27926
807.046	28215
807.188	28215
807.33	28105
807.472	28078
807.614	28177
807.756	28143
807.898	28051
808.04	27861
808.182	27922
808.324	28055
808.465	28078
808.607	28162
808.749	28306
808.891	28398
809.033	28493
809.174	28447
809.316	28318
809.458	28310
809.6	28413
809.741	28557
809.883	28557
810.025	28698
810.166	28672
810.308	28725
810.45	28535
810.591	28577
810.733	28371
810.875	28432
811.016	28166
811.158	28181
811.299	28508
811.441	28569
811.582	28436
811.724	28356
811.865	28337
812.007	28257
812.148	28367
812.29	28401
812.431	28504
812.573	28694
812.714	28771
812.855	28862
812.997	28904
813.138	29056
813.279	29075
813.421	28972
813.562	28828
813.703	28630
813.845	28508
813.986	28314
814.127	27998
814.268	27968
814.41	27975
814.551	27964
814.692	28032
814.833	27994
814.974	28002
815.115	28162
815.256	27892
815.397	27956
815.539	27945
815.68	27701
815.821	27679
815.962	27869
816.103	27922
816.244	27641
816.385	27568
816.526	27599
816.666	27454
816.807	27431
816.948	27370
817.089	27427
817.23	27450
817.371	27386
817.512	27462
817.653	27241
817.793	27203
817.934	27344
818.075	27355
818.216	27389
818.356	27332
818.497	27233
818.638	27298
818.778	27093
818.919	27233
819.06	27275
819.2	27104
819.341	27233
819.481	27252
819.622	27561
819.762	27614
819.903	27793
820.043	27504
820.184	27382
820.324	27458
820.465	27526
820.605	27519
820.746	27363
820.886	27439
821.026	27363
821.167	27424
821.307	27344
821.447	27511
821.588	27336
821.728	27176
821.868	27119
822.008	26800
822.149	26842
822.289	26796
822.429	26583
822.569	26453
822.709	26583
822.849	26332
822.99	26343
823.13	26305
823.27	26393
823.41	26233
823.55	25966
823.69	26130
823.83	26103
823.97	26031
824.11	26005
824.25	25894
824.389	26020
824.529	26058
824.669	26153
824.809	26035
824.949	26027
825.089	26153
825.228	26001
825.368	25906
825.508	25814
825.648	25719
825.787	25837
825.927	25955
826.067	25765
826.206	25955
826.346	25849
826.485	25875
826.625	25852
826.765	26005
826.904	25970
827.044	25533
827.183	25590
827.323	25499
827.462	25693
827.601	25430
827.741	25552
827.88	25666
828.02	25411
828.159	25529
828.298	25708
828.437	25586
828.577	25487
828.716	25563
828.855	25483
828.994	25331
829.134	25346
829.273	25297
829.412	25354
829.551	25168
829.69	25343
829.829	25346
829.968	25487
830.107	25297
830.246	25244
830.385	25209
830.524	25263
830.663	25099
830.802	24962
830.941	24871
831.08	24795
831.219	24947
831.357	24871
831.496	25152
831.635	24913
831.774	24878
831.913	24787
832.051	24692
832.19	24642
832.329	24658
832.467	24688
832.606	24528
832.744	24525
832.883	24441
833.022	24483
833.16	24669
833.299	24498
833.437	24646
833.576	24627
833.714	24559
833.852	24734
833.991	24642
834.129	24692
834.267	24627
834.406	24555
834.544	24669
834.682	24631
834.821	24566
834.959	24734
835.097	24544
835.235	24711
835.373	24623
835.511	24551
835.65	24612
835.788	24429
835.926	24391
836.064	24304
836.202	24334
836.34	24403
836.478	24513
836.615	24475
836.753	24505
836.891	24448
837.029	24410
837.167	24243
837.305	24410
837.443	24262
837.58	24182
837.718	24289
837.856	24323
837.993	24178
838.131	24258
838.269	24060
838.406	24186
838.544	24018
838.681	23954
838.819	23946
838.956	23718
839.094	23745
839.231	23817
839.369	23935
839.506	24079
839.643	24015
839.781	23798
839.918	23722
840.055	23684
840.193	23623
840.33	23741
840.467	23642
840.604	23745
840.742	24015
840.879	23649
841.016	23463
841.153	23592
841.29	23714
841.427	23611
841.564	23661
841.701	23672
841.838	23509
841.975	23501
842.112	23490
842.249	23448
842.385	23398
842.522	23562
842.659	23391
842.796	23497
842.933	23482
843.069	23444
843.206	23376
843.343	23364
843.479	23490
843.616	23455
843.752	23250
843.889	23280
844.025	23486
844.162	23231
844.298	23208
844.435	23284
844.571	23170
844.708	23140
844.844	23337
844.98	23250
845.117	23288
845.253	23067
845.389	23052
845.525	23132
845.661	23010
845.798	22946
845.934	23037
846.07	22976
846.206	22885
846.342	23048
846.478	23041
846.614	22660
846.75	22675
846.886	22748
847.022	22656
847.158	22812
847.294	22561
847.429	22622
847.565	22607
847.701	22778
847.837	22226
847.972	22360
848.108	22390
848.244	22322
848.379	22459
848.515	22265
848.65	22177
848.786	22055
848.921	22261
849.057	22333
849.192	22143
849.328	22207
849.463	22291
849.598	22173
849.734	22128
849.869	22040
850.004	22017
850.14	22032
850.275	21945
850.41	21907
850.545	21926
850.68	21956
850.815	21991
850.95	21964
851.085	22162
851.22	22177
851.355	21991
851.49	21998
851.625	22025
851.76	21979
851.895	21888
852.03	21926
852.165	21895
852.299	21991
852.434	22063
852.569	21850
852.703	22078
852.838	21994
852.973	22200
853.107	22185
853.242	21930
853.376	21895
853.511	21739
853.645	21728
853.78	21983
853.914	21720
854.048	21804
854.183	21755
854.317	21766
854.451	22040
854.585	21899
854.72	21812
854.854	21945
854.988	21812
855.122	21747
855.256	21728
855.39	21747
855.524	21934
855.658	21835
855.792	21781
855.926	21751
856.06	21861
856.194	21907
856.327	21755
856.461	21755
856.595	21808
856.729	21930
856.862	21926
856.996	21838
857.13	21880
857.263	21846
857.397	21899
857.53	21724
857.664	22013
857.797	21827
857.931	21991
858.064	21770
858.197	21998
858.331	21614
858.464	21800
858.597	21717
858.731	21789
858.864	21713
858.997	21911
859.13	21861
859.263	21869
859.396	21895
859.529	21690
859.662	21793
859.795	21751
859.928	21717
860.061	21835
860.194	21899
860.327	21895
860.46	21865
860.592	21873
860.725	21934
860.858	22021
860.99	21903
861.123	21850
861.256	21793
861.388	21759
861.521	22432
861.653	21576
861.786	21663
861.918	21614
862.05	21625
862.183	21610
862.315	21736
862.447	21785
862.58	21679
862.712	21428
862.844	21549
862.976	21637
863.108	21595
863.24	22017
863.372	21473
863.504	21553
863.636	21557
863.768	21485
863.9	21485
864.032	21439
864.164	21393
864.296	21561
864.428	21625
864.559	21576
864.691	21545
864.823	21633
864.954	21462
865.086	21492
865.217	21431
865.349	21450
865.48	21473
865.612	21268
865.743	21473
865.875	21386
866.006	21435
866.137	21294
866.269	21405
866.4	21408
866.531	21370
866.662	21336
866.793	21386
866.924	21233
867.055	21447
867.186	21336
867.317	21237
867.448	21169
867.579	21344
867.71	21241
867.841	21184
867.972	21416
868.103	21317
868.233	21378
868.364	21374
868.495	21416
868.625	21507
868.756	21568
868.886	21496
869.017	21507
869.147	21709
869.278	21682
869.408	21690
869.539	21618
869.669	21644
869.799	21652
869.929	21625
870.06	21625
870.19	21873
870.32	21846
870.45	21861
870.58	22002
870.71	21998
870.84	22055
870.97	21998
871.1	22067
871.23	22181
871.36	22128
871.489	22059
871.619	22044
871.749	22196
871.879	22207
872.008	22360
872.138	22128
872.267	22253
872.397	21972
872.526	21972
872.656	22017
872.785	21956
872.915	22135
873.044	22207
873.173	22223
873.303	22226
873.432	22333
873.561	22352
873.69	22215
873.819	22135
873.948	22394
874.077	22139
874.206	22139
874.335	22173
874.464	22402
874.593	22440
874.722	22360
874.851	22455
874.979	22390
875.108	22424
875.237	22382
875.365	22299
875.494	22253
875.623	22443
875.751	22512
875.88	22382
876.008	22432
876.136	22462
876.265	22755
876.393	22946
876.521	22831
876.65	22835
876.778	22786
876.906	22797
877.034	22660
877.162	22828
877.29	22771
877.418	22763
877.546	22771
877.674	22752
877.802	22649
877.93	22694
878.058	22687
878.185	22656
878.313	22782
878.441	22634
878.568	22672
878.696	22744
878.824	22778
878.951	22885
879.079	22866
879.206	23090
879.333	22942
879.461	22771
879.588	22850
879.715	22942
879.842	23010
879.97	22694
880.097	22611
880.224	22656
880.351	22713
880.478	22603
880.605	22588
880.732	22573
880.859	22725
880.986	22588
881.112	22569
881.239	22402
881.366	22409
881.493	22333
881.619	22112
881.746	22196
881.872	22196
881.999	22090
882.125	22093
882.252	22192
882.378	22143
882.505	22211
882.631	21983
882.757	21827
882.883	22006
883.01	21876
883.136	21724
883.262	21705
883.388	21648
883.514	21918
883.64	21846
883.766	21808
883.892	21561
884.018	21732
884.143	21717
884.269	21816
884.395	21488
884.52	21496
884.646	21462
884.772	21359
884.897	21329
885.023	21454
885.148	21595
885.274	21686
885.399	21610
885.524	21496
885.65	21443
885.775	21488
885.9	21530
886.025	21488
886.15	21595
886.275	21336
886.4	21359
886.525	21500
886.65	21431
886.775	21336
886.9	21610
887.025	21717
887.149	21473
887.274	21260
887.399	21214
887.523	21222
887.648	21119
887.773	21150
887.897	21279
888.021	21329
888.146	21135
888.27	21351
888.395	21283
888.519	21306
888.643	21294
888.767	21291
888.891	21127
889.015	21017
889.139	21173
889.263	21066
889.387	21169
889.511	21268
889.635	21119
889.759	20948
889.883	20918
890.006	20929
890.13	21104
890.254	20864
890.377	20933
890.501	20804
890.624	20693
890.748	20746
890.871	20762
890.995	20598
891.118	20465
891.241	20651
891.364	20507
891.488	20625
891.611	20594
891.734	20602
891.857	20686
891.98	20533
892.103	20731
892.226	20590
892.349	20621
892.471	20423
892.594	20579
892.717	20484
892.839	20492
892.962	20511
893.085	20636
893.207	20400
893.33	20339
893.452	20336
893.575	20541
893.697	20492
893.819	20556
893.941	20621
894.064	20560
894.186	20446
894.308	20393
894.43	20488
894.552	20564
894.674	20651
894.796	20370
894.918	20381
895.04	20461
895.161	20495
895.283	20598
895.405	20309
895.526	20400
895.648	20408
895.769	20522
895.891	20438
896.012	20583
896.134	20625
896.255	20431
896.376	20431
896.498	20579
896.619	20412
896.74	20415
896.861	20552
896.982	20785
897.103	20876
897.224	20743
897.345	20731
897.466	20579
897.587	20765
897.708	20781
897.828	20735
897.949	20689
898.07	20507
898.19	20518
898.311	20746
898.431	20644
898.552	20621
898.672	20933
898.792	20754
898.913	20659
899.033	20541
899.153	20488
899.273	20290
899.393	20370
899.513	20545
899.633	20476
899.753	20514
899.873	20431
899.993	20476
900.113	20370
900.232	20415
900.352	20347
900.472	20271
900.591	20206
900.711	20267
900.83	20172
900.95	20149
901.069	20332
901.189	20130
901.308	19902
901.427	19795
901.546	19803
901.665	19807
901.784	19799
901.904	19769
902.023	19533
902.141	19388
902.26	19335
902.379	19438
902.498	19297
902.617	19289
902.735	19297
902.854	19270
902.973	19217
903.091	19076
903.21	18920
903.328	18962
903.446	18821
903.565	18707
903.683	18779
903.801	18665
903.919	18719
904.038	18608
904.156	18471
904.274	18532
904.392	18566
904.51	18464
904.627	18559
904.745	18612
904.863	18517
904.981	18365
905.098	18251
905.216	18155
905.334	18327
905.451	18220
905.569	18167
905.686	18273
905.803	18152
905.921	18095
906.038	18019
906.155	18015
906.272	17931
906.389	17942
906.506	17718
906.623	17756
906.74	17695
906.857	17562
906.974	17657
907.091	17786
907.208	17805
907.324	17836
907.441	17642
907.557	17414
907.674	17516
907.79	17402
907.907	17395
908.023	17448
908.139	17444
908.256	17478
908.372	17292
908.488	17284
908.604	17193
908.72	17166
908.836	17269
908.952	17197
909.068	17128
909.184	17212
909.3	17181
909.415	17277
909.531	17197
909.647	16908
909.762	17003
909.878	16881
909.993	16877
910.108	16809
910.224	16828
910.339	16908
910.454	16702
910.57	16675
910.685	16599
910.8	16843
910.915	16793
911.03	16733
911.145	16516
911.259	16424
911.374	16436
911.489	16329
911.604	16291
911.718	16295
911.833	16238
911.947	16185
912.062	16112
912.176	16249
912.291	16257
912.405	16253
912.519	16432
912.633	16318
912.748	16238
912.862	16230
912.976	15975
913.09	15907
913.204	16040
913.318	15953
913.431	16105
913.545	16048
913.659	16021
913.772	15865
913.886	15774
914	15934
914.113	15876
914.226	15934
914.34	15941
914.453	15793
914.566	15743
914.68	15682
914.793	15568
914.906	15481
915.019	15420
915.132	15329
915.245	15439
915.358	15389
915.47	15374
915.583	15462
915.696	15382
915.809	15538
915.921	15572
916.034	15355
916.146	15268
916.259	15291
916.371	15378
916.483	15367
916.595	15241
916.708	15222
916.82	15222
916.932	15180
917.044	15291
917.156	15161
917.268	14975
917.38	15116
917.491	15020
917.603	14979
917.715	15116
917.826	15230
917.938	14921
918.049	14868
918.161	14910
918.272	15131
918.384	15138
918.495	14967
918.606	14872
918.717	14910
918.828	14876
918.939	14838
919.05	14773
919.161	14781
919.272	14568
919.383	14594
919.494	14830
919.604	14948
919.715	14819
919.826	14731
919.936	14708
920.047	14830
920.157	14800
920.267	15039
920.378	14773
920.488	14667
920.598	14925
920.708	15135
920.818	14883
920.928	14952
921.038	15013
921.148	14948
921.258	14731
921.368	14636
921.477	14602
921.587	14473
921.697	14317
921.806	14617
921.916	14396
922.025	14138
922.134	14100
922.244	14142
922.353	14107
922.462	14046
922.571	13944
922.68	13715
922.789	13753
922.898	13875
923.007	13708
923.116	13818
923.224	13803
923.333	13696
923.442	13632
923.55	13639
923.659	13552
923.767	13525
923.876	13510
923.984	13666
924.092	13510
924.201	13563
924.309	13529
924.417	13449
924.525	13415
924.633	13502
924.741	14377
924.849	13278
924.956	13400
925.064	13244
925.172	13114
925.279	13206
925.387	13160
925.494	13175
925.602	13247
925.709	13171
925.816	13118
925.924	13126
926.031	13209
926.138	13053
926.245	13103
926.352	13038
926.459	13152
926.566	13206
926.673	13004
926.779	12947
926.886	12939
926.993	12844
927.099	12700
927.206	12757
927.312	12642
927.419	12768
927.525	12715
927.631	12768
927.737	12616
927.843	12544
927.95	12433
928.056	12604
928.162	12494
928.267	12642
928.373	13206
928.479	12635
928.585	12323
928.69	12502
928.796	12585
928.901	12361
929.007	12292
929.112	12319
929.218	12403
929.323	12388
929.428	12292
929.533	12334
929.638	12182
929.743	12186
929.848	12216
929.953	12338
930.058	12110
930.163	11973
930.267	11946
930.372	12159
930.477	11878
930.581	12140
930.685	12110
930.79	11901
930.894	11863
930.998	11741
931.103	11942
931.207	11596
931.311	11490
931.415	11353
931.519	11280
931.623	11181
