Data from test_V78500241_2807.txt Node
Date: Fri Mar 25 16:01:14 CST 2022
User: usil
Spectrometer: V785-0024
Trigger mode: 0
Integration Time (sec): 4.000000E-1
Scans to average: 1
Nonlinearity correction enabled: false
Boxcar width: 0
Storing dark spectrum: false
XAxis mode: Wavelengths
Number of Pixels in Spectrum: 1024
>>>>>Begin Spectral Data<<<<<
801.071	28980
801.214	28949
801.356	28816
801.499	28763
801.641	28622
801.783	28713
801.926	28698
802.068	28611
802.211	28527
802.353	28603
802.496	28424
802.638	28310
802.78	28303
802.923	28223
803.065	28181
803.208	28131
803.35	28284
803.492	28470
803.635	28550
803.777	28500
803.919	28565
804.061	28778
804.204	28542
804.346	28485
804.488	28557
804.63	28478
804.773	28573
804.915	28694
805.057	28706
805.199	28561
805.341	28611
805.483	28809
805.626	28729
805.768	28527
805.91	28637
806.052	28607
806.194	28744
806.336	28965
806.478	28508
806.62	28740
806.762	28965
806.904	29064
807.046	29292
807.188	29079
807.33	29223
807.472	29402
807.614	29121
807.756	29288
807.898	29052
808.04	28995
808.182	28968
808.324	29079
808.465	29109
808.607	29250
808.749	29356
808.891	29474
809.033	29558
809.174	29452
809.316	29360
809.458	29410
809.6	29406
809.741	29448
809.883	29585
810.025	29661
810.166	29897
810.308	29771
810.45	29714
810.591	29634
810.733	29680
810.875	29444
811.016	29242
811.158	29307
811.299	29471
811.441	29497
811.582	29516
811.724	29436
811.865	29516
812.007	29288
812.148	29436
812.29	29562
812.431	29638
812.573	29752
812.714	29992
812.855	29946
812.997	30038
813.138	30190
813.279	29984
813.421	29969
813.562	29874
813.703	29882
813.845	29676
813.986	29356
814.127	29296
814.268	29113
814.41	29204
814.551	29242
814.692	29147
814.833	29136
814.974	29071
815.115	29178
815.256	29102
815.397	29136
815.539	29079
815.68	29022
815.821	29079
815.962	29147
816.103	28946
816.244	28896
816.385	28675
816.526	28771
816.666	28523
816.807	28451
816.948	28485
817.089	28531
817.23	28531
817.371	28497
817.512	28531
817.653	28527
817.793	28413
817.934	28459
818.075	28394
818.216	28481
818.356	28508
818.497	28417
818.638	28261
818.778	28333
818.919	28348
819.06	28280
819.2	28367
819.341	28512
819.481	28592
819.622	28653
819.762	28866
819.903	28755
820.043	28698
820.184	28786
820.324	28641
820.465	28649
820.605	28812
820.746	28641
820.886	28440
821.026	28611
821.167	28421
821.307	28713
821.447	28569
821.588	28462
821.728	28382
821.868	28101
822.008	27975
822.149	27949
822.289	28002
822.429	27759
822.569	27713
822.709	27625
822.849	27534
822.99	27458
823.13	27538
823.27	27454
823.41	27294
823.55	27321
823.69	27344
823.83	27389
823.97	27317
824.11	27176
824.25	27062
824.389	27157
824.529	27222
824.669	27218
824.809	27233
824.949	27275
825.089	27329
825.228	27135
825.368	27001
825.508	26971
825.648	27024
825.787	27116
825.927	27100
826.067	27051
826.206	27009
826.346	27112
826.485	27233
826.625	27150
826.765	27131
826.904	27203
827.044	26788
827.183	27009
827.323	26739
827.462	26792
827.601	26750
827.741	26746
827.88	26811
828.02	26807
828.159	26716
828.298	26743
828.437	26788
828.577	26788
828.716	26880
828.855	26629
828.994	26415
829.134	26415
829.273	26552
829.412	26412
829.551	26366
829.69	26465
829.829	26579
829.968	26549
830.107	26453
830.246	26381
830.385	26324
830.524	26355
830.663	26138
830.802	26309
830.941	26065
831.08	25932
831.219	26210
831.357	26164
831.496	26252
831.635	26046
831.774	25868
831.913	25921
832.051	25826
832.19	25909
832.329	25826
832.467	25776
832.606	25788
832.744	25677
832.883	25723
833.022	25696
833.16	25750
833.299	25814
833.437	25788
833.576	25852
833.714	25928
833.852	25879
833.991	25753
834.129	25856
834.267	26073
834.406	25856
834.544	25894
834.682	25788
834.821	25780
834.959	25925
835.097	25746
835.235	25936
835.373	25879
835.511	25780
835.65	25715
835.788	25613
835.926	25521
836.064	25343
836.202	25438
836.34	25700
836.478	25674
836.615	25674
836.753	25632
836.891	25639
837.029	25723
837.167	25556
837.305	25449
837.443	25533
837.58	25563
837.718	25468
837.856	25358
837.993	25403
838.131	25441
838.269	25285
838.406	25411
838.544	25293
838.681	25168
838.819	25050
838.956	24962
839.094	24951
839.231	24905
839.369	25038
839.506	25213
839.643	25088
839.781	24920
839.918	24920
840.055	24859
840.193	24875
840.33	24894
840.467	24837
840.604	24852
840.742	25034
840.879	24639
841.016	24806
841.153	24711
841.29	24954
841.427	24821
841.564	24814
841.701	24757
841.838	24821
841.975	24669
842.112	24528
842.249	24563
842.385	24642
842.522	24772
842.659	24715
842.796	24563
842.933	24570
843.069	24361
843.206	24555
843.343	24566
843.479	24574
843.616	24517
843.752	24365
843.889	24327
844.025	24467
844.162	24361
844.298	24460
844.435	24289
844.571	24380
844.708	24296
844.844	24456
844.98	24608
845.117	24525
845.253	24254
845.389	24133
845.525	24197
845.661	24262
845.798	24167
845.934	24117
846.07	24057
846.206	24102
846.342	24292
846.478	24091
846.614	23931
846.75	23748
846.886	23767
847.022	23870
847.158	23885
847.294	23923
847.429	23752
847.565	23775
847.701	24026
847.837	23592
847.972	23611
848.108	23646
848.244	23600
848.379	23467
848.515	23414
848.65	23318
848.786	23402
848.921	23353
849.057	23581
849.192	23600
849.328	23395
849.463	23379
849.598	23372
849.734	23273
849.869	23307
850.004	23048
850.14	23227
850.275	23151
850.41	23155
850.545	23124
850.68	22991
850.815	23212
850.95	23128
851.085	23474
851.22	23227
851.355	23143
851.49	23178
851.625	23166
851.76	23128
851.895	23022
852.03	23056
852.165	23067
852.299	23170
852.434	23273
852.569	23136
852.703	23258
852.838	23277
852.973	23189
853.107	23223
853.242	23109
853.376	22923
853.511	22683
853.645	22942
853.78	23060
853.914	22972
854.048	22942
854.183	22972
854.317	22984
854.451	23174
854.585	22930
854.72	23048
854.854	23003
854.988	22938
855.122	22923
855.256	22755
855.39	22942
855.524	23056
855.658	23121
855.792	23064
855.926	22953
856.06	23079
856.194	23033
856.327	22858
856.461	22957
856.595	22968
856.729	22889
856.862	23041
856.996	22869
857.13	23075
857.263	23143
857.397	23136
857.53	22968
857.664	22957
857.797	23067
857.931	22953
858.064	22949
858.197	23147
858.331	22999
858.464	22911
858.597	22949
858.731	22908
858.864	22885
858.997	22869
859.13	22938
859.263	22942
859.396	23075
859.529	23029
859.662	22915
859.795	22866
859.928	22980
860.061	23200
860.194	23102
860.327	23006
860.46	22873
860.592	23075
860.725	23018
860.858	23029
860.99	22957
861.123	22927
861.256	22976
861.388	22968
861.521	23604
861.653	22820
861.786	22664
861.918	22687
862.05	22934
862.183	22816
862.315	22904
862.447	22862
862.58	22820
862.712	22626
862.844	22694
862.976	22759
863.108	22778
863.24	23060
863.372	22672
863.504	22672
863.636	22565
863.768	22596
863.9	22683
864.032	22554
864.164	22645
864.296	22733
864.428	22675
864.559	22755
864.691	22653
864.823	22630
864.954	22702
865.086	22527
865.217	22546
865.349	22455
865.48	22516
865.612	22527
865.743	22577
865.875	22459
866.006	22470
866.137	22485
866.269	22569
866.4	22455
866.531	22443
866.662	22504
866.793	22512
866.924	22436
867.055	22481
867.186	22500
867.317	22421
867.448	22299
867.579	22451
867.71	22382
867.841	22379
867.972	22382
868.103	22466
868.233	22428
868.364	22443
868.495	22481
868.625	22698
868.756	22843
868.886	22565
869.017	22645
869.147	22797
869.278	22892
869.408	22820
869.539	22634
869.669	22755
869.799	22698
869.929	22797
870.06	22774
870.19	22976
870.32	22995
870.45	23124
870.58	23006
870.71	23273
870.84	23151
870.97	23090
871.1	23029
871.23	23353
871.36	23337
871.489	23166
871.619	23307
871.749	23269
871.879	23353
872.008	23345
872.138	23341
872.267	23379
872.397	23239
872.526	23079
872.656	23132
872.785	23079
872.915	23398
873.044	23433
873.173	23345
873.303	23303
873.432	23417
873.561	23505
873.69	23315
873.819	23303
873.948	23471
874.077	23269
874.206	23349
874.335	23277
874.464	23471
874.593	23512
874.722	23573
874.851	23497
874.979	23589
875.108	23642
875.237	23486
875.365	23288
875.494	23691
875.623	23676
875.751	23417
875.88	23543
876.008	23615
876.136	23703
876.265	24015
876.393	24125
876.521	23973
876.65	23996
876.778	23874
876.906	23912
877.034	23901
877.162	23961
877.29	23863
877.418	23927
877.546	23779
877.674	23866
877.802	23863
877.93	23920
878.058	23859
878.185	23691
878.313	23817
878.441	23695
878.568	23756
878.696	23764
878.824	23840
878.951	23961
879.079	24121
879.206	24304
879.333	24083
879.461	23893
879.588	24072
879.715	23946
879.842	24079
879.97	23885
880.097	23691
880.224	23672
880.351	23726
880.478	23737
880.605	23657
880.732	23668
880.859	23908
880.986	23687
881.112	23676
881.239	23452
881.366	23410
881.493	23345
881.619	23113
881.746	23330
881.872	23292
881.999	23212
882.125	23124
882.252	23349
882.378	23098
882.505	23265
882.631	22991
882.757	22965
882.883	22976
883.01	22835
883.136	23006
883.262	22736
883.388	22713
883.514	22957
883.64	23029
883.766	22816
883.892	22550
884.018	22721
884.143	22782
884.269	22881
884.395	22550
884.52	22599
884.646	22538
884.772	22455
884.897	22436
885.023	22664
885.148	22596
885.274	22767
885.399	22516
885.524	22550
885.65	22550
885.775	22470
885.9	22493
886.025	22687
886.15	22592
886.275	22447
886.4	22322
886.525	22523
886.65	22318
886.775	22451
886.9	22615
887.025	22607
887.149	22390
887.274	22303
887.399	22375
887.523	22280
887.648	22226
887.773	22352
887.897	22291
888.021	22337
888.146	22276
888.27	22413
888.395	22325
888.519	22196
888.643	22246
888.767	22223
888.891	22226
889.015	22093
889.139	22116
889.263	21956
889.387	22207
889.511	22318
889.635	22253
889.759	22036
889.883	22162
890.006	22006
890.13	22147
890.254	21949
890.377	21964
890.501	21793
890.624	21675
890.748	21797
890.871	21690
890.995	21530
891.118	21545
891.241	21652
891.364	21637
891.488	21671
891.611	21690
891.734	21606
891.857	21690
891.98	21603
892.103	21614
892.226	21663
892.349	21553
892.471	21370
892.594	21439
892.717	21545
892.839	21504
892.962	21545
893.085	21534
893.207	21378
893.33	21344
893.452	21488
893.575	21488
893.697	21488
893.819	21633
893.941	21633
894.064	21686
894.186	21325
894.308	21507
894.43	21580
894.552	21603
894.674	21507
894.796	21279
894.918	21462
895.04	21466
895.161	21317
895.283	21553
895.405	21386
895.526	21439
895.648	21454
895.769	21481
895.891	21500
896.012	21519
896.134	21523
896.255	21397
896.376	21393
896.498	21511
896.619	21488
896.74	21310
896.861	21542
896.982	21793
897.103	21835
897.224	21755
897.345	21694
897.466	21633
897.587	21660
897.708	21751
897.828	21660
897.949	21625
898.07	21351
898.19	21610
898.311	21816
898.431	21637
898.552	21599
898.672	21660
898.792	21713
898.913	21671
899.033	21507
899.153	21389
899.273	21389
899.393	21336
899.513	21408
899.633	21386
899.753	21397
899.873	21355
899.993	21530
900.113	21313
900.232	21329
900.352	21344
900.472	21154
900.591	21135
900.711	21116
900.83	21039
900.95	21268
901.069	21214
901.189	21017
901.308	20777
901.427	20609
901.546	20678
901.665	20632
901.784	20735
901.904	20571
902.023	20495
902.141	20187
902.26	20225
902.379	20244
902.498	20191
902.617	20252
902.735	20199
902.854	20130
902.973	20225
903.091	19791
903.21	19909
903.328	19776
903.446	19769
903.565	19609
903.683	19609
903.801	19472
903.919	19597
904.038	19552
904.156	19438
904.274	19422
904.392	19331
904.51	19422
904.627	19396
904.745	19411
904.863	19343
904.981	19244
905.098	19034
905.216	19015
905.334	19213
905.451	19042
905.569	19072
905.686	19198
905.803	18996
905.921	18779
906.038	18993
906.155	18833
906.272	18829
906.389	18837
906.506	18506
906.623	18627
906.74	18574
906.857	18498
906.974	18380
907.091	18639
907.208	18700
907.324	18654
907.441	18555
907.557	18289
907.674	18228
907.79	18129
907.907	18155
908.023	18376
908.139	18216
908.256	18220
908.372	18182
908.488	18209
908.604	18011
908.72	17969
908.836	18045
908.952	17927
909.068	17980
909.184	18064
909.3	17980
909.415	17977
909.531	17965
909.647	17847
909.762	17775
909.878	17680
909.993	17657
910.108	17630
910.224	17535
910.339	17737
910.454	17646
910.57	17505
910.685	17493
910.8	17718
910.915	17703
911.03	17482
911.145	17296
911.259	17254
911.374	17242
911.489	17364
911.604	17083
911.718	16980
911.833	17098
911.947	16850
912.062	16858
912.176	16999
912.291	17094
912.405	16908
912.519	17094
912.633	17162
912.748	17102
912.862	16999
912.976	16847
913.09	16733
913.204	16717
913.318	16786
913.431	16839
913.545	16972
913.659	16976
913.772	16729
913.886	16618
914	16561
914.113	16637
914.226	16820
914.34	16573
914.453	16443
914.566	16645
914.68	16550
914.793	16459
914.906	16169
915.019	16177
915.132	16143
915.245	16074
915.358	16143
915.47	16223
915.583	16120
915.696	16185
915.809	16306
915.921	16219
916.034	16112
916.146	16131
916.259	16082
916.371	16147
916.483	16112
916.595	16029
916.708	15979
916.82	15994
916.932	15964
917.044	15895
917.156	15930
917.268	15827
917.38	15876
917.491	15774
917.603	15770
917.715	15880
917.826	15831
917.938	15762
918.049	15644
918.161	15679
918.272	15808
918.384	15892
918.495	15739
918.606	15500
918.717	15488
918.828	15481
918.939	15481
919.05	15431
919.161	15553
919.272	15363
919.383	15298
919.494	15743
919.604	15614
919.715	15466
919.826	15412
919.936	15393
920.047	15675
920.157	15401
920.267	15690
920.378	15401
920.488	15454
920.598	15606
920.708	15743
920.818	15633
920.928	15561
921.038	15789
921.148	15713
921.258	15393
921.368	15325
921.477	15112
921.587	15218
921.697	15047
921.806	15157
921.916	15028
922.025	14967
922.134	14800
922.244	14629
922.353	14830
922.462	14697
922.571	14640
922.68	14541
922.789	14442
922.898	14492
923.007	14438
923.116	14457
923.224	14442
923.333	14419
923.442	14328
923.55	14259
923.659	14164
923.767	14339
923.876	14164
923.984	14256
924.092	14111
924.201	14107
924.309	14096
924.417	14183
924.525	14062
924.633	14176
924.741	15039
924.849	13833
924.956	14008
925.064	13932
925.172	13772
925.279	13715
925.387	13868
925.494	13742
925.602	13959
925.709	13738
925.816	13734
925.924	13723
926.031	13750
926.138	13696
926.245	13830
926.352	13510
926.459	13700
926.566	13849
926.673	13636
926.779	13537
926.886	13601
926.993	13426
927.099	13377
927.206	13346
927.312	13301
927.419	13430
927.525	13407
927.631	13362
927.737	13232
927.843	13152
927.95	13065
928.056	13149
928.162	13114
928.267	13171
928.373	13670
928.479	13095
928.585	13031
928.69	13107
928.796	13187
928.901	13023
929.007	12844
929.112	12951
929.218	12973
929.323	12897
929.428	12878
929.533	12985
929.638	12810
929.743	12779
929.848	12928
929.953	12829
930.058	12631
930.163	12509
930.267	12589
930.372	12635
930.477	12563
930.581	12654
930.685	12555
930.79	12300
930.894	12388
930.998	12372
931.103	12547
931.207	12175
931.311	12117
931.415	11999
931.519	11710
931.623	11710
