Data from test_V78500241_2953.txt Node
Date: Fri Mar 25 16:02:15 CST 2022
User: usil
Spectrometer: V785-0024
Trigger mode: 0
Integration Time (sec): 4.000000E-1
Scans to average: 1
Nonlinearity correction enabled: false
Boxcar width: 0
Storing dark spectrum: false
XAxis mode: Wavelengths
Number of Pixels in Spectrum: 1024
>>>>>Begin Spectral Data<<<<<
801.071	28900
801.214	28679
801.356	28736
801.499	28611
801.641	28295
801.783	28489
801.926	28550
802.068	28341
802.211	28348
802.353	28333
802.496	28200
802.638	28219
802.78	28162
802.923	28006
803.065	28006
803.208	27930
803.35	28261
803.492	28261
803.635	28276
803.777	28242
803.919	28394
804.061	28569
804.204	28337
804.346	28386
804.488	28204
804.63	28386
804.773	28211
804.915	28493
805.057	28386
805.199	28356
805.341	28409
805.483	28504
805.626	28645
805.768	28348
805.91	28542
806.052	28527
806.194	28432
806.336	28626
806.478	28478
806.62	28516
806.762	28588
806.904	28797
807.046	28942
807.188	28908
807.33	29041
807.472	29132
807.614	28850
807.756	28968
807.898	28805
808.04	28740
808.182	28835
808.324	28908
808.465	29052
808.607	29208
808.749	29227
808.891	29223
809.033	29261
809.174	29208
809.316	29212
809.458	29330
809.6	29086
809.741	29170
809.883	29322
810.025	29455
810.166	29429
810.308	29452
810.45	29398
810.591	29459
810.733	29170
810.875	29162
811.016	29109
811.158	29155
811.299	29280
811.441	29467
811.582	29478
811.724	29178
811.865	29197
812.007	29261
812.148	29277
812.29	29223
812.431	29383
812.573	29543
812.714	29707
812.855	29824
812.997	29843
813.138	29920
813.279	29828
813.421	29790
813.562	29680
813.703	29505
813.845	29490
813.986	29208
814.127	29010
814.268	28888
814.41	28782
814.551	28858
814.692	29117
814.833	28854
814.974	28911
815.115	28972
815.256	28828
815.397	28843
815.539	28831
815.68	28782
815.821	28748
815.962	28824
816.103	28774
816.244	28596
816.385	28656
816.526	28493
816.666	28246
816.807	28287
816.948	28356
817.089	28291
817.23	28105
817.371	28322
817.512	28265
817.653	28276
817.793	28074
817.934	28306
818.075	28303
818.216	28211
818.356	28044
818.497	28181
818.638	27880
818.778	27945
818.919	28017
819.06	28070
819.2	28128
819.341	28348
819.481	28185
819.622	28436
819.762	28512
819.903	28516
820.043	28580
820.184	28375
820.324	28287
820.465	28398
820.605	28348
820.746	28398
820.886	28314
821.026	28447
821.167	28428
821.307	28401
821.447	28166
821.588	28124
821.728	28044
821.868	27930
822.008	27728
822.149	27736
822.289	27770
822.429	27443
822.569	27313
822.709	27485
822.849	27310
822.99	27336
823.13	27260
823.27	27199
823.41	27017
823.55	26994
823.69	27138
823.83	27001
823.97	27058
824.11	26906
824.25	26849
824.389	26826
824.529	27039
824.669	26823
824.809	27112
824.949	27005
825.089	27047
825.228	26944
825.368	26739
825.508	26842
825.648	26910
825.787	26826
825.927	26777
826.067	26629
826.206	26716
826.346	26857
826.485	26834
826.625	26838
826.765	26838
826.904	26762
827.044	26697
827.183	26674
827.323	26564
827.462	26511
827.601	26518
827.741	26480
827.88	26556
828.02	26484
828.159	26530
828.298	26682
828.437	26473
828.577	26446
828.716	26609
828.855	26389
828.994	26218
829.134	26225
829.273	26233
829.412	26134
829.551	26180
829.69	26415
829.829	26275
829.968	26199
830.107	26305
830.246	26263
830.385	26225
830.524	26046
830.663	26077
830.802	25875
830.941	25864
831.08	25788
831.219	25826
831.357	25811
831.496	26157
831.635	25784
831.774	25795
831.913	25753
832.051	25651
832.19	25548
832.329	25719
832.467	25537
832.606	25426
832.744	25445
832.883	25502
833.022	25525
833.16	25613
833.299	25533
833.437	25529
833.576	25677
833.714	25670
833.852	25704
833.991	25514
834.129	25757
834.267	25632
834.406	25632
834.544	25590
834.682	25586
834.821	25483
834.959	25693
835.097	25392
835.235	25582
835.373	25548
835.511	25415
835.65	25434
835.788	25491
835.926	25217
836.064	25217
836.202	25244
836.34	25430
836.478	25426
836.615	25392
836.753	25346
836.891	25365
837.029	25449
837.167	25331
837.305	25285
837.443	25343
837.58	25179
837.718	25228
837.856	25377
837.993	25148
838.131	25145
838.269	25118
838.406	25095
838.544	25080
838.681	24939
838.819	24848
838.956	24741
839.094	24585
839.231	24639
839.369	24932
839.506	25095
839.643	24962
839.781	24707
839.918	24620
840.055	24574
840.193	24547
840.33	24566
840.467	24517
840.604	24681
840.742	24886
840.879	24395
841.016	24635
841.153	24365
841.29	24741
841.427	24555
841.564	24566
841.701	24555
841.838	24585
841.975	24475
842.112	24445
842.249	24391
842.385	24460
842.522	24669
842.659	24483
842.796	24262
842.933	24315
843.069	24304
843.206	24357
843.343	24277
843.479	24403
843.616	24285
843.752	24155
843.889	24095
844.025	24239
844.162	24125
844.298	24144
844.435	24076
844.571	24053
844.708	24045
844.844	24216
844.98	24224
845.117	24178
845.253	23874
845.389	24034
845.525	24053
845.661	23973
845.798	23805
845.934	23840
846.07	23786
846.206	23851
846.342	23870
846.478	23851
846.614	23585
846.75	23524
846.886	23581
847.022	23623
847.158	23539
847.294	23566
847.429	23551
847.565	23387
847.701	23821
847.837	23265
847.972	23318
848.108	23391
848.244	23296
848.379	23147
848.515	23231
848.65	23147
848.786	23033
848.921	23136
849.057	23322
849.192	23223
849.328	23136
849.463	23147
849.598	23200
849.734	22965
849.869	23022
850.004	22980
850.14	22877
850.275	22957
850.41	22778
850.545	22946
850.68	22858
850.815	22862
850.95	22889
851.085	22999
851.22	23003
851.355	22927
851.49	22965
851.625	22987
851.76	22995
851.895	22881
852.03	22942
852.165	22869
852.299	22866
852.434	22946
852.569	22881
852.703	22957
852.838	22942
852.973	23079
853.107	23121
853.242	22843
853.376	22771
853.511	22584
853.645	22752
853.78	22828
853.914	22839
854.048	22649
854.183	22790
854.317	22752
854.451	22858
854.585	22744
854.72	22797
854.854	22660
854.988	22649
855.122	22702
855.256	22584
855.39	22706
855.524	22698
855.658	22771
855.792	22729
855.926	22717
856.06	22733
856.194	22831
856.327	22729
856.461	22645
856.595	22774
856.729	22733
856.862	22824
856.996	22797
857.13	22683
857.263	22946
857.397	22854
857.53	22797
857.664	22797
857.797	22767
857.931	22927
858.064	22683
858.197	22908
858.331	22618
858.464	22877
858.597	22618
858.731	22717
858.864	22725
858.997	22683
859.13	22805
859.263	22599
859.396	22816
859.529	22637
859.662	22630
859.795	22740
859.928	22698
860.061	22877
860.194	23037
860.327	22771
860.46	22752
860.592	22881
860.725	22942
860.858	22866
860.99	22725
861.123	22611
861.256	22584
861.388	22748
861.521	23524
861.653	22592
861.786	22512
861.918	22641
862.05	22577
862.183	22489
862.315	22626
862.447	22793
862.58	22603
862.712	22516
862.844	22390
862.976	22455
863.108	22622
863.24	22991
863.372	22348
863.504	22341
863.636	22390
863.768	22485
863.9	22363
864.032	22394
864.164	22390
864.296	22413
864.428	22485
864.559	22565
864.691	22497
864.823	22379
864.954	22363
865.086	22310
865.217	22246
865.349	22325
865.48	22417
865.612	22280
865.743	22436
865.875	22291
866.006	22238
866.137	22314
866.269	22314
866.4	22341
866.531	22246
866.662	22432
866.793	22105
866.924	22185
867.055	22341
867.186	22272
867.317	22116
867.448	22177
867.579	22150
867.71	22120
867.841	22105
867.972	22303
868.103	22097
868.233	22192
868.364	22242
868.495	22268
868.625	22542
868.756	22645
868.886	22451
869.017	22402
869.147	22592
869.278	22550
869.408	22459
869.539	22527
869.669	22474
869.799	22287
869.929	22596
870.06	22641
870.19	22862
870.32	22660
870.45	22797
870.58	22869
870.71	22991
870.84	22984
870.97	22961
871.1	22862
871.23	23071
871.36	23079
871.489	23041
871.619	23052
871.749	23109
871.879	23147
872.008	23151
872.138	23102
872.267	23022
872.397	22915
872.526	23018
872.656	22831
872.785	22953
872.915	23067
873.044	23079
873.173	23151
873.303	23086
873.432	23056
873.561	23292
873.69	23159
873.819	23003
873.948	23166
874.077	23117
874.206	22972
874.335	23151
874.464	23200
874.593	23395
874.722	23364
874.851	23440
874.979	23315
875.108	23391
875.237	23273
875.365	23132
875.494	23315
875.623	23337
875.751	23185
875.88	23239
876.008	23452
876.136	23691
876.265	23695
876.393	23699
876.521	23775
876.65	23710
876.778	23691
876.906	23665
877.034	23528
877.162	23585
877.29	23562
877.418	23581
877.546	23520
877.674	23714
877.802	23642
877.93	23611
878.058	23691
878.185	23596
878.313	23547
878.441	23623
878.568	23482
878.696	23516
878.824	23615
878.951	23752
879.079	23859
879.206	23779
879.333	23657
879.461	23661
879.588	23741
879.715	23790
879.842	23973
879.97	23676
880.097	23387
880.224	23444
880.351	23490
880.478	23406
880.605	23474
880.732	23581
880.859	23642
880.986	23414
881.112	23459
881.239	23303
881.366	23181
881.493	23033
881.619	23033
881.746	23117
881.872	22946
881.999	22934
882.125	22980
882.252	23014
882.378	22923
882.505	23128
882.631	22862
882.757	22786
882.883	22713
883.01	22687
883.136	22596
883.262	22561
883.388	22394
883.514	22744
883.64	22748
883.766	22618
883.892	22443
884.018	22409
884.143	22637
884.269	22561
884.395	22443
884.52	22280
884.646	22352
884.772	22268
884.897	22135
885.023	22363
885.148	22421
885.274	22451
885.399	22405
885.524	22318
885.65	22295
885.775	22287
885.9	22253
886.025	22432
886.15	22356
886.275	22257
886.4	22188
886.525	22333
886.65	22348
886.775	22150
886.9	22451
887.025	22516
887.149	22238
887.274	22002
887.399	22070
887.523	22116
887.648	22006
887.773	22017
887.897	22272
888.021	22143
888.146	22036
888.27	22192
888.395	22078
888.519	22101
888.643	21972
888.767	22124
888.891	21899
889.015	21804
889.139	21895
889.263	21842
889.387	22116
889.511	22097
889.635	22017
889.759	21667
889.883	21838
890.006	21895
890.13	21945
890.254	21755
890.377	21713
890.501	21648
890.624	21481
890.748	21553
890.871	21576
890.995	21348
891.118	21393
891.241	21416
891.364	21447
891.488	21530
891.611	21469
891.734	21332
891.857	21408
891.98	21401
892.103	21378
892.226	21412
892.349	21374
892.471	21146
892.594	21329
892.717	21291
892.839	21302
892.962	21321
893.085	21332
893.207	21249
893.33	21313
893.452	21184
893.575	21401
893.697	21310
893.819	21306
893.941	21549
894.064	21420
894.186	21252
894.308	21214
894.43	21310
894.552	21443
894.674	21344
894.796	21112
894.918	21203
895.04	21279
895.161	21283
895.283	21256
895.405	21222
895.526	21275
895.648	21306
895.769	21252
895.891	21382
896.012	21275
896.134	21214
896.255	21260
896.376	21230
896.498	21188
896.619	21298
896.74	21389
896.861	21279
896.982	21557
897.103	21644
897.224	21583
897.345	21481
897.466	21283
897.587	21469
897.708	21622
897.828	21431
897.949	21481
898.07	21279
898.19	21340
898.311	21572
898.431	21374
898.552	21526
898.672	21572
898.792	21431
898.913	21447
899.033	21268
899.153	21241
899.273	21184
899.393	21222
899.513	21203
899.633	21116
899.753	21203
899.873	21096
899.993	21268
900.113	21123
900.232	21131
900.352	21135
900.472	21032
900.591	20960
900.711	20960
900.83	20849
900.95	20933
901.069	20967
901.189	20925
901.308	20533
901.427	20594
901.546	20552
901.665	20560
901.784	20495
901.904	20370
902.023	20313
902.141	20164
902.26	20039
902.379	20157
902.498	20050
902.617	19982
902.735	20065
902.854	19947
902.973	19951
903.091	19784
903.21	19704
903.328	19628
903.446	19605
903.565	19460
903.683	19441
903.801	19384
903.919	19415
904.038	19350
904.156	19350
904.274	19396
904.392	19274
904.51	19209
904.627	19213
904.745	19392
904.863	19320
904.981	19008
905.098	18840
905.216	18901
905.334	18970
905.451	18901
905.569	18863
905.686	18791
905.803	18875
905.921	18684
906.038	18707
906.155	18722
906.272	18513
906.389	18635
906.506	18429
906.623	18388
906.74	18513
906.857	18330
906.974	18308
907.091	18433
907.208	18433
907.324	18388
907.441	18266
907.557	18155
907.674	18106
907.79	18144
907.907	18190
908.023	18072
908.139	18121
908.256	18064
908.372	18064
908.488	18019
908.604	17920
908.72	17783
908.836	17760
908.952	17828
909.068	17977
909.184	17946
909.3	17821
909.415	17912
909.531	17802
909.647	17501
909.762	17551
909.878	17566
909.993	17634
910.108	17490
910.224	17448
910.339	17497
910.454	17429
910.57	17372
910.685	17299
910.8	17558
910.915	17478
911.03	17326
911.145	17151
911.259	17117
911.374	17140
911.489	17037
911.604	16957
911.718	16850
911.833	16759
911.947	16858
912.062	16675
912.176	16793
912.291	16858
912.405	16885
912.519	17010
912.633	17022
912.748	16908
912.862	16843
912.976	16691
913.09	16519
913.204	16607
913.318	16694
913.431	16694
913.545	16771
913.659	16721
913.772	16630
913.886	16451
914	16459
914.113	16538
914.226	16527
914.34	16421
914.453	16268
914.566	16558
914.68	16371
914.793	16329
914.906	16055
915.019	16036
915.132	15907
915.245	15926
915.358	16112
915.47	16021
915.583	16010
915.696	16029
915.809	16116
915.921	16230
916.034	15998
916.146	15934
916.259	15873
916.371	16002
916.483	16017
916.595	15774
916.708	15774
916.82	15762
916.932	15884
917.044	15766
917.156	15827
917.268	15618
917.38	15656
917.491	15622
917.603	15625
917.715	15564
917.826	15759
917.938	15424
918.049	15538
918.161	15614
918.272	15751
918.384	15739
918.495	15576
918.606	15443
918.717	15313
918.828	15454
918.939	15340
919.05	15249
919.161	15332
919.272	15222
919.383	15207
919.494	15302
919.604	15496
919.715	15355
919.826	15108
919.936	15264
920.047	15431
920.157	15313
920.267	15443
920.378	15351
920.488	15237
920.598	15405
920.708	15599
920.818	15500
920.928	15492
921.038	15538
921.148	15496
921.258	15218
921.368	15135
921.477	15036
921.587	14971
921.697	14872
921.806	15051
921.916	14982
922.025	14705
922.134	14640
922.244	14579
922.353	14743
922.462	14621
922.571	14419
922.68	14362
922.789	14332
922.898	14377
923.007	14218
923.116	14336
923.224	14256
923.333	14294
923.442	14191
923.55	14039
923.659	14199
923.767	14237
923.876	14073
923.984	14172
924.092	13921
924.201	14081
924.309	14043
924.417	13989
924.525	13986
924.633	14035
924.741	14686
924.849	13685
924.956	13940
925.064	13677
925.172	13670
925.279	13662
925.387	13670
925.494	13613
925.602	13780
925.709	13624
925.816	13548
925.924	13628
926.031	13712
926.138	13575
926.245	13628
926.352	13575
926.459	13597
926.566	13712
926.673	13506
926.779	13381
926.886	13506
926.993	13263
927.099	13209
927.206	13118
927.312	13217
927.419	13316
927.525	13221
927.631	13221
927.737	13080
927.843	13046
927.95	12920
928.056	12939
928.162	12973
928.267	13065
928.373	13605
928.479	13171
928.585	12863
928.69	12924
928.796	13027
928.901	12924
929.007	12741
929.112	12837
929.218	12840
929.323	12741
929.428	12616
929.533	12817
929.638	12696
929.743	12757
929.848	12768
929.953	12646
930.058	12532
930.163	12407
930.267	12445
930.372	12528
930.477	12395
930.581	12608
930.685	12429
930.79	12273
930.894	12319
930.998	12247
931.103	12418
931.207	12026
931.311	11988
931.415	11923
931.519	11688
931.623	11573
