Data from test_V78500241_3502.txt Node
Date: Fri Mar 25 16:06:03 CST 2022
User: usil
Spectrometer: V785-0024
Trigger mode: 0
Integration Time (sec): 4.000000E-1
Scans to average: 1
Nonlinearity correction enabled: false
Boxcar width: 0
Storing dark spectrum: false
XAxis mode: Wavelengths
Number of Pixels in Spectrum: 1024
>>>>>Begin Spectral Data<<<<<
801.071	28980
801.214	28809
801.356	28459
801.499	28493
801.641	28546
801.783	28500
801.926	28428
802.068	28516
802.211	28542
802.353	28443
802.496	28234
802.638	28226
802.78	28173
802.923	28116
803.065	28112
803.208	28063
803.35	28188
803.492	28299
803.635	28409
803.777	28356
803.919	28432
804.061	28694
804.204	28379
804.346	28451
804.488	28284
804.63	28432
804.773	28443
804.915	28462
805.057	28531
805.199	28485
805.341	28546
805.483	28527
805.626	28489
805.768	28440
805.91	28565
806.052	28653
806.194	28443
806.336	28790
806.478	28542
806.62	28588
806.762	28850
806.904	28896
807.046	29185
807.188	29022
807.33	29056
807.472	29090
807.614	29071
807.756	29113
807.898	28987
808.04	28854
808.182	28847
808.324	29006
808.465	29102
808.607	29166
808.749	29387
808.891	29395
809.033	29425
809.174	29318
809.316	29379
809.458	29315
809.6	29307
809.741	29375
809.883	29372
810.025	29474
810.166	29497
810.308	29611
810.45	29630
810.591	29524
810.733	29444
810.875	29345
811.016	29341
811.158	29280
811.299	29322
811.441	29543
811.582	29596
811.724	29383
811.865	29353
812.007	29482
812.148	29356
812.29	29554
812.431	29478
812.573	29604
812.714	29813
812.855	29980
812.997	30049
813.138	30102
813.279	30053
813.421	29885
813.562	29790
813.703	29646
813.845	29562
813.986	29258
814.127	29128
814.268	29052
814.41	29094
814.551	29083
814.692	29052
814.833	29079
814.974	29079
815.115	29041
815.256	29075
815.397	28805
815.539	29014
815.68	28908
815.821	28862
815.962	28919
816.103	28835
816.244	28664
816.385	28664
816.526	28691
816.666	28322
816.807	28150
816.948	28569
817.089	28348
817.23	28325
817.371	28276
817.512	28329
817.653	28386
817.793	28386
817.934	28424
818.075	28295
818.216	28382
818.356	28344
818.497	28204
818.638	28196
818.778	28150
818.919	28025
819.06	28147
819.2	28394
819.341	28352
819.481	28356
819.622	28831
819.762	28713
819.903	28710
820.043	28569
820.184	28546
820.324	28603
820.465	28523
820.605	28428
820.746	28504
820.886	28455
821.026	28360
821.167	28291
821.307	28443
821.447	28455
821.588	28455
821.728	28173
821.868	27979
822.008	27701
822.149	27930
822.289	27956
822.429	27625
822.569	27492
822.709	27511
822.849	27287
822.99	27473
823.13	27427
823.27	27241
823.41	27218
823.55	27249
823.69	27310
823.83	27214
823.97	27203
824.11	26979
824.25	26975
824.389	27028
824.529	27013
824.669	26944
824.809	27233
824.949	27127
825.089	27119
825.228	27047
825.368	26921
825.508	26842
825.648	26918
825.787	26967
825.927	26937
826.067	26864
826.206	26891
826.346	27009
826.485	26914
826.625	26929
826.765	27096
826.904	26868
827.044	26644
827.183	26663
827.323	26686
827.462	26701
827.601	26720
827.741	26530
827.88	26773
828.02	26507
828.159	26465
828.298	26564
828.437	26720
828.577	26625
828.716	26621
828.855	26579
828.994	26320
829.134	26332
829.273	26305
829.412	26393
829.551	26259
829.69	26347
829.829	26286
829.968	26404
830.107	26324
830.246	26252
830.385	26385
830.524	26282
830.663	26134
830.802	26008
830.941	25940
831.08	25940
831.219	25989
831.357	26058
831.496	26157
831.635	25997
831.774	25860
831.913	25791
832.051	25822
832.19	25723
832.329	25655
832.467	25590
832.606	25575
832.744	25544
832.883	25655
833.022	25468
833.16	25639
833.299	25510
833.437	25620
833.576	25670
833.714	25537
833.852	25651
833.991	25582
834.129	25761
834.267	25670
834.406	25685
834.544	25731
834.682	25597
834.821	25586
834.959	25879
835.097	25616
835.235	25708
835.373	25559
835.511	25582
835.65	25487
835.788	25556
835.926	25350
836.064	25232
836.202	25244
836.34	25426
836.478	25544
836.615	25582
836.753	25358
836.891	25392
837.029	25556
837.167	25422
837.305	25476
837.443	25476
837.58	25270
837.718	25358
837.856	25449
837.993	25263
838.131	25324
838.269	25213
838.406	25217
838.544	25088
838.681	24875
838.819	24966
838.956	24738
839.094	24867
839.231	24776
839.369	25031
839.506	25206
839.643	25050
839.781	24779
839.918	24574
840.055	24677
840.193	24654
840.33	24555
840.467	24814
840.604	24703
840.742	24829
840.879	24467
841.016	24589
841.153	24456
841.29	24749
841.427	24738
841.564	24661
841.701	24719
841.838	24616
841.975	24498
842.112	24627
842.249	24574
842.385	24471
842.522	24684
842.659	24441
842.796	24505
842.933	24414
843.069	24429
843.206	24346
843.343	24452
843.479	24403
843.616	24452
843.752	24194
843.889	24308
844.025	24452
844.162	24243
844.298	24201
844.435	24178
844.571	24205
844.708	24201
844.844	24273
844.98	24369
845.117	24391
845.253	24209
845.389	24087
845.525	24087
845.661	23931
845.798	23965
845.934	23992
846.07	23824
846.206	23977
846.342	24087
846.478	23843
846.614	23805
846.75	23634
846.886	23611
847.022	23832
847.158	23726
847.294	23718
847.429	23695
847.565	23596
847.701	23805
847.837	23284
847.972	23410
848.108	23448
848.244	23493
848.379	23258
848.515	23159
848.65	23315
848.786	23216
848.921	23296
849.057	23379
849.192	23318
849.328	23303
849.463	23220
849.598	23330
849.734	23185
849.869	23128
850.004	22972
850.14	23094
850.275	23075
850.41	22911
850.545	23033
850.68	22889
850.815	23083
850.95	22923
851.085	23204
851.22	23166
851.355	23109
851.49	22938
851.625	22919
851.76	22987
851.895	22919
852.03	22968
852.165	22968
852.299	23094
852.434	23083
852.569	23048
852.703	23128
852.838	23136
852.973	23258
853.107	23128
853.242	22976
853.376	22934
853.511	22729
853.645	22759
853.78	22927
853.914	22873
854.048	22862
854.183	22748
854.317	22877
854.451	22995
854.585	22778
854.72	22843
854.854	22915
854.988	22759
855.122	22847
855.256	22637
855.39	22824
855.524	22790
855.658	22919
855.792	22816
855.926	22858
856.06	22919
856.194	22805
856.327	22622
856.461	22694
856.595	22786
856.729	22763
856.862	22957
856.996	22866
857.13	22835
857.263	22968
857.397	22987
857.53	22771
857.664	22839
857.797	22927
857.931	22904
858.064	22866
858.197	22915
858.331	22725
858.464	22854
858.597	22607
858.731	22908
858.864	22755
858.997	22847
859.13	22816
859.263	22778
859.396	22831
859.529	22809
859.662	22793
859.795	22820
859.928	22694
860.061	22949
860.194	23018
860.327	22812
860.46	22972
860.592	22904
860.725	22885
860.858	22839
860.99	22725
861.123	22782
861.256	22805
861.388	22797
861.521	23425
861.653	22740
861.786	22626
861.918	22672
862.05	22584
862.183	22725
862.315	22588
862.447	22858
862.58	22778
862.712	22573
862.844	22462
862.976	22599
863.108	22519
863.24	22812
863.372	22500
863.504	22409
863.636	22402
863.768	22557
863.9	22584
864.032	22455
864.164	22531
864.296	22577
864.428	22557
864.559	22557
864.691	22447
864.823	22516
864.954	22546
865.086	22413
865.217	22424
865.349	22413
865.48	22291
865.612	22421
865.743	22436
865.875	22367
866.006	22413
866.137	22417
866.269	22341
866.4	22287
866.531	22268
866.662	22299
866.793	22390
866.924	22287
867.055	22344
867.186	22386
867.317	22356
867.448	22238
867.579	22272
867.71	22219
867.841	22192
867.972	22348
868.103	22306
868.233	22238
868.364	22226
868.495	22363
868.625	22504
868.756	22683
868.886	22470
869.017	22447
869.147	22569
869.278	22729
869.408	22421
869.539	22599
869.669	22611
869.799	22641
869.929	22752
870.06	22649
870.19	22881
870.32	22812
870.45	22908
870.58	22999
870.71	22987
870.84	23181
870.97	22938
871.1	22949
871.23	23174
871.36	23193
871.489	23083
871.619	23086
871.749	23181
871.879	23181
872.008	23277
872.138	23174
872.267	23166
872.397	23113
872.526	23086
872.656	23041
872.785	23147
872.915	23151
873.044	23299
873.173	23258
873.303	23269
873.432	23178
873.561	23220
873.69	23216
873.819	23235
873.948	23174
874.077	23269
874.206	23075
874.335	23200
874.464	23299
874.593	23284
874.722	23387
874.851	23406
874.979	23280
875.108	23372
875.237	23322
875.365	23246
875.494	23258
875.623	23406
875.751	23387
875.88	23471
876.008	23524
876.136	23684
876.265	23802
876.393	23843
876.521	23832
876.65	23786
876.778	23859
876.906	23710
877.034	23767
877.162	23771
877.29	23551
877.418	23897
877.546	23748
877.674	23703
877.802	23794
877.93	23707
878.058	23809
878.185	23665
878.313	23661
878.441	23634
878.568	23592
878.696	23760
878.824	23771
878.951	23817
879.079	23958
879.206	24087
879.333	23821
879.461	23843
879.588	23760
879.715	23893
879.842	23969
879.97	23771
880.097	23562
880.224	23524
880.351	23668
880.478	23630
880.605	23558
880.732	23581
880.859	23847
880.986	23615
881.112	23665
881.239	23383
881.366	23360
881.493	23227
881.619	23022
881.746	23071
881.872	23121
881.999	23060
882.125	23121
882.252	23052
882.378	23185
882.505	23227
882.631	22938
882.757	22797
882.883	22889
883.01	22740
883.136	22911
883.262	22531
883.388	22580
883.514	22782
883.64	22820
883.766	22694
883.892	22603
884.018	22535
884.143	22622
884.269	22828
884.395	22512
884.52	22367
884.646	22428
884.772	22303
884.897	22398
885.023	22512
885.148	22508
885.274	22542
885.399	22550
885.524	22325
885.65	22466
885.775	22447
885.9	22382
886.025	22500
886.15	22493
886.275	22295
886.4	22337
886.525	22352
886.65	22451
886.775	22432
886.9	22516
887.025	22554
887.149	22325
887.274	22116
887.399	22204
887.523	22158
887.648	22230
887.773	22074
887.897	22261
888.021	22166
888.146	22162
888.27	22310
888.395	22253
888.519	22223
888.643	22192
888.767	22230
888.891	22063
889.015	21816
889.139	22048
889.263	21975
889.387	22070
889.511	22238
889.635	22204
889.759	21816
889.883	21819
890.006	22055
890.13	22078
890.254	21930
890.377	21774
890.501	21660
890.624	21736
890.748	21789
890.871	21564
890.995	21523
891.118	21454
891.241	21572
891.364	21591
891.488	21564
891.611	21492
891.734	21485
891.857	21519
891.98	21454
892.103	21564
892.226	21515
892.349	21458
892.471	21306
892.594	21439
892.717	21447
892.839	21348
892.962	21405
893.085	21363
893.207	21382
893.33	21348
893.452	21237
893.575	21492
893.697	21412
893.819	21408
893.941	21568
894.064	21496
894.186	21382
894.308	21367
894.43	21485
894.552	21530
894.674	21443
894.796	21279
894.918	21287
895.04	21389
895.161	21424
895.283	21431
895.405	21294
895.526	21473
895.648	21405
895.769	21435
895.891	21374
896.012	21344
896.134	21405
896.255	21348
896.376	21416
896.498	21367
896.619	21431
896.74	21233
896.861	21454
896.982	21694
897.103	21778
897.224	21625
897.345	21568
897.466	21538
897.587	21648
897.708	21648
897.828	21583
897.949	21519
898.07	21325
898.19	21530
898.311	21618
898.431	21469
898.552	21553
898.672	21538
898.792	21701
898.913	21534
899.033	21458
899.153	21325
899.273	21222
899.393	21203
899.513	21272
899.633	21332
899.753	21382
899.873	21176
899.993	21264
900.113	21192
900.232	21298
900.352	21245
900.472	21123
900.591	21089
900.711	20967
900.83	21036
900.95	21123
901.069	21135
901.189	20929
901.308	20712
901.427	20518
901.546	20556
901.665	20537
901.784	20663
901.904	20457
902.023	20328
902.141	20183
902.26	20084
902.379	20172
902.498	20164
902.617	20046
902.735	20119
902.854	20073
902.973	20119
903.091	19822
903.21	19757
903.328	19723
903.446	19647
903.565	19529
903.683	19529
903.801	19480
903.919	19544
904.038	19464
904.156	19365
904.274	19358
904.392	19285
904.51	19384
904.627	19350
904.745	19331
904.863	19316
904.981	19285
905.098	18913
905.216	19145
905.334	19008
905.451	19027
905.569	19034
905.686	18932
905.803	18935
905.921	18772
906.038	18798
906.155	18757
906.272	18779
906.389	18730
906.506	18528
906.623	18502
906.74	18448
906.857	18327
906.974	18391
907.091	18509
907.208	18658
907.324	18467
907.441	18388
907.557	18239
907.674	18152
907.79	18049
907.907	18213
908.023	18315
908.139	18228
908.256	18159
908.372	18098
908.488	18087
908.604	17942
908.72	17866
908.836	17992
908.952	17866
909.068	18019
909.184	18026
909.3	17832
909.415	17893
909.531	17965
909.647	17707
909.762	17630
909.878	17570
909.993	17493
910.108	17562
910.224	17604
910.339	17558
910.454	17509
910.57	17410
910.685	17425
910.8	17665
910.915	17581
911.03	17410
911.145	17204
911.259	17258
911.374	17132
911.489	17105
911.604	17102
911.718	16923
911.833	16900
911.947	16847
912.062	16675
912.176	16965
912.291	16881
912.405	16839
912.519	17117
912.633	17052
912.748	16900
912.862	16911
912.976	16805
913.09	16615
913.204	16767
913.318	16653
913.431	16889
913.545	16778
913.659	16869
913.772	16626
913.886	16580
914	16527
914.113	16622
914.226	16653
914.34	16679
914.453	16443
914.566	16531
914.68	16386
914.793	16375
914.906	16242
915.019	16116
915.132	16071
915.245	15991
915.358	16093
915.47	16128
915.583	16074
915.696	16097
915.809	16238
915.921	16200
916.034	15998
916.146	15972
916.259	15968
916.371	16071
916.483	16036
916.595	15949
916.708	15907
916.82	15953
916.932	15895
917.044	15857
917.156	15873
917.268	15679
917.38	15717
917.491	15724
917.603	15724
917.715	15751
917.826	15785
917.938	15701
918.049	15485
918.161	15694
918.272	15762
918.384	15743
918.495	15656
918.606	15443
918.717	15298
918.828	15542
918.939	15553
919.05	15454
919.161	15462
919.272	15245
919.383	15317
919.494	15507
919.604	15622
919.715	15439
919.826	15344
919.936	15359
920.047	15431
920.157	15443
920.267	15633
920.378	15450
920.488	15447
920.598	15553
920.708	15644
920.818	15523
920.928	15523
921.038	15701
921.148	15618
921.258	15408
921.368	15211
921.477	15097
921.587	15146
921.697	15017
921.806	15214
921.916	14956
922.025	14952
922.134	14731
922.244	14724
922.353	14708
922.462	14655
922.571	14549
922.68	14385
922.789	14358
922.898	14400
923.007	14301
923.116	14343
923.224	14351
923.333	14309
923.442	14313
923.55	14263
923.659	14259
923.767	14336
923.876	14176
923.984	14153
924.092	14092
924.201	14134
924.309	14084
924.417	14164
924.525	14001
924.633	13974
924.741	14960
924.849	13856
924.956	13944
925.064	13833
925.172	13738
925.279	13784
925.387	13746
925.494	13822
925.602	13822
925.709	13822
925.816	13639
925.924	13658
926.031	13750
926.138	13628
926.245	13727
926.352	13655
926.459	13677
926.566	13658
926.673	13601
926.779	13483
926.886	13415
926.993	13354
927.099	13331
927.206	13377
927.312	13316
927.419	13301
927.525	13331
927.631	13270
927.737	13175
927.843	13251
927.95	13008
928.056	13156
928.162	13171
928.267	13141
928.373	13807
928.479	13126
928.585	12928
928.69	13080
928.796	13072
928.901	12878
929.007	12837
929.112	12947
929.218	12924
929.323	12787
929.428	12772
929.533	12973
929.638	12734
929.743	12749
929.848	12764
929.953	12779
930.058	12566
930.163	12448
930.267	12467
930.372	12551
930.477	12471
930.581	12658
930.685	12532
930.79	12327
930.894	12426
930.998	12266
931.103	12395
931.207	12057
931.311	12030
931.415	11931
931.519	11813
931.623	11691
