Data from test_V78500241_377.txt Node
Date: Fri Mar 25 15:44:24 CST 2022
User: usil
Spectrometer: V785-0024
Trigger mode: 0
Integration Time (sec): 4.000000E-1
Scans to average: 1
Nonlinearity correction enabled: false
Boxcar width: 0
Storing dark spectrum: false
XAxis mode: Wavelengths
Number of Pixels in Spectrum: 1024
>>>>>Begin Spectral Data<<<<<
801.071	29775
801.214	29467
801.356	29288
801.499	29318
801.641	29147
801.783	29220
801.926	29341
802.068	29181
802.211	29079
802.353	29132
802.496	28812
802.638	29029
802.78	29033
802.923	28866
803.065	28839
803.208	28934
803.35	28892
803.492	29048
803.635	29044
803.777	29075
803.919	29231
804.061	29372
804.204	29086
804.346	28911
804.488	29014
804.63	29022
804.773	28923
804.915	29014
805.057	29083
805.199	29018
805.341	29292
805.483	29261
805.626	29147
805.768	29117
805.91	29143
806.052	29159
806.194	29090
806.336	29261
806.478	29216
806.62	29090
806.762	29410
806.904	29520
807.046	29828
807.188	29649
807.33	29604
807.472	29695
807.614	29551
807.756	29554
807.898	29459
808.04	29493
808.182	29337
808.324	29512
808.465	29493
808.607	29684
808.749	29897
808.891	30064
809.033	29984
809.174	29923
809.316	29927
809.458	29859
809.6	29923
809.741	29946
809.883	29901
810.025	30186
810.166	30194
810.308	30171
810.45	30136
810.591	30091
810.733	29904
810.875	29821
811.016	29767
811.158	29710
811.299	29977
811.441	30114
811.582	30076
811.724	29843
811.865	29653
812.007	29874
812.148	29912
812.29	29859
812.431	30110
812.573	30117
812.714	30182
812.855	30441
812.997	30407
813.138	30642
813.279	30429
813.421	30369
813.562	30296
813.703	30292
813.845	30232
813.986	29851
814.127	29779
814.268	29589
814.41	29672
814.551	29391
814.692	29558
814.833	29531
814.974	29573
815.115	29490
815.256	29398
815.397	29254
815.539	29379
815.68	29433
815.821	29375
815.962	29372
816.103	29410
816.244	29223
816.385	29025
816.526	29056
816.666	28869
816.807	28793
816.948	28854
817.089	28854
817.23	28869
817.371	28790
817.512	28721
817.653	28672
817.793	28729
817.934	28816
818.075	28683
818.216	28915
818.356	28729
818.497	28694
818.638	28527
818.778	28500
818.919	28599
819.06	28417
819.2	28630
819.341	28744
819.481	28752
819.622	28809
819.762	29113
819.903	28980
820.043	28938
820.184	28984
820.324	28866
820.465	29006
820.605	28869
820.746	29018
820.886	28717
821.026	28946
821.167	28755
821.307	29090
821.447	28748
821.588	28573
821.728	28527
821.868	28440
822.008	28238
822.149	28215
822.289	28135
822.429	27968
822.569	27918
822.709	27930
822.849	27591
822.99	27603
823.13	27667
823.27	27485
823.41	27378
823.55	27412
823.69	27519
823.83	27492
823.97	27473
824.11	27344
824.25	27256
824.389	27462
824.529	27367
824.669	27401
824.809	27450
824.949	27393
825.089	27336
825.228	27435
825.368	27203
825.508	27089
825.648	27218
825.787	27211
825.927	27252
826.067	27047
826.206	27230
826.346	27184
826.485	27283
826.625	27165
826.765	27150
826.904	27112
827.044	26925
827.183	27020
827.323	26769
827.462	27043
827.601	26868
827.741	26853
827.88	26834
828.02	26644
828.159	26819
828.298	26739
828.437	26937
828.577	26708
828.716	26986
828.855	26617
828.994	26587
829.134	26575
829.273	26571
829.412	26389
829.551	26450
829.69	26564
829.829	26575
829.968	26655
830.107	26670
830.246	26518
830.385	26469
830.524	26362
830.663	26374
830.802	26317
830.941	26039
831.08	26046
831.219	26161
831.357	26149
831.496	26275
831.635	26107
831.774	25986
831.913	25944
832.051	25833
832.19	25841
832.329	25898
832.467	25791
832.606	25765
832.744	25567
832.883	25609
833.022	25753
833.16	25791
833.299	25860
833.437	25635
833.576	25864
833.714	25753
833.852	25780
833.991	25966
834.129	25822
834.267	25917
834.406	25727
834.544	25788
834.682	25871
834.821	25761
834.959	25799
835.097	25624
835.235	25715
835.373	25738
835.511	25761
835.65	25571
835.788	25704
835.926	25419
836.064	25453
836.202	25430
836.34	25620
836.478	25544
836.615	25529
836.753	25556
836.891	25582
837.029	25567
837.167	25415
837.305	25586
837.443	25415
837.58	25289
837.718	25521
837.856	25343
837.993	25240
838.131	25415
838.269	25206
838.406	25301
838.544	25179
838.681	25084
838.819	24932
838.956	24886
839.094	24734
839.231	24882
839.369	24992
839.506	25141
839.643	25095
839.781	24806
839.918	24829
840.055	24802
840.193	24856
840.33	24681
840.467	24814
840.604	24760
840.742	24977
840.879	24669
841.016	24604
841.153	24597
841.29	24711
841.427	24688
841.564	24722
841.701	24650
841.838	24585
841.975	24692
842.112	24555
842.249	24357
842.385	24460
842.522	24570
842.659	24414
842.796	24460
842.933	24403
843.069	24395
843.206	24376
843.343	24509
843.479	24391
843.616	24292
843.752	24197
843.889	24270
844.025	24330
844.162	24098
844.298	24197
844.435	24098
844.571	24106
844.708	24171
844.844	24365
844.98	24327
845.117	24117
845.253	24102
845.389	24072
845.525	23950
845.661	24129
845.798	23836
845.934	23866
846.07	23950
846.206	23885
846.342	24007
846.478	23802
846.614	23798
846.75	23459
846.886	23516
847.022	23551
847.158	23539
847.294	23509
847.429	23672
847.565	23512
847.701	23904
847.837	23349
847.972	23258
848.108	23429
848.244	23474
848.379	23151
848.515	23117
848.65	23060
848.786	23155
848.921	23197
849.057	23307
849.192	23155
849.328	23075
849.463	23200
849.598	23132
849.734	22972
849.869	23018
850.004	22938
850.14	22972
850.275	22831
850.41	22858
850.545	22854
850.68	22881
850.815	22877
850.95	22816
851.085	22980
851.22	22927
851.355	22843
851.49	22850
851.625	22843
851.76	22915
851.895	22748
852.03	22752
852.165	22793
852.299	22934
852.434	22972
852.569	22866
852.703	22759
852.838	22965
852.973	23094
853.107	22980
853.242	22908
853.376	22637
853.511	22615
853.645	22729
853.78	22793
853.914	22691
854.048	22672
854.183	22672
854.317	22554
854.451	22858
854.585	22782
854.72	22653
854.854	22744
854.988	22637
855.122	22675
855.256	22440
855.39	22641
855.524	22645
855.658	22755
855.792	22755
855.926	22580
856.06	22797
856.194	22618
856.327	22748
856.461	22626
856.595	22580
856.729	22755
856.862	22748
856.996	22668
857.13	22706
857.263	22736
857.397	22805
857.53	22733
857.664	22603
857.797	22565
857.931	22927
858.064	22660
858.197	22786
858.331	22599
858.464	22660
858.597	22493
858.731	22637
858.864	22550
858.997	22603
859.13	22691
859.263	22675
859.396	22683
859.529	22573
859.662	22683
859.795	22531
859.928	22538
860.061	22862
860.194	22965
860.327	22634
860.46	22653
860.592	22713
860.725	22873
860.858	22820
860.99	22607
861.123	22489
861.256	22546
861.388	22596
861.521	23216
861.653	22519
861.786	22371
861.918	22489
862.05	22500
862.183	22771
862.315	22615
862.447	22679
862.58	22599
862.712	22382
862.844	22306
862.976	22371
863.108	22367
863.24	22740
863.372	22287
863.504	22360
863.636	22322
863.768	22371
863.9	22398
864.032	22299
864.164	22428
864.296	22379
864.428	22455
864.559	22428
864.691	22268
864.823	22280
864.954	22291
865.086	22188
865.217	22234
865.349	22200
865.48	22162
865.612	22200
865.743	22265
865.875	22246
866.006	22242
866.137	22082
866.269	22173
866.4	22310
866.531	22070
866.662	22006
866.793	22101
866.924	22109
867.055	22048
867.186	22128
867.317	22090
867.448	21964
867.579	22074
867.71	22078
867.841	22013
867.972	22169
868.103	22124
868.233	22185
868.364	22093
868.495	22211
868.625	22196
868.756	22447
868.886	22226
869.017	22253
869.147	22436
869.278	22531
869.408	22303
869.539	22291
869.669	22466
869.799	22417
869.929	22512
870.06	22474
870.19	22634
870.32	22725
870.45	22702
870.58	22683
870.71	22816
870.84	22858
870.97	22752
871.1	22668
871.23	22896
871.36	22881
871.489	22900
871.619	22953
871.749	22991
871.879	23022
872.008	23147
872.138	22839
872.267	22946
872.397	22752
872.526	22713
872.656	22793
872.785	22774
872.915	23044
873.044	23006
873.173	23029
873.303	23044
873.432	23090
873.561	23140
873.69	23029
873.819	22999
873.948	22949
874.077	22938
874.206	22984
874.335	22858
874.464	22976
874.593	23136
874.722	23189
874.851	23277
874.979	23136
875.108	23235
875.237	23079
875.365	23105
875.494	23147
875.623	23105
875.751	23086
875.88	23284
876.008	23151
876.136	23417
876.265	23623
876.393	23581
876.521	23558
876.65	23558
876.778	23642
876.906	23330
877.034	23501
877.162	23535
877.29	23376
877.418	23471
877.546	23383
877.674	23528
877.802	23539
877.93	23471
878.058	23387
878.185	23402
878.313	23505
878.441	23463
878.568	23364
878.696	23379
878.824	23444
878.951	23524
879.079	23748
879.206	23794
879.333	23623
879.461	23516
879.588	23615
879.715	23676
879.842	23756
879.97	23619
880.097	23261
880.224	23349
880.351	23372
880.478	23337
880.605	23261
880.732	23337
880.859	23543
880.986	23349
881.112	23181
881.239	23208
881.366	23075
881.493	22915
881.619	22934
881.746	22930
881.872	22938
881.999	22957
882.125	22915
882.252	23052
882.378	22991
882.505	22915
882.631	22767
882.757	22569
882.883	22649
883.01	22630
883.136	22592
883.262	22451
883.388	22344
883.514	22489
883.64	22500
883.766	22481
883.892	22268
884.018	22436
884.143	22344
884.269	22626
884.395	22325
884.52	22257
884.646	22280
884.772	22101
884.897	22154
885.023	22284
885.148	22249
885.274	22443
885.399	22329
885.524	22150
885.65	22207
885.775	22169
885.9	22173
886.025	22356
886.15	22310
886.275	22124
886.4	22109
886.525	22116
886.65	22040
886.775	22086
886.9	22329
887.025	22390
887.149	22166
887.274	21953
887.399	21827
887.523	22006
887.648	21778
887.773	21880
887.897	21960
888.021	22051
888.146	21857
888.27	22048
888.395	21953
888.519	21998
888.643	21884
888.767	22029
888.891	21854
889.015	21739
889.139	21679
889.263	21717
889.387	21804
889.511	21888
889.635	21812
889.759	21603
889.883	21580
890.006	21667
890.13	21778
890.254	21576
890.377	21629
890.501	21462
890.624	21504
890.748	21519
890.871	21344
890.995	21199
891.118	21138
891.241	21260
891.364	21310
891.488	21412
891.611	21279
891.734	21310
891.857	21195
891.98	21256
892.103	21336
892.226	21249
892.349	21272
892.471	21108
892.594	21291
892.717	21150
892.839	21275
892.962	21100
893.085	21241
893.207	21138
893.33	21043
893.452	21032
893.575	21203
893.697	21127
893.819	21340
893.941	21298
894.064	21264
894.186	21127
894.308	21157
894.43	21310
894.552	21355
894.674	21222
894.796	21074
894.918	21100
895.04	21283
895.161	21077
895.283	21127
895.405	21165
895.526	21108
895.648	21233
895.769	21100
895.891	21173
896.012	21294
896.134	21104
896.255	21100
896.376	21165
896.498	21195
896.619	21180
896.74	21123
896.861	21192
896.982	21469
897.103	21496
897.224	21447
897.345	21447
897.466	21370
897.587	21412
897.708	21595
897.828	21447
897.949	21355
898.07	21119
898.19	21272
898.311	21447
898.431	21249
898.552	21302
898.672	21344
898.792	21336
898.913	21294
899.033	21199
899.153	21013
899.273	20956
899.393	21089
899.513	21108
899.633	21112
899.753	21135
899.873	20899
899.993	20929
900.113	20982
900.232	21028
900.352	20986
900.472	20963
900.591	20830
900.711	20937
900.83	20712
900.95	20826
901.069	20918
901.189	20785
901.308	20385
901.427	20427
901.546	20374
901.665	20461
901.784	20419
901.904	20168
902.023	20062
902.141	19970
902.26	19936
902.379	20069
902.498	19845
902.617	19852
902.735	19936
902.854	19837
902.973	19799
903.091	19670
903.21	19476
903.328	19441
903.446	19339
903.565	19350
903.683	19369
903.801	19274
903.919	19282
904.038	19301
904.156	19160
904.274	19164
904.392	19160
904.51	19031
904.627	19213
904.745	19137
904.863	19145
904.981	18939
905.098	18616
905.216	18810
905.334	18776
905.451	18730
905.569	18665
905.686	18772
905.803	18741
905.921	18566
906.038	18578
906.155	18544
906.272	18380
906.389	18357
906.506	18319
906.623	18281
906.74	18334
906.857	18232
906.974	18102
907.091	18262
907.208	18441
907.324	18296
907.441	18232
907.557	18034
907.674	17961
907.79	17855
907.907	17916
908.023	17980
908.139	17939
908.256	17832
908.372	17847
908.488	17855
908.604	17615
908.72	17585
908.836	17748
908.952	17718
909.068	17714
909.184	17745
909.3	17623
909.415	17676
909.531	17539
909.647	17383
909.762	17315
909.878	17444
909.993	17345
910.108	17315
910.224	17341
910.339	17311
910.454	17178
910.57	17064
910.685	17143
910.8	17299
910.915	17296
911.03	17212
911.145	17006
911.259	16892
911.374	16858
911.489	16710
911.604	16774
911.718	16721
911.833	16694
911.947	16531
912.062	16508
912.176	16637
912.291	16622
912.405	16603
912.519	16839
912.633	16805
912.748	16672
912.862	16634
912.976	16428
913.09	16284
913.204	16356
913.318	16443
913.431	16626
913.545	16599
913.659	16561
913.772	16318
913.886	16223
914	16211
914.113	16421
914.226	16379
914.34	16261
914.453	16078
914.566	16341
914.68	16006
914.793	16166
914.906	15953
915.019	15819
915.132	15739
915.245	15797
915.358	15922
915.47	15842
915.583	15850
915.696	15762
915.809	15907
915.921	15876
916.034	15827
916.146	15656
916.259	15622
916.371	15717
916.483	15812
916.595	15732
916.708	15507
916.82	15576
916.932	15633
917.044	15523
917.156	15523
917.268	15397
917.38	15428
917.491	15412
917.603	15408
917.715	15538
917.826	15511
917.938	15374
918.049	15241
918.161	15313
918.272	15488
918.384	15530
918.495	15287
918.606	15260
918.717	15146
918.828	15279
918.939	15230
919.05	15058
919.161	15195
919.272	14956
919.383	15036
919.494	15199
919.604	15374
919.715	15089
919.826	15036
919.936	15070
920.047	15169
920.157	15169
920.267	15306
920.378	15199
920.488	15085
920.598	15332
920.708	15424
920.818	15325
920.928	15245
921.038	15310
921.148	15412
921.258	15097
921.368	14941
921.477	14804
921.587	14792
921.697	14701
921.806	14796
921.916	14731
922.025	14530
922.134	14461
922.244	14484
922.353	14526
922.462	14290
922.571	14183
922.68	14183
922.789	14096
922.898	14046
923.007	14008
923.116	14062
923.224	14084
923.333	14001
923.442	13986
923.55	13955
923.659	13963
923.767	13902
923.876	13822
923.984	13928
924.092	13818
924.201	13871
924.309	13757
924.417	13879
924.525	13750
924.633	13723
924.741	14590
924.849	13559
924.956	13700
925.064	13438
925.172	13426
925.279	13529
925.387	13403
925.494	13457
925.602	13636
925.709	13480
925.816	13335
925.924	13396
926.031	13499
926.138	13426
926.245	13403
926.352	13304
926.459	13445
926.566	13544
926.673	13293
926.779	13164
926.886	13145
926.993	13084
927.099	13042
927.206	13034
927.312	13015
927.419	12943
927.525	13053
927.631	13107
927.737	12951
927.843	12844
927.95	12764
928.056	12852
928.162	12894
928.267	12760
928.373	13407
928.479	12913
928.585	12635
928.69	12833
928.796	12840
928.901	12662
929.007	12650
929.112	12692
929.218	12563
929.323	12597
929.428	12528
929.533	12662
929.638	12536
929.743	12475
929.848	12536
929.953	12471
930.058	12376
930.163	12197
930.267	12228
930.372	12334
930.477	12216
930.581	12422
930.685	12243
930.79	12053
930.894	12220
930.998	12049
931.103	12163
931.207	11798
931.311	11703
931.415	11615
931.519	11402
931.623	11474
