Data from test_V78500241_3361.txt Node
Date: Fri Mar 25 16:05:05 CST 2022
User: usil
Spectrometer: V785-0024
Trigger mode: 0
Integration Time (sec): 4.000000E-1
Scans to average: 1
Nonlinearity correction enabled: false
Boxcar width: 0
Storing dark spectrum: false
XAxis mode: Wavelengths
Number of Pixels in Spectrum: 1024
>>>>>Begin Spectral Data<<<<<
801.071	28892
801.214	28900
801.356	28653
801.499	28592
801.641	28508
801.783	28577
801.926	28603
802.068	28618
802.211	28527
802.353	28611
802.496	28459
802.638	28295
802.78	28253
802.923	28238
803.065	28150
803.208	28276
803.35	28265
803.492	28367
803.635	28478
803.777	28337
803.919	28546
804.061	28816
804.204	28550
804.346	28538
804.488	28428
804.63	28527
804.773	28413
804.915	28622
805.057	28622
805.199	28550
805.341	28645
805.483	28618
805.626	28596
805.768	28588
805.91	28656
806.052	28664
806.194	28664
806.336	28812
806.478	28725
806.62	28729
806.762	28797
806.904	29128
807.046	29155
807.188	29136
807.33	29136
807.472	29239
807.614	29025
807.756	29147
807.898	29124
808.04	28946
808.182	28885
808.324	29174
808.465	29071
808.607	29064
808.749	29356
808.891	29330
809.033	29452
809.174	29414
809.316	29269
809.458	29265
809.6	29448
809.741	29448
809.883	29490
810.025	29691
810.166	29589
810.308	29775
810.45	29680
810.591	29581
810.733	29452
810.875	29334
811.016	29455
811.158	29372
811.299	29592
811.441	29703
811.582	29528
811.724	29493
811.865	29478
812.007	29444
812.148	29235
812.29	29444
812.431	29535
812.573	29760
812.714	29680
812.855	29977
812.997	30152
813.138	30216
813.279	30136
813.421	29973
813.562	29798
813.703	29722
813.845	29573
813.986	29235
814.127	29147
814.268	29223
814.41	29102
814.551	28995
814.692	29147
814.833	29067
814.974	29033
815.115	29208
815.256	29067
815.397	28976
815.539	29033
815.68	28850
815.821	28854
815.962	28968
816.103	28850
816.244	28888
816.385	28755
816.526	28744
816.666	28550
816.807	28413
816.948	28694
817.089	28588
817.23	28322
817.371	28474
817.512	28424
817.653	28546
817.793	28287
817.934	28436
818.075	28519
818.216	28485
818.356	28318
818.497	28432
818.638	28192
818.778	28177
818.919	28181
819.06	28265
819.2	28371
819.341	28428
819.481	28421
819.622	28744
819.762	28835
819.903	28820
820.043	28645
820.184	28694
820.324	28653
820.465	28645
820.605	28542
820.746	28577
820.886	28390
821.026	28447
821.167	28447
821.307	28603
821.447	28573
821.588	28226
821.728	28249
821.868	28120
822.008	27975
822.149	27884
822.289	27701
822.429	27808
822.569	27564
822.709	27663
822.849	27447
822.99	27443
823.13	27431
823.27	27268
823.41	27298
823.55	27218
823.69	27245
823.83	27245
823.97	27245
824.11	27146
824.25	27024
824.389	27077
824.529	27260
824.669	27192
824.809	27218
824.949	27176
825.089	27081
825.228	26986
825.368	26925
825.508	27058
825.648	26838
825.787	26982
825.927	27051
826.067	26933
826.206	26902
826.346	26902
826.485	27043
826.625	26990
826.765	27085
826.904	26982
827.044	26925
827.183	26781
827.323	26807
827.462	26758
827.601	26785
827.741	26815
827.88	26606
828.02	26522
828.159	26735
828.298	26773
828.437	26842
828.577	26617
828.716	26659
828.855	26689
828.994	26507
829.134	26450
829.273	26492
829.412	26377
829.551	26404
829.69	26404
829.829	26400
829.968	26488
830.107	26431
830.246	26518
830.385	26282
830.524	26415
830.663	26256
830.802	26199
830.941	26062
831.08	26012
831.219	26020
831.357	25989
831.496	26229
831.635	25959
831.774	25955
831.913	25818
832.051	25715
832.19	25814
832.329	25750
832.467	25594
832.606	25788
832.744	25514
832.883	25685
833.022	25628
833.16	25677
833.299	25757
833.437	25734
833.576	25753
833.714	25731
833.852	25883
833.991	25689
834.129	25799
834.267	25658
834.406	25719
834.544	25750
834.682	25776
834.821	25704
834.959	25936
835.097	25780
835.235	25761
835.373	25769
835.511	25738
835.65	25632
835.788	25529
835.926	25457
836.064	25384
836.202	25441
836.34	25499
836.478	25544
836.615	25658
836.753	25453
836.891	25689
837.029	25548
837.167	25464
837.305	25441
837.443	25331
837.58	25362
837.718	25537
837.856	25384
837.993	25244
838.131	25457
838.269	25148
838.406	25263
838.544	25190
838.681	25004
838.819	24966
838.956	24981
839.094	24882
839.231	24833
839.369	25012
839.506	25187
839.643	25012
839.781	24867
839.918	24646
840.055	24791
840.193	24791
840.33	24768
840.467	24707
840.604	24779
840.742	25015
840.879	24623
841.016	24798
841.153	24559
841.29	24738
841.427	24722
841.564	24738
841.701	24692
841.838	24817
841.975	24673
842.112	24608
842.249	24646
842.385	24589
842.522	24795
842.659	24570
842.796	24536
842.933	24483
843.069	24464
843.206	24376
843.343	24574
843.479	24460
843.616	24437
843.752	24273
843.889	24311
844.025	24361
844.162	24174
844.298	24350
844.435	24209
844.571	24220
844.708	24346
844.844	24433
844.98	24380
845.117	24327
845.253	24087
845.389	24224
845.525	24148
845.661	24038
845.798	23965
845.934	24087
846.07	24011
846.206	24038
846.342	24015
846.478	24129
846.614	23832
846.75	23661
846.886	23752
847.022	23703
847.158	23912
847.294	23775
847.429	23687
847.565	23611
847.701	23855
847.837	23379
847.972	23414
848.108	23551
848.244	23581
848.379	23471
848.515	23345
848.65	23299
848.786	23398
848.921	23372
849.057	23425
849.192	23478
849.328	23463
849.463	23307
849.598	23151
849.734	23178
849.869	23109
850.004	23006
850.14	23086
850.275	23048
850.41	22946
850.545	22972
850.68	23067
850.815	23140
850.95	23121
851.085	23174
851.22	23204
851.355	23044
851.49	22984
851.625	22961
851.76	23113
851.895	23086
852.03	22946
852.165	23094
852.299	23079
852.434	23204
852.569	23075
852.703	23109
852.838	23143
852.973	23208
853.107	23071
853.242	23006
853.376	22892
853.511	22793
853.645	22946
853.78	23117
853.914	22923
854.048	22824
854.183	22820
854.317	22869
854.451	23235
854.585	22911
854.72	22953
854.854	23044
854.988	22721
855.122	22915
855.256	22809
855.39	22873
855.524	22889
855.658	22934
855.792	22934
855.926	23003
856.06	22934
856.194	23003
856.327	22915
856.461	22733
856.595	22828
856.729	22877
856.862	22995
856.996	22824
857.13	22915
857.263	23014
857.397	23041
857.53	22873
857.664	22923
857.797	22968
857.931	23003
858.064	22885
858.197	22930
858.331	22968
858.464	22774
858.597	22824
858.731	22877
858.864	22904
858.997	22896
859.13	22831
859.263	22881
859.396	22968
859.529	22839
859.662	22866
859.795	22744
859.928	22877
860.061	22957
860.194	23128
860.327	22930
860.46	22938
860.592	23067
860.725	22927
860.858	23037
860.99	22835
861.123	22812
861.256	22828
861.388	22816
861.521	23554
861.653	22744
861.786	22748
861.918	22733
862.05	22801
862.183	22683
862.315	22885
862.447	22892
862.58	22862
862.712	22679
862.844	22618
862.976	22542
863.108	22561
863.24	22984
863.372	22443
863.504	22573
863.636	22596
863.768	22573
863.9	22538
864.032	22565
864.164	22523
864.296	22717
864.428	22801
864.559	22687
864.691	22710
864.823	22668
864.954	22565
865.086	22599
865.217	22451
865.349	22512
865.48	22440
865.612	22489
865.743	22596
865.875	22466
866.006	22538
866.137	22485
866.269	22485
866.4	22440
866.531	22493
866.662	22341
866.793	22337
866.924	22325
867.055	22402
867.186	22451
867.317	22390
867.448	22215
867.579	22447
867.71	22287
867.841	22291
867.972	22500
868.103	22436
868.233	22466
868.364	22417
868.495	22443
868.625	22546
868.756	22687
868.886	22443
869.017	22622
869.147	22668
869.278	22828
869.408	22618
869.539	22603
869.669	22656
869.799	22653
869.929	22812
870.06	22850
870.19	22873
870.32	22828
870.45	22873
870.58	23018
870.71	23151
870.84	23010
870.97	23071
871.1	22961
871.23	23315
871.36	23151
871.489	23079
871.619	23174
871.749	23280
871.879	23334
872.008	23337
872.138	23155
872.267	23315
872.397	23200
872.526	23117
872.656	23064
872.785	23128
872.915	23315
873.044	23395
873.173	23231
873.303	23242
873.432	23265
873.561	23261
873.69	23185
873.819	23189
873.948	23334
874.077	23155
874.206	23174
874.335	23083
874.464	23341
874.593	23520
874.722	23303
874.851	23509
874.979	23581
875.108	23535
875.237	23520
875.365	23414
875.494	23531
875.623	23604
875.751	23581
875.88	23478
876.008	23493
876.136	23596
876.265	23889
876.393	24064
876.521	23878
876.65	23893
876.778	23832
876.906	23912
877.034	23828
877.162	23817
877.29	23676
877.418	23813
877.546	23885
877.674	23893
877.802	23726
877.93	23741
878.058	23756
878.185	23775
878.313	23756
878.441	23847
878.568	23638
878.696	23748
878.824	23802
878.951	23843
879.079	23984
879.206	24155
879.333	23954
879.461	23885
879.588	24018
879.715	23847
879.842	24125
879.97	24083
880.097	23680
880.224	23703
880.351	23558
880.478	23627
880.605	23615
880.732	23596
880.859	23984
880.986	23520
881.112	23703
881.239	23410
881.366	23364
881.493	23387
881.619	23052
881.746	23223
881.872	23216
881.999	23181
882.125	23128
882.252	23223
882.378	23166
882.505	23216
882.631	23029
882.757	22862
882.883	22976
883.01	22869
883.136	22896
883.262	22672
883.388	22694
883.514	22889
883.64	22835
883.766	22839
883.892	22698
884.018	22630
884.143	22778
884.269	22873
884.395	22538
884.52	22481
884.646	22550
884.772	22436
884.897	22421
885.023	22565
885.148	22519
885.274	22675
885.399	22618
885.524	22565
885.65	22523
885.775	22413
885.9	22382
886.025	22557
886.15	22443
886.275	22497
886.4	22402
886.525	22466
886.65	22428
886.775	22348
886.9	22470
887.025	22588
887.149	22436
887.274	22276
887.399	22303
887.523	22242
887.648	22177
887.773	22177
887.897	22261
888.021	22230
888.146	22109
888.27	22466
888.395	22333
888.519	22344
888.643	22154
888.767	22261
888.891	22169
889.015	22040
889.139	22082
889.263	22109
889.387	22143
889.511	22284
889.635	22135
889.759	21975
889.883	21861
890.006	22063
890.13	22162
890.254	21918
890.377	21953
890.501	21732
890.624	21713
890.748	21778
890.871	21629
890.995	21545
891.118	21485
891.241	21580
891.364	21473
891.488	21660
891.611	21564
891.734	21583
891.857	21580
891.98	21641
892.103	21519
892.226	21538
892.349	21561
892.471	21272
892.594	21393
892.717	21545
892.839	21431
892.962	21523
893.085	21485
893.207	21431
893.33	21329
893.452	21386
893.575	21606
893.697	21450
893.819	21561
893.941	21606
894.064	21538
894.186	21374
894.308	21207
894.43	21591
894.552	21576
894.674	21428
894.796	21256
894.918	21507
895.04	21370
895.161	21515
895.283	21454
895.405	21351
895.526	21424
895.648	21283
895.769	21424
895.891	21462
896.012	21507
896.134	21439
896.255	21382
896.376	21294
896.498	21397
896.619	21332
896.74	21336
896.861	21492
896.982	21804
897.103	21766
897.224	21663
897.345	21564
897.466	21610
897.587	21553
897.708	21667
897.828	21762
897.949	21534
898.07	21542
898.19	21561
898.311	21644
898.431	21481
898.552	21667
898.672	21660
898.792	21618
898.913	21690
899.033	21492
899.153	21325
899.273	21211
899.393	21511
899.513	21397
899.633	21397
899.753	21310
899.873	21173
899.993	21321
900.113	21203
900.232	21351
900.352	21222
900.472	21214
900.591	20948
900.711	21081
900.83	21116
900.95	21188
901.069	21062
901.189	20994
901.308	20762
901.427	20727
901.546	20697
901.665	20667
901.784	20575
901.904	20465
902.023	20419
902.141	20263
902.26	20195
902.379	20313
902.498	20290
902.617	20119
902.735	20103
902.854	20107
902.973	20058
903.091	19837
903.21	19761
903.328	19788
903.446	19731
903.565	19548
903.683	19601
903.801	19529
903.919	19533
904.038	19540
904.156	19460
904.274	19411
904.392	19335
904.51	19392
904.627	19449
904.745	19529
904.863	19460
904.981	19129
905.098	19053
905.216	19004
905.334	19107
905.451	19118
905.569	19091
905.686	19053
905.803	18943
905.921	18768
906.038	18920
906.155	18741
906.272	18738
906.389	18696
906.506	18570
906.623	18616
906.74	18502
906.857	18437
906.974	18456
907.091	18627
907.208	18654
907.324	18582
907.441	18384
907.557	18251
907.674	18304
907.79	18281
907.907	18300
908.023	18304
908.139	18216
908.256	18148
908.372	18144
908.488	18243
908.604	17912
908.72	17946
908.836	18011
908.952	17935
909.068	17980
909.184	17984
909.3	18019
909.415	18079
909.531	18053
909.647	17707
909.762	17642
909.878	17668
909.993	17691
910.108	17592
910.224	17509
910.339	17661
910.454	17406
910.57	17421
910.685	17368
910.8	17718
910.915	17566
911.03	17528
911.145	17356
911.259	17242
911.374	17280
911.489	17189
911.604	17102
911.718	16927
911.833	16984
911.947	16892
912.062	16793
912.176	16885
912.291	17033
912.405	17014
912.519	17121
912.633	17296
912.748	16949
912.862	16980
912.976	16763
913.09	16649
913.204	16759
913.318	16736
913.431	16854
913.545	16866
913.659	16885
913.772	16691
913.886	16618
914	16523
914.113	16645
914.226	16694
914.34	16645
914.453	16527
914.566	16653
914.68	16428
914.793	16413
914.906	16276
915.019	16169
915.132	16090
915.245	16169
915.358	16181
915.47	16078
915.583	16169
915.696	16154
915.809	16306
915.921	16322
916.034	15991
916.146	16051
916.259	16036
916.371	16067
916.483	16013
916.595	15945
916.708	15895
916.82	15956
916.932	15903
917.044	15880
917.156	15888
917.268	15713
917.38	15804
917.491	15797
917.603	15732
917.715	15876
917.826	15747
917.938	15603
918.049	15576
918.161	15709
918.272	15846
918.384	15781
918.495	15679
918.606	15496
918.717	15454
918.828	15523
918.939	15599
919.05	15443
919.161	15431
919.272	15233
919.383	15310
919.494	15545
919.604	15633
919.715	15496
919.826	15431
919.936	15488
920.047	15511
920.157	15443
920.267	15606
920.378	15462
920.488	15405
920.598	15576
920.708	15671
920.818	15557
920.928	15580
921.038	15762
921.148	15686
921.258	15389
921.368	15382
921.477	15161
921.587	15017
921.697	14998
921.806	15131
921.916	15032
922.025	14864
922.134	14811
922.244	14792
922.353	14781
922.462	14701
922.571	14663
922.68	14473
922.789	14404
922.898	14381
923.007	14290
923.116	14404
923.224	14339
923.333	14370
923.442	14313
923.55	14202
923.659	14263
923.767	14187
923.876	14180
923.984	14206
924.092	14172
924.201	14218
924.309	14058
924.417	14020
924.525	14054
924.633	14062
924.741	14944
924.849	13864
924.956	13989
925.064	13818
925.172	13734
925.279	13921
925.387	13788
925.494	13822
925.602	13860
925.709	13852
925.816	13727
925.924	13689
926.031	13875
926.138	13628
926.245	13799
926.352	13639
926.459	13712
926.566	13742
926.673	13632
926.779	13521
926.886	13552
926.993	13327
927.099	13324
927.206	13274
927.312	13346
927.419	13293
927.525	13285
927.631	13388
927.737	13164
927.843	13255
927.95	13088
928.056	13050
928.162	13072
928.267	13175
928.373	13727
928.479	13202
928.585	12916
928.69	13118
928.796	13107
928.901	12981
929.007	12833
929.112	12935
929.218	12977
929.323	12821
929.428	12825
929.533	12939
929.638	12741
929.743	12707
929.848	12802
929.953	12738
930.058	12623
930.163	12475
930.267	12433
930.372	12601
930.477	12441
930.581	12715
930.685	12555
930.79	12369
930.894	12399
930.998	12369
931.103	12494
931.207	12098
931.311	12064
931.415	11931
931.519	11741
931.623	11733
