Data from test_V78500241_3183.txt Node
Date: Fri Mar 25 16:03:51 CST 2022
User: usil
Spectrometer: V785-0024
Trigger mode: 0
Integration Time (sec): 4.000000E-1
Scans to average: 1
Nonlinearity correction enabled: false
Boxcar width: 0
Storing dark spectrum: false
XAxis mode: Wavelengths
Number of Pixels in Spectrum: 1024
>>>>>Begin Spectral Data<<<<<
801.071	28641
801.214	28630
801.356	28356
801.499	28291
801.641	28352
801.783	28234
801.926	28310
802.068	28337
802.211	28211
802.353	28120
802.496	28048
802.638	28051
802.78	27854
802.923	27892
803.065	28010
803.208	28013
803.35	27991
803.492	28131
803.635	28200
803.777	28154
803.919	28204
804.061	28493
804.204	28276
804.346	28124
804.488	28154
804.63	28295
804.773	28192
804.915	28333
805.057	28314
805.199	28280
805.341	28360
805.483	28413
805.626	28341
805.768	28234
805.91	28459
806.052	28447
806.194	28226
806.336	28535
806.478	28337
806.62	28421
806.762	28577
806.904	28561
807.046	28927
807.188	28854
807.33	29022
807.472	28713
807.614	28824
807.756	28850
807.898	28755
808.04	28618
808.182	28603
808.324	28649
808.465	28634
808.607	28953
808.749	28968
808.891	29220
809.033	29216
809.174	29200
809.316	29086
809.458	29048
809.6	29105
809.741	29128
809.883	29197
810.025	29303
810.166	29383
810.308	29383
810.45	29318
810.591	29410
810.733	29227
810.875	28828
811.016	28995
811.158	28927
811.299	29162
811.441	29265
811.582	29296
811.724	28949
811.865	29117
812.007	29140
812.148	29044
812.29	29155
812.431	29235
812.573	29440
812.714	29478
812.855	29562
812.997	29687
813.138	29836
813.279	29615
813.421	29611
813.562	29501
813.703	29524
813.845	29277
813.986	29105
814.127	28888
814.268	28782
814.41	28900
814.551	28778
814.692	28923
814.833	28721
814.974	28824
815.115	28896
815.256	28729
815.397	28687
815.539	28584
815.68	28698
815.821	28637
815.962	28626
816.103	28493
816.244	28436
816.385	28417
816.526	28329
816.666	28238
816.807	28093
816.948	28169
817.089	28070
817.23	28109
817.371	28074
817.512	28048
817.653	28143
817.793	28055
817.934	28242
818.075	28150
818.216	28173
818.356	28093
818.497	28074
818.638	27816
818.778	27945
818.919	27873
819.06	27983
819.2	28002
819.341	28124
819.481	28166
819.622	28173
819.762	28443
819.903	28394
820.043	28352
820.184	28337
820.324	28211
820.465	28246
820.605	28276
820.746	28314
820.886	28055
821.026	28128
821.167	28192
821.307	28219
821.447	28272
821.588	28093
821.728	27857
821.868	27637
822.008	27724
822.149	27728
822.289	27637
822.429	27424
822.569	27173
822.709	27233
822.849	26994
822.99	27077
823.13	27123
823.27	27123
823.41	26857
823.55	26998
823.69	26960
823.83	26944
823.97	26902
824.11	26739
824.25	26667
824.389	26716
824.529	26994
824.669	26819
824.809	26876
824.949	26857
825.089	26868
825.228	26800
825.368	26636
825.508	26598
825.648	26708
825.787	26495
825.927	26811
826.067	26514
826.206	26571
826.346	26667
826.485	26716
826.625	26598
826.765	26868
826.904	26503
827.044	26579
827.183	26446
827.323	26267
827.462	26427
827.601	26522
827.741	26221
827.88	26450
828.02	26343
828.159	26328
828.298	26351
828.437	26484
828.577	26412
828.716	26438
828.855	26229
828.994	26081
829.134	26111
829.273	26176
829.412	26005
829.551	26035
829.69	26058
829.829	26187
829.968	26031
830.107	26024
830.246	26103
830.385	25944
830.524	25849
830.663	25868
830.802	25708
830.941	25849
831.08	25609
831.219	25674
831.357	25849
831.496	25902
831.635	25708
831.774	25635
831.913	25518
832.051	25384
832.19	25556
832.329	25578
832.467	25354
832.606	25282
832.744	25190
832.883	25251
833.022	25282
833.16	25297
833.299	25411
833.437	25358
833.576	25324
833.714	25483
833.852	25506
833.991	25491
834.129	25483
834.267	25540
834.406	25487
834.544	25392
834.682	25430
834.821	25396
834.959	25616
835.097	25411
835.235	25282
835.373	25285
835.511	25236
835.65	25316
835.788	25194
835.926	25240
836.064	25133
836.202	25023
836.34	25194
836.478	25263
836.615	25308
836.753	25129
836.891	25255
837.029	25251
837.167	25118
837.305	25122
837.443	25126
837.58	25091
837.718	25133
837.856	24989
837.993	25042
838.131	25019
838.269	24837
838.406	24973
838.544	24882
838.681	24757
838.819	24620
838.956	24540
839.094	24505
839.231	24437
839.369	24589
839.506	24840
839.643	24806
839.781	24536
839.918	24445
840.055	24502
840.193	24353
840.33	24266
840.467	24361
840.604	24513
840.742	24730
840.879	24327
841.016	24418
841.153	24292
841.29	24513
841.427	24414
841.564	24395
841.701	24490
841.838	24323
841.975	24216
842.112	24384
842.249	24194
842.385	24216
842.522	24380
842.659	24178
842.796	24163
842.933	24213
843.069	24110
843.206	24091
843.343	24304
843.479	24167
843.616	24197
843.752	23961
843.889	23958
844.025	24091
844.162	23923
844.298	23946
844.435	23901
844.571	23802
844.708	24057
844.844	24038
844.98	24121
845.117	24087
845.253	23874
845.389	23813
845.525	23821
845.661	23741
845.798	23615
845.934	23691
846.07	23604
846.206	23623
846.342	23809
846.478	23699
846.614	23478
846.75	23436
846.886	23402
847.022	23493
847.158	23337
847.294	23402
847.429	23448
847.565	23436
847.701	23623
847.837	23090
847.972	23094
848.108	23189
848.244	23181
848.379	22847
848.515	22942
848.65	22946
848.786	22980
848.921	23041
849.057	23147
849.192	23212
849.328	23056
849.463	23022
849.598	22930
849.734	22911
849.869	22934
850.004	22729
850.14	22763
850.275	22809
850.41	22790
850.545	22740
850.68	22649
850.815	22782
850.95	22736
851.085	22908
851.22	22812
851.355	22896
851.49	22755
851.625	22668
851.76	22710
851.895	22733
852.03	22748
852.165	22664
852.299	22736
852.434	22911
852.569	22744
852.703	22729
852.838	22824
852.973	22843
853.107	22839
853.242	22687
853.376	22603
853.511	22523
853.645	22443
853.78	22725
853.914	22683
854.048	22523
854.183	22588
854.317	22622
854.451	22752
854.585	22622
854.72	22603
854.854	22706
854.988	22588
855.122	22668
855.256	22409
855.39	22554
855.524	22618
855.658	22599
855.792	22630
855.926	22645
856.06	22557
856.194	22710
856.327	22485
856.461	22516
856.595	22546
856.729	22603
856.862	22668
856.996	22653
857.13	22683
857.263	22603
857.397	22615
857.53	22554
857.664	22618
857.797	22527
857.931	22546
858.064	22538
858.197	22649
858.331	22694
858.464	22527
858.597	22447
858.731	22550
858.864	22432
858.997	22569
859.13	22554
859.263	22493
859.396	22687
859.529	22481
859.662	22554
859.795	22489
859.928	22580
860.061	22694
860.194	22755
860.327	22649
860.46	22584
860.592	22801
860.725	22607
860.858	22683
860.99	22618
861.123	22584
861.256	22641
861.388	22557
861.521	23330
861.653	22451
861.786	22390
861.918	22440
862.05	22421
862.183	22462
862.315	22550
862.447	22611
862.58	22447
862.712	22287
862.844	22291
862.976	22379
863.108	22386
863.24	22691
863.372	22128
863.504	22344
863.636	22268
863.768	22325
863.9	22344
864.032	22166
864.164	22204
864.296	22344
864.428	22337
864.559	22257
864.691	22398
864.823	22253
864.954	22238
865.086	22150
865.217	22162
865.349	22173
865.48	22207
865.612	22143
865.743	22325
865.875	22223
866.006	21979
866.137	22238
866.269	22135
866.4	22093
866.531	22090
866.662	22109
866.793	22150
866.924	22192
867.055	22055
867.186	22128
867.317	22059
867.448	22162
867.579	22067
867.71	22074
867.841	21972
867.972	22036
868.103	22101
868.233	22109
868.364	22040
868.495	22204
868.625	22394
868.756	22489
868.886	22272
869.017	22424
869.147	22531
869.278	22489
869.408	22421
869.539	22337
869.669	22398
869.799	22352
869.929	22432
870.06	22390
870.19	22618
870.32	22554
870.45	22698
870.58	22603
870.71	22873
870.84	22736
870.97	22706
871.1	22755
871.23	22972
871.36	22889
871.489	22786
871.619	22858
871.749	22919
871.879	22908
872.008	22991
872.138	22957
872.267	22915
872.397	22805
872.526	22793
872.656	22786
872.785	22786
872.915	23033
873.044	23006
873.173	23029
873.303	23090
873.432	22984
873.561	23117
873.69	22881
873.819	23022
873.948	22965
874.077	22999
874.206	22938
874.335	22915
874.464	22957
874.593	23124
874.722	23048
874.851	23235
874.979	23204
875.108	23326
875.237	23155
875.365	23052
875.494	23132
875.623	23250
875.751	23155
875.88	23216
876.008	23204
876.136	23318
876.265	23596
876.393	23722
876.521	23577
876.65	23558
876.778	23619
876.906	23547
877.034	23505
877.162	23539
877.29	23471
877.418	23486
877.546	23440
877.674	23512
877.802	23421
877.93	23448
878.058	23547
878.185	23395
878.313	23478
878.441	23417
878.568	23322
878.696	23414
878.824	23535
878.951	23630
879.079	23786
879.206	23798
879.333	23649
879.461	23501
879.588	23653
879.715	23604
879.842	23775
879.97	23547
880.097	23345
880.224	23398
880.351	23398
880.478	23395
880.605	23345
880.732	23337
880.859	23543
880.986	23531
881.112	23246
881.239	23113
881.366	23079
881.493	22972
881.619	23033
881.746	22927
881.872	22805
881.999	22961
882.125	22953
882.252	22942
882.378	22877
882.505	22999
882.631	22820
882.757	22569
882.883	22622
883.01	22603
883.136	22481
883.262	22508
883.388	22325
883.514	22577
883.64	22538
883.766	22443
883.892	22424
884.018	22421
884.143	22599
884.269	22592
884.395	22337
884.52	22070
884.646	22249
884.772	22124
884.897	22124
885.023	22101
885.148	22306
885.274	22363
885.399	22356
885.524	22059
885.65	22192
885.775	22299
885.9	22249
886.025	22306
886.15	22287
886.275	22139
886.4	22101
886.525	22196
886.65	22078
886.775	22055
886.9	22322
887.025	22295
887.149	22318
887.274	21953
887.399	21987
887.523	21831
887.648	21873
887.773	21888
887.897	21945
888.021	21964
888.146	21880
888.27	22040
888.395	21911
888.519	21991
888.643	21960
888.767	21911
888.891	21838
889.015	21660
889.139	21812
889.263	21641
889.387	21911
889.511	21930
889.635	21903
889.759	21652
889.883	21698
890.006	21774
890.13	21861
890.254	21641
890.377	21564
890.501	21492
890.624	21469
890.748	21485
890.871	21416
890.995	21218
891.118	21233
891.241	21313
891.364	21272
891.488	21363
891.611	21355
891.734	21420
891.857	21363
891.98	21313
892.103	21363
892.226	21184
892.349	21214
892.471	21150
892.594	21249
892.717	21241
892.839	21066
892.962	21249
893.085	21283
893.207	21268
893.33	21146
893.452	21062
893.575	21275
893.697	21066
893.819	21264
893.941	21340
894.064	21348
894.186	21127
894.308	21142
894.43	21264
894.552	21321
894.674	21275
894.796	21062
894.918	21241
895.04	21093
895.161	21207
895.283	21306
895.405	21119
895.526	21119
895.648	21260
895.769	21184
895.891	21093
896.012	21245
896.134	21211
896.255	21222
896.376	21074
896.498	21218
896.619	21272
896.74	21173
896.861	21169
896.982	21606
897.103	21667
897.224	21454
897.345	21264
897.466	21351
897.587	21473
897.708	21397
897.828	21264
897.949	21401
898.07	21294
898.19	21275
898.311	21355
898.431	21389
898.552	21439
898.672	21340
898.792	21416
898.913	21424
899.033	21310
899.153	21245
899.273	21009
899.393	21043
899.513	21146
899.633	21214
899.753	21112
899.873	21066
899.993	21142
900.113	21157
900.232	21135
900.352	20967
900.472	21077
900.591	20769
900.711	20785
900.83	20845
900.95	20914
901.069	21055
901.189	20868
901.308	20621
901.427	20393
901.546	20461
901.665	20530
901.784	20343
901.904	20351
902.023	20259
902.141	20054
902.26	20001
902.379	20058
902.498	19978
902.617	19887
902.735	19967
902.854	19959
902.973	19826
903.091	19704
903.21	19647
903.328	19632
903.446	19556
903.565	19445
903.683	19480
903.801	19335
903.919	19343
904.038	19266
904.156	19209
904.274	19301
904.392	19232
904.51	19084
904.627	19141
904.745	19297
904.863	19190
904.981	18954
905.098	18741
905.216	18894
905.334	18817
905.451	18894
905.569	18848
905.686	18882
905.803	18798
905.921	18646
906.038	18787
906.155	18631
906.272	18494
906.389	18620
906.506	18426
906.623	18369
906.74	18289
906.857	18281
906.974	18296
907.091	18334
907.208	18456
907.324	18296
907.441	18235
907.557	18140
907.674	18178
907.79	18045
907.907	18003
908.023	18095
908.139	18136
908.256	17969
908.372	17916
908.488	18015
908.604	17760
908.72	17657
908.836	17817
908.952	17783
909.068	17870
909.184	17798
909.3	17710
909.415	17813
909.531	17718
909.647	17539
909.762	17433
909.878	17486
909.993	17478
910.108	17349
910.224	17417
910.339	17448
910.454	17231
910.57	17265
910.685	17216
910.8	17402
910.915	17425
911.03	17311
911.145	16987
911.259	16991
911.374	17075
911.489	16965
911.604	16915
911.718	16733
911.833	16828
911.947	16698
912.062	16630
912.176	16805
912.291	16816
912.405	16809
912.519	17018
912.633	16782
912.748	16839
912.862	16691
912.976	16645
913.09	16516
913.204	16550
913.318	16645
913.431	16736
913.545	16630
913.659	16580
913.772	16649
913.886	16451
914	16447
914.113	16421
914.226	16512
914.34	16440
914.453	16169
914.566	16508
914.68	16310
914.793	16246
914.906	16002
915.019	15953
915.132	15930
915.245	16017
915.358	15918
915.47	15979
915.583	15899
915.696	15983
915.809	16120
915.921	16135
916.034	15930
916.146	15930
916.259	15736
916.371	15960
916.483	15968
916.595	15766
916.708	15781
916.82	15804
916.932	15701
917.044	15701
917.156	15705
917.268	15580
917.38	15717
917.491	15485
917.603	15652
917.715	15549
917.826	15652
917.938	15545
918.049	15454
918.161	15542
918.272	15720
918.384	15625
918.495	15466
918.606	15313
918.717	15214
918.828	15351
918.939	15389
919.05	15268
919.161	15226
919.272	15135
919.383	15199
919.494	15332
919.604	15553
919.715	15344
919.826	15283
919.936	15146
920.047	15344
920.157	15180
920.267	15496
920.378	15245
920.488	15291
920.598	15424
920.708	15530
920.818	15329
920.928	15397
921.038	15576
921.148	15523
921.258	15211
921.368	15173
921.477	15020
921.587	15001
921.697	14910
921.806	15032
921.916	14830
922.025	14625
922.134	14629
922.244	14590
922.353	14663
922.462	14590
922.571	14495
922.68	14298
922.789	14313
922.898	14332
923.007	14259
923.116	14294
923.224	14221
923.333	14191
923.442	14084
923.55	14043
923.659	14077
923.767	14145
923.876	14123
923.984	14157
924.092	13921
924.201	14043
924.309	13970
924.417	13955
924.525	13944
924.633	13864
924.741	14750
924.849	13700
924.956	13780
925.064	13689
925.172	13636
925.279	13651
925.387	13704
925.494	13712
925.602	13788
925.709	13632
925.816	13571
925.924	13620
926.031	13689
926.138	13499
926.245	13525
926.352	13540
926.459	13578
926.566	13636
926.673	13525
926.779	13381
926.886	13449
926.993	13152
927.099	13156
927.206	13213
927.312	13133
927.419	13206
927.525	13187
927.631	13149
927.737	13122
927.843	13042
927.95	12958
928.056	13046
928.162	13038
928.267	13050
928.373	13502
928.479	13023
928.585	12810
928.69	12894
928.796	12962
928.901	12837
929.007	12707
929.112	12920
929.218	12738
929.323	12681
929.428	12692
929.533	12722
929.638	12559
929.743	12604
929.848	12711
929.953	12673
930.058	12544
930.163	12342
930.267	12384
930.372	12547
930.477	12388
930.581	12585
930.685	12388
930.79	12258
930.894	12308
930.998	12243
931.103	12445
931.207	11988
931.311	11942
931.415	11790
931.519	11672
931.623	11566
