Data from test_V78500241_417.txt Node
Date: Fri Mar 25 15:44:41 CST 2022
User: usil
Spectrometer: V785-0024
Trigger mode: 0
Integration Time (sec): 4.000000E-1
Scans to average: 1
Nonlinearity correction enabled: false
Boxcar width: 0
Storing dark spectrum: false
XAxis mode: Wavelengths
Number of Pixels in Spectrum: 1024
>>>>>Begin Spectral Data<<<<<
801.071	29048
801.214	28721
801.356	28725
801.499	28607
801.641	28592
801.783	28588
801.926	28451
802.068	28630
802.211	28428
802.353	28405
802.496	28303
802.638	28150
802.78	28158
802.923	28181
803.065	28128
803.208	28215
803.35	28204
803.492	28310
803.635	28265
803.777	28382
803.919	28443
804.061	28694
804.204	28409
804.346	28310
804.488	28261
804.63	28314
804.773	28238
804.915	28405
805.057	28401
805.199	28341
805.341	28356
805.483	28554
805.626	28394
805.768	28314
805.91	28485
806.052	28497
806.194	28443
806.336	28592
806.478	28417
806.62	28523
806.762	28599
806.904	28858
807.046	29094
807.188	28927
807.33	29033
807.472	29037
807.614	28786
807.756	28793
807.898	28713
808.04	28607
808.182	28725
808.324	28691
808.465	28683
808.607	28942
808.749	29018
808.891	29258
809.033	29402
809.174	29250
809.316	29155
809.458	29212
809.6	29102
809.741	29246
809.883	29414
810.025	29417
810.166	29372
810.308	29406
810.45	29334
810.591	29254
810.733	29227
810.875	29029
811.016	28923
811.158	28965
811.299	29121
811.441	29277
811.582	29258
811.724	29197
811.865	29174
812.007	29132
812.148	29056
812.29	29071
812.431	29147
812.573	29330
812.714	29615
812.855	29592
812.997	29714
813.138	29828
813.279	29676
813.421	29813
813.562	29528
813.703	29440
813.845	29368
813.986	29029
814.127	28911
814.268	28888
814.41	28843
814.551	28725
814.692	28923
814.833	28782
814.974	28588
815.115	28736
815.256	28561
815.397	28603
815.539	28778
815.68	28664
815.821	28485
815.962	28561
816.103	28580
816.244	28375
816.385	28249
816.526	28329
816.666	28097
816.807	28074
816.948	28090
817.089	28097
817.23	28032
817.371	28154
817.512	28029
817.653	28017
817.793	27949
817.934	27899
818.075	27960
818.216	28074
818.356	27979
818.497	27964
818.638	27789
818.778	27770
818.919	27789
819.06	27732
819.2	27888
819.341	27846
819.481	27987
819.622	28128
819.762	28325
819.903	28356
820.043	28207
820.184	28215
820.324	28070
820.465	28078
820.605	28112
820.746	28029
820.886	28013
821.026	28219
821.167	28101
821.307	28143
821.447	28063
821.588	27861
821.728	27660
821.868	27534
822.008	27447
822.149	27435
822.289	27393
822.429	27104
822.569	27047
822.709	27180
822.849	26918
822.99	27024
823.13	26937
823.27	26956
823.41	26750
823.55	26613
823.69	26720
823.83	26788
823.97	26670
824.11	26621
824.25	26598
824.389	26564
824.529	26644
824.669	26583
824.809	26769
824.949	26655
825.089	26781
825.228	26522
825.368	26351
825.508	26400
825.648	26374
825.787	26526
825.927	26545
826.067	26419
826.206	26313
826.346	26389
826.485	26453
826.625	26571
826.765	26404
826.904	26415
827.044	26172
827.183	26119
827.323	26153
827.462	26062
827.601	26126
827.741	26161
827.88	26168
828.02	25887
828.159	26054
828.298	26054
828.437	26119
828.577	26065
828.716	26225
828.855	25902
828.994	25712
829.134	25712
829.273	25928
829.412	25723
829.551	25742
829.69	25746
829.829	25746
829.968	25750
830.107	25761
830.246	25772
830.385	25696
830.524	25635
830.663	25533
830.802	25449
830.941	25377
831.08	25320
831.219	25381
831.357	25419
831.496	25605
831.635	25365
831.774	25282
831.913	25206
832.051	25133
832.19	25164
832.329	25004
832.467	24943
832.606	24928
832.744	24901
832.883	24947
833.022	24947
833.16	24947
833.299	25004
833.437	24958
833.576	25065
833.714	25069
833.852	25019
833.991	25129
834.129	25194
834.267	25023
834.406	25042
834.544	25080
834.682	25080
834.821	25107
834.959	25190
835.097	24954
835.235	24970
835.373	25072
835.511	24905
835.65	24859
835.788	24890
835.926	24604
836.064	24681
836.202	24700
836.34	24749
836.478	24947
836.615	24920
836.753	24840
836.891	24951
837.029	24932
837.167	24798
837.305	24760
837.443	24730
837.58	24734
837.718	24734
837.856	24620
837.993	24726
838.131	24707
838.269	24483
838.406	24604
838.544	24380
838.681	24384
838.819	24243
838.956	24159
839.094	24091
839.231	24018
839.369	24220
839.506	24528
839.643	24338
839.781	23999
839.918	24076
840.055	24041
840.193	24129
840.33	24098
840.467	24034
840.604	24148
840.742	24346
840.879	23939
841.016	23984
841.153	23935
841.29	24072
841.427	23927
841.564	24003
841.701	23969
841.838	23912
841.975	23828
842.112	23863
842.249	23847
842.385	23707
842.522	24026
842.659	23828
842.796	23752
842.933	23733
843.069	23619
843.206	23722
843.343	23745
843.479	23661
843.616	23699
843.752	23604
843.889	23467
844.025	23672
844.162	23398
844.298	23463
844.435	23490
844.571	23459
844.708	23406
844.844	23707
844.98	23509
845.117	23581
845.253	23417
845.389	23368
845.525	23208
845.661	23315
845.798	23216
845.934	23269
846.07	23113
846.206	23242
846.342	23402
846.478	23128
846.614	22957
846.75	22869
846.886	22953
847.022	23010
847.158	22892
847.294	22919
847.429	22904
847.565	22911
847.701	23025
847.837	22653
847.972	22603
848.108	22740
848.244	22748
848.379	22542
848.515	22546
848.65	22440
848.786	22519
848.921	22584
849.057	22668
849.192	22535
849.328	22599
849.463	22500
849.598	22402
849.734	22344
849.869	22242
850.004	22238
850.14	22238
850.275	22196
850.41	22070
850.545	22169
850.68	22219
850.815	22268
850.95	22272
851.085	22371
851.22	22363
851.355	22265
851.49	22188
851.625	22173
851.76	22154
851.895	22063
852.03	22112
852.165	22177
852.299	22276
852.434	22303
852.569	22280
852.703	22325
852.838	22162
852.973	22402
853.107	22280
853.242	22158
853.376	22055
853.511	21953
853.645	21865
853.78	22101
853.914	22040
854.048	21998
854.183	22048
854.317	22029
854.451	22360
854.585	22093
854.72	21941
854.854	22112
854.988	21812
855.122	22070
855.256	21854
855.39	22032
855.524	22109
855.658	21922
855.792	22036
855.926	21888
856.06	22044
856.194	21994
856.327	22078
856.461	21850
856.595	21960
856.729	21972
856.862	22166
856.996	22097
857.13	22002
857.263	22051
857.397	22086
857.53	21960
857.664	21994
857.797	22063
857.931	22124
858.064	22006
858.197	22078
858.331	21964
858.464	21842
858.597	21835
858.731	21895
858.864	21983
858.997	21838
859.13	22044
859.263	21968
859.396	22055
859.529	21983
859.662	21918
859.795	21998
859.928	22032
860.061	22070
860.194	22219
860.327	22055
860.46	21979
860.592	22154
860.725	22120
860.858	22082
860.99	22013
861.123	21983
861.256	21876
861.388	21983
861.521	22557
861.653	21743
861.786	21732
861.918	21622
862.05	21941
862.183	21888
862.315	22044
862.447	21956
862.58	21892
862.712	21656
862.844	21667
862.976	21869
863.108	21827
863.24	22242
863.372	21549
863.504	21774
863.636	21553
863.768	21656
863.9	21713
864.032	21530
864.164	21622
864.296	21671
864.428	21831
864.559	21660
864.691	21682
864.823	21694
864.954	21629
865.086	21656
865.217	21686
865.349	21431
865.48	21641
865.612	21393
865.743	21682
865.875	21675
866.006	21557
866.137	21572
866.269	21549
866.4	21618
866.531	21469
866.662	21473
866.793	21523
866.924	21523
867.055	21488
867.186	21564
867.317	21439
867.448	21321
867.579	21538
867.71	21420
867.841	21378
867.972	21568
868.103	21359
868.233	21599
868.364	21583
868.495	21583
868.625	21736
868.756	21835
868.886	21561
869.017	21709
869.147	21804
869.278	21861
869.408	21679
869.539	21762
869.669	21804
869.799	21705
869.929	21876
870.06	21865
870.19	22048
870.32	21945
870.45	22124
870.58	22188
870.71	22048
870.84	22196
870.97	22128
871.1	22185
871.23	22291
871.36	22409
871.489	22162
871.619	22257
871.749	22318
871.879	22436
872.008	22363
872.138	22242
872.267	22188
872.397	22147
872.526	22192
872.656	22246
872.785	22090
872.915	22303
873.044	22432
873.173	22337
873.303	22386
873.432	22344
873.561	22367
873.69	22424
873.819	22356
873.948	22481
874.077	22272
874.206	22246
874.335	22489
874.464	22470
874.593	22538
874.722	22596
874.851	22683
874.979	22504
875.108	22645
875.237	22466
875.365	22436
875.494	22527
875.623	22611
875.751	22481
875.88	22569
876.008	22733
876.136	22778
876.265	23041
876.393	23117
876.521	23033
876.65	22976
876.778	22885
876.906	23022
877.034	22911
877.162	22942
877.29	22797
877.418	22934
877.546	22915
877.674	22873
877.802	22873
877.93	22828
878.058	22934
878.185	22752
878.313	22858
878.441	22778
878.568	22615
878.696	22812
878.824	22938
878.951	22839
879.079	23090
879.206	23193
879.333	23136
879.461	22991
879.588	23067
879.715	23113
879.842	23159
879.97	22965
880.097	22740
880.224	22721
880.351	22763
880.478	22904
880.605	22702
880.732	22698
880.859	22999
880.986	22759
881.112	22801
881.239	22607
881.366	22489
881.493	22428
881.619	22344
881.746	22371
881.872	22234
881.999	22215
882.125	22219
882.252	22375
882.378	22348
882.505	22314
882.631	22032
882.757	22017
882.883	22124
883.01	22017
883.136	21888
883.262	21861
883.388	21800
883.514	21968
883.64	22082
883.766	21888
883.892	21835
884.018	21838
884.143	21915
884.269	21979
884.395	21785
884.52	21637
884.646	21667
884.772	21545
884.897	21507
885.023	21591
885.148	21629
885.274	21876
885.399	21610
885.524	21542
885.65	21625
885.775	21587
885.9	21507
886.025	21652
886.15	21667
886.275	21511
886.4	21507
886.525	21553
886.65	21443
886.775	21386
886.9	21812
887.025	21903
887.149	21583
887.274	21363
887.399	21332
887.523	21336
887.648	21386
887.773	21264
887.897	21420
888.021	21458
888.146	21268
888.27	21443
888.395	21500
888.519	21348
888.643	21477
888.767	21458
888.891	21325
889.015	21085
889.139	21188
889.263	21199
889.387	21233
889.511	21306
889.635	21310
889.759	21173
889.883	21207
890.006	21119
890.13	21180
890.254	21146
890.377	21070
890.501	20857
890.624	20910
890.748	20948
890.871	20769
890.995	20667
891.118	20590
891.241	20739
891.364	20686
891.488	20788
891.611	20739
891.734	20758
891.857	20762
891.98	20792
892.103	20800
892.226	20602
892.349	20724
892.471	20488
892.594	20530
892.717	20632
892.839	20579
892.962	20537
893.085	20693
893.207	20594
893.33	20454
893.452	20404
893.575	20579
893.697	20480
893.819	20731
893.941	20724
894.064	20731
894.186	20469
894.308	20541
894.43	20613
894.552	20708
894.674	20655
894.796	20533
894.918	20514
895.04	20613
895.161	20693
895.283	20571
895.405	20617
895.526	20678
895.648	20594
895.769	20606
895.891	20526
896.012	20769
896.134	20765
896.255	20575
896.376	20705
896.498	20602
896.619	20667
896.74	20602
896.861	20727
896.982	20998
897.103	21146
897.224	20895
897.345	20849
897.466	20754
897.587	20773
897.708	20933
897.828	20895
897.949	20724
898.07	20800
898.19	20800
898.311	20842
898.431	20792
898.552	20872
898.672	20895
898.792	20834
898.913	20872
899.033	20716
899.153	20682
899.273	20484
899.393	20579
899.513	20545
899.633	20492
899.753	20632
899.873	20503
899.993	20492
900.113	20438
900.232	20556
900.352	20423
900.472	20362
900.591	20290
900.711	20347
900.83	20252
900.95	20324
901.069	20309
901.189	20202
901.308	20039
901.427	19944
901.546	19906
901.665	19856
901.784	20031
901.904	19666
902.023	19677
902.141	19472
902.26	19430
902.379	19537
902.498	19381
902.617	19396
902.735	19460
902.854	19346
902.973	19183
903.091	18947
903.21	19015
903.328	19103
903.446	18989
903.565	18829
903.683	18875
903.801	18688
903.919	18867
904.038	18779
904.156	18631
904.274	18570
904.392	18654
904.51	18528
904.627	18517
904.745	18635
904.863	18692
904.981	18376
905.098	18319
905.216	18220
905.334	18464
905.451	18380
905.569	18270
905.686	18270
905.803	18342
905.921	18102
906.038	18106
906.155	18106
906.272	18011
906.389	17996
906.506	17916
906.623	17786
906.74	17767
906.857	17695
906.974	17718
907.091	17935
907.208	18011
907.324	17798
907.441	17745
907.557	17589
907.674	17452
907.79	17330
907.907	17452
908.023	17520
908.139	17493
908.256	17395
908.372	17395
908.488	17414
908.604	17231
908.72	17200
908.836	17220
908.952	17132
909.068	17220
909.184	17341
909.3	17181
909.415	17181
909.531	17204
909.647	16949
909.762	16927
909.878	17014
909.993	16904
910.108	16809
910.224	16881
910.339	16984
910.454	16740
910.57	16618
910.685	16698
910.8	16915
910.915	16919
911.03	16637
911.145	16508
911.259	16516
911.374	16462
911.489	16367
911.604	16306
911.718	16200
911.833	16268
911.947	16051
912.062	16116
912.176	16246
912.291	16261
912.405	16287
912.519	16360
912.633	16413
912.748	16246
912.862	16128
912.976	16032
913.09	15888
913.204	16002
913.318	16097
913.431	16017
913.545	16044
913.659	16101
913.772	15956
913.886	15911
914	15778
914.113	15888
914.226	15865
914.34	15873
914.453	15797
914.566	15842
914.68	15595
914.793	15797
914.906	15405
915.019	15450
915.132	15351
915.245	15363
915.358	15462
915.47	15507
915.583	15412
915.696	15511
915.809	15538
915.921	15690
916.034	15332
916.146	15313
916.259	15310
916.371	15374
916.483	15393
916.595	15138
916.708	15207
916.82	15199
916.932	15138
917.044	15260
917.156	15192
917.268	15081
917.38	15020
917.491	14941
917.603	15020
917.715	15093
917.826	15093
917.938	14975
918.049	14876
918.161	15081
918.272	15199
918.384	15119
918.495	14948
918.606	14811
918.717	14807
918.828	14785
918.939	14792
919.05	14735
919.161	14777
919.272	14560
919.383	14636
919.494	14849
919.604	14857
919.715	14777
919.826	14773
919.936	14785
920.047	14785
920.157	14735
920.267	14868
920.378	14697
920.488	14735
920.598	14921
920.708	15036
920.818	14872
920.928	14842
921.038	15005
921.148	15024
921.258	14716
921.368	14617
921.477	14530
921.587	14469
921.697	14385
921.806	14465
921.916	14358
922.025	14214
922.134	14138
922.244	14149
922.353	14119
922.462	13978
922.571	13974
922.68	13818
922.789	13761
922.898	13776
923.007	13822
923.116	13757
923.224	13776
923.333	13693
923.442	13620
923.55	13624
923.659	13609
923.767	13578
923.876	13658
923.984	13594
924.092	13506
924.201	13502
924.309	13552
924.417	13472
924.525	13350
924.633	13445
924.741	14191
924.849	13255
924.956	13285
925.064	13198
925.172	13091
925.279	13107
925.387	13221
925.494	13164
925.602	13209
925.709	13225
925.816	13076
925.924	13118
926.031	13171
926.138	13118
926.245	13183
926.352	12989
926.459	13069
926.566	13160
926.673	12951
926.779	12901
926.886	12890
926.993	12798
927.099	12700
927.206	12757
927.312	12593
927.419	12707
927.525	12741
927.631	12772
927.737	12578
927.843	12532
927.95	12418
928.056	12494
928.162	12517
928.267	12513
928.373	13175
928.479	12593
928.585	12418
928.69	12429
928.796	12574
928.901	12327
929.007	12300
929.112	12437
929.218	12350
929.323	12266
929.428	12254
929.533	12350
929.638	12144
929.743	12205
929.848	12319
929.953	12155
930.058	12034
930.163	11969
930.267	11931
930.372	12083
930.477	11939
930.581	12110
930.685	11904
930.79	11771
930.894	11836
930.998	11726
931.103	11946
931.207	11653
931.311	11436
931.415	11421
931.519	11216
931.623	11181
