Data from test_V78500241_1635.txt Node
Date: Fri Mar 25 15:53:08 CST 2022
User: usil
Spectrometer: V785-0024
Trigger mode: 0
Integration Time (sec): 4.000000E-1
Scans to average: 1
Nonlinearity correction enabled: false
Boxcar width: 0
Storing dark spectrum: false
XAxis mode: Wavelengths
Number of Pixels in Spectrum: 1024
>>>>>Begin Spectral Data<<<<<
801.071	28409
801.214	28405
801.356	28139
801.499	28032
801.641	28029
801.783	27983
801.926	28101
802.068	28051
802.211	28006
802.353	27930
802.496	27690
802.638	27671
802.78	27724
802.923	27526
803.065	27637
803.208	27553
803.35	27819
803.492	27797
803.635	27819
803.777	27789
803.919	27895
804.061	28067
804.204	27994
804.346	27800
804.488	27827
804.63	27903
804.773	27865
804.915	28017
805.057	28063
805.199	27907
805.341	27907
805.483	28051
805.626	27972
805.768	27956
805.91	28135
806.052	28025
806.194	28063
806.336	28150
806.478	28147
806.62	27956
806.762	28067
806.904	28299
807.046	28592
807.188	28409
807.33	28443
807.472	28421
807.614	28421
807.756	28424
807.898	28390
808.04	28325
808.182	28318
808.324	28363
808.465	28405
808.607	28596
808.749	28748
808.891	28790
809.033	28976
809.174	28752
809.316	28713
809.458	28702
809.6	28622
809.741	28843
809.883	28904
810.025	28987
810.166	29121
810.308	29014
810.45	28957
810.591	28980
810.733	28733
810.875	28634
811.016	28584
811.158	28634
811.299	28786
811.441	28900
811.582	29006
811.724	28771
811.865	28637
812.007	28721
812.148	28744
812.29	28702
812.431	29022
812.573	29151
812.714	29189
812.855	29269
812.997	29402
813.138	29478
813.279	29337
813.421	29406
813.562	29417
813.703	29136
813.845	28961
813.986	28752
814.127	28577
814.268	28489
814.41	28390
814.551	28428
814.692	28493
814.833	28390
814.974	28363
815.115	28466
815.256	28337
815.397	28246
815.539	28234
815.68	28257
815.821	28204
815.962	28223
816.103	28253
816.244	28196
816.385	28025
816.526	28025
816.666	27945
816.807	27770
816.948	27785
817.089	27937
817.23	27762
817.371	27778
817.512	27652
817.653	27564
817.793	27675
817.934	27629
818.075	27774
818.216	27625
818.356	27667
818.497	27644
818.638	27557
818.778	27473
818.919	27561
819.06	27545
819.2	27663
819.341	27819
819.481	27679
819.622	27865
819.762	28101
819.903	27888
820.043	27960
820.184	27911
820.324	27960
820.465	27800
820.605	27789
820.746	27800
820.886	27671
821.026	27816
821.167	27922
821.307	27827
821.447	27816
821.588	27743
821.728	27603
821.868	27439
822.008	27233
822.149	27203
822.289	27123
822.429	27001
822.569	26842
822.709	26921
822.849	26754
822.99	26762
823.13	26629
823.27	26697
823.41	26499
823.55	26286
823.69	26537
823.83	26492
823.97	26556
824.11	26393
824.25	26305
824.389	26362
824.529	26450
824.669	26393
824.809	26396
824.949	26446
825.089	26339
825.228	26290
825.368	26130
825.508	26172
825.648	26221
825.787	26339
825.927	26267
826.067	26214
826.206	26366
826.346	26324
826.485	26271
826.625	26275
826.765	26446
826.904	26324
827.044	25997
827.183	25978
827.323	25826
827.462	25978
827.601	25963
827.741	26024
827.88	25947
828.02	25864
828.159	25917
828.298	25875
828.437	25970
828.577	25887
828.716	25970
828.855	25845
828.994	25708
829.134	25700
829.273	25575
829.412	25510
829.551	25681
829.69	25651
829.829	25681
829.968	25883
830.107	25537
830.246	25658
830.385	25651
830.524	25487
830.663	25521
830.802	25415
830.941	25270
831.08	25312
831.219	25358
831.357	25255
831.496	25331
831.635	25175
831.774	25069
831.913	25103
832.051	25053
832.19	24992
832.329	25027
832.467	24973
832.606	24863
832.744	24913
832.883	24992
833.022	24935
833.16	24977
833.299	25000
833.437	24939
833.576	24894
833.714	24928
833.852	24989
833.991	25004
834.129	25202
834.267	25050
834.406	25107
834.544	25008
834.682	24905
834.821	24962
834.959	25129
835.097	24821
835.235	25031
835.373	25015
835.511	24924
835.65	24757
835.788	24943
835.926	24665
836.064	24627
836.202	24677
836.34	24806
836.478	24829
836.615	24684
836.753	24760
836.891	24856
837.029	24703
837.167	24738
837.305	24798
837.443	24738
837.58	24608
837.718	24753
837.856	24654
837.993	24597
838.131	24532
838.269	24380
838.406	24601
838.544	24456
838.681	24270
838.819	24251
838.956	24136
839.094	24148
839.231	24171
839.369	24338
839.506	24403
839.643	24365
839.781	24030
839.918	23969
840.055	24083
840.193	24106
840.33	23984
840.467	23935
840.604	24095
840.742	24159
840.879	24022
841.016	23954
841.153	23977
841.29	23999
841.427	23999
841.564	23996
841.701	24003
841.838	24034
841.975	23821
842.112	23923
842.249	23863
842.385	23764
842.522	24015
842.659	23710
842.796	23752
842.933	23798
843.069	23665
843.206	23756
843.343	23923
843.479	23863
843.616	23649
843.752	23596
843.889	23608
844.025	23687
844.162	23562
844.298	23455
844.435	23528
844.571	23547
844.708	23585
844.844	23703
844.98	23676
845.117	23604
845.253	23452
845.389	23387
845.525	23360
845.661	23372
845.798	23280
845.934	23368
846.07	23269
846.206	23315
846.342	23391
846.478	23254
846.614	23029
846.75	22980
846.886	23048
847.022	23052
847.158	23193
847.294	22915
847.429	23018
847.565	23018
847.701	23345
847.837	22710
847.972	22527
848.108	22752
848.244	22755
848.379	22710
848.515	22615
848.65	22672
848.786	22603
848.921	22577
849.057	22630
849.192	22637
849.328	22656
849.463	22664
849.598	22569
849.734	22478
849.869	22424
850.004	22363
850.14	22466
850.275	22432
850.41	22230
850.545	22306
850.68	22276
850.815	22402
850.95	22284
851.085	22626
851.22	22493
851.355	22257
851.49	22306
851.625	22272
851.76	22268
851.895	22367
852.03	22249
852.165	22337
852.299	22386
852.434	22432
852.569	22314
852.703	22398
852.838	22409
852.973	22459
853.107	22417
853.242	22238
853.376	22166
853.511	22017
853.645	22154
853.78	22265
853.914	22150
854.048	22067
854.183	22021
854.317	22196
854.451	22272
854.585	22101
854.72	22196
854.854	22230
854.988	22143
855.122	22226
855.256	22078
855.39	22078
855.524	22226
855.658	22268
855.792	22238
855.926	22253
856.06	22169
856.194	22303
856.327	22154
856.461	22040
856.595	22131
856.729	22185
856.862	22367
856.996	22238
857.13	22299
857.263	22295
857.397	22185
857.53	22158
857.664	22230
857.797	22310
857.931	22268
858.064	22215
858.197	22303
858.331	22253
858.464	22124
858.597	22154
858.731	22219
858.864	22002
858.997	22150
859.13	22120
859.263	22204
859.396	22204
859.529	22238
859.662	22147
859.795	22162
859.928	22177
860.061	22337
860.194	22390
860.327	22318
860.46	22230
860.592	22325
860.725	22348
860.858	22322
860.99	22181
861.123	22128
861.256	22280
861.388	22150
861.521	22946
861.653	21991
861.786	21941
861.918	21991
862.05	21949
862.183	22215
862.315	22044
862.447	22109
862.58	22181
862.712	21869
862.844	21869
862.976	21994
863.108	21918
863.24	22284
863.372	21835
863.504	21804
863.636	21941
863.768	21888
863.9	21850
864.032	21823
864.164	21785
864.296	21899
864.428	22002
864.559	21937
864.691	22101
864.823	21766
864.954	21907
865.086	21941
865.217	21895
865.349	21747
865.48	21667
865.612	21838
865.743	21842
865.875	21736
866.006	21663
866.137	21789
866.269	21800
866.4	21759
866.531	21686
866.662	21705
866.793	21686
866.924	21720
867.055	21591
867.186	21595
867.317	21625
867.448	21736
867.579	21523
867.71	21770
867.841	21557
867.972	21698
868.103	21675
868.233	21606
868.364	21755
868.495	21682
868.625	21873
868.756	22120
868.886	21781
869.017	21876
869.147	21968
869.278	22002
869.408	21949
869.539	21816
869.669	22044
869.799	22006
869.929	22074
870.06	22082
870.19	22246
870.32	22367
870.45	22451
870.58	22299
870.71	22421
870.84	22500
870.97	22329
871.1	22398
871.23	22489
871.36	22554
871.489	22440
871.619	22535
871.749	22592
871.879	22565
872.008	22630
872.138	22580
872.267	22554
872.397	22371
872.526	22329
872.656	22550
872.785	22314
872.915	22481
873.044	22611
873.173	22527
873.303	22569
873.432	22668
873.561	22649
873.69	22523
873.819	22546
873.948	22748
874.077	22504
874.206	22634
874.335	22554
874.464	22641
874.593	22869
874.722	22641
874.851	22850
874.979	22824
875.108	22740
875.237	22782
875.365	22729
875.494	22660
875.623	22744
875.751	22755
875.88	22820
876.008	22911
876.136	22923
876.265	23208
876.393	23246
876.521	23280
876.65	23132
876.778	23090
876.906	23033
877.034	23147
877.162	23079
877.29	23181
877.418	23079
877.546	23155
877.674	23109
877.802	23022
877.93	23170
878.058	23014
878.185	23044
878.313	23048
878.441	23143
878.568	22968
878.696	22919
878.824	23105
878.951	23159
879.079	23334
879.206	23528
879.333	23356
879.461	23189
879.588	23311
879.715	23360
879.842	23349
879.97	23181
880.097	22889
880.224	22972
880.351	23064
880.478	22915
880.605	22938
880.732	22900
880.859	23200
880.986	23044
881.112	23037
881.239	22820
881.366	22607
881.493	22542
881.619	22516
881.746	22538
881.872	22405
881.999	22371
882.125	22447
882.252	22413
882.378	22630
882.505	22565
882.631	22295
882.757	22101
882.883	22268
883.01	22101
883.136	22067
883.262	22090
883.388	21846
883.514	22249
883.64	22177
883.766	22082
883.892	21888
884.018	21964
884.143	22032
884.269	22120
884.395	21903
884.52	21682
884.646	21873
884.772	21831
884.897	21732
885.023	21857
885.148	21880
885.274	22017
885.399	21922
885.524	21724
885.65	21838
885.775	21759
885.9	21743
886.025	21956
886.15	21941
886.275	21846
886.4	21587
886.525	21698
886.65	21724
886.775	21762
886.9	21941
887.025	21945
887.149	21686
887.274	21507
887.399	21553
887.523	21595
887.648	21618
887.773	21477
887.897	21759
888.021	21698
888.146	21450
888.27	21603
888.395	21507
888.519	21557
888.643	21523
888.767	21644
888.891	21511
889.015	21428
889.139	21462
889.263	21447
889.387	21405
889.511	21561
889.635	21496
889.759	21268
889.883	21237
890.006	21359
890.13	21382
890.254	21252
890.377	21192
890.501	21195
890.624	21043
890.748	21157
890.871	20994
890.995	20967
891.118	20857
891.241	20975
891.364	20853
891.488	20921
891.611	20914
891.734	20918
891.857	21024
891.98	20979
892.103	21070
892.226	20937
892.349	20792
892.471	20701
892.594	20842
892.717	20948
892.839	20727
892.962	20864
893.085	20868
893.207	20815
893.33	20743
893.452	20689
893.575	20746
893.697	20807
893.819	20815
893.941	21005
894.064	20982
894.186	20769
894.308	20644
894.43	20842
894.552	20914
894.674	20804
894.796	20727
894.918	20876
895.04	20648
895.161	20880
895.283	20750
895.405	20697
895.526	20716
895.648	20785
895.769	20815
895.891	20777
896.012	20921
896.134	20785
896.255	20792
896.376	20765
896.498	20823
896.619	20845
896.74	20693
896.861	20842
896.982	21047
897.103	21351
897.224	21039
897.345	20986
897.466	20899
897.587	20986
897.708	21173
897.828	21009
897.949	20986
898.07	20937
898.19	20876
898.311	21066
898.431	21017
898.552	20948
898.672	21108
898.792	21074
898.913	21077
899.033	20986
899.153	20678
899.273	20773
899.393	20731
899.513	20823
899.633	20712
899.753	20746
899.873	20682
899.993	20769
900.113	20602
900.232	20785
900.352	20678
900.472	20450
900.591	20484
900.711	20503
900.83	20412
900.95	20693
901.069	20629
901.189	20370
901.308	20183
901.427	20084
901.546	20145
901.665	20077
901.784	19974
901.904	19879
902.023	19849
902.141	19738
902.26	19563
902.379	19647
902.498	19609
902.617	19510
902.735	19594
902.854	19594
902.973	19514
903.091	19285
903.21	19217
903.328	19308
903.446	19160
903.565	19088
903.683	18962
903.801	18939
903.919	18962
904.038	19057
904.156	18791
904.274	18981
904.392	18821
904.51	18829
904.627	18741
904.745	18833
904.863	18837
904.981	18509
905.098	18471
905.216	18490
905.334	18620
905.451	18593
905.569	18448
905.686	18563
905.803	18448
905.921	18338
906.038	18346
906.155	18254
906.272	18182
906.389	18369
906.506	18030
906.623	18034
906.74	18072
906.857	17961
906.974	17908
907.091	18091
907.208	18034
907.324	18026
907.441	17821
907.557	17756
907.674	17741
907.79	17604
907.907	17657
908.023	17745
908.139	17699
908.256	17570
908.372	17589
908.488	17551
908.604	17589
908.72	17383
908.836	17429
908.952	17341
909.068	17467
909.184	17554
909.3	17383
909.415	17528
909.531	17311
909.647	17265
909.762	17117
909.878	17227
909.993	17166
910.108	17094
910.224	17121
910.339	17147
910.454	16995
910.57	16976
910.685	16812
910.8	17155
910.915	17094
911.03	16850
911.145	16687
911.259	16713
911.374	16778
911.489	16626
911.604	16603
911.718	16436
911.833	16485
911.947	16325
912.062	16242
912.176	16459
912.291	16500
912.405	16508
912.519	16710
912.633	16660
912.748	16565
912.862	16379
912.976	16284
913.09	16097
913.204	16230
913.318	16204
913.431	16249
913.545	16253
913.659	16398
913.772	16246
913.886	16101
914	16093
914.113	16147
914.226	16124
914.34	16128
914.453	15975
914.566	16025
914.68	16013
914.793	15895
914.906	15713
915.019	15663
915.132	15641
915.245	15679
915.358	15595
915.47	15618
915.583	15599
915.696	15679
915.809	15800
915.921	15762
916.034	15614
916.146	15511
916.259	15553
916.371	15622
916.483	15564
916.595	15515
916.708	15355
916.82	15523
916.932	15344
917.044	15466
917.156	15412
917.268	15325
917.38	15313
917.491	15412
917.603	15351
917.715	15458
917.826	15336
917.938	15192
918.049	15135
918.161	15275
918.272	15370
918.384	15287
918.495	15173
918.606	15150
918.717	14979
918.828	14986
918.939	15009
919.05	14906
919.161	15047
919.272	14845
919.383	14800
919.494	15089
919.604	15203
919.715	14963
919.826	14861
919.936	15005
920.047	15028
920.157	14998
920.267	15188
920.378	14967
920.488	14956
920.598	15192
920.708	15294
920.818	15085
920.928	15116
921.038	15245
921.148	15176
921.258	14986
921.368	14746
921.477	14754
921.587	14670
921.697	14579
921.806	14708
921.916	14518
922.025	14427
922.134	14408
922.244	14286
922.353	14457
922.462	14195
922.571	14187
922.68	14020
922.789	13974
922.898	13963
923.007	13951
923.116	14043
923.224	13936
923.333	13883
923.442	13928
923.55	13860
923.659	13913
923.767	13906
923.876	13750
923.984	13852
924.092	13685
924.201	13727
924.309	13712
924.417	13712
924.525	13571
924.633	13670
924.741	14362
924.849	13411
924.956	13540
925.064	13411
925.172	13301
925.279	13285
925.387	13411
925.494	13335
925.602	13441
925.709	13266
925.816	13213
925.924	13278
926.031	13407
926.138	13377
926.245	13327
926.352	13164
926.459	13293
926.566	13346
926.673	13263
926.779	12989
926.886	13183
926.993	13053
927.099	12973
927.206	12913
927.312	12875
927.419	13015
927.525	12966
927.631	13076
927.737	12764
927.843	12760
927.95	12604
928.056	12696
928.162	12772
928.267	12768
928.373	13396
928.479	12840
928.585	12559
928.69	12616
928.796	12726
928.901	12574
929.007	12471
929.112	12566
929.218	12642
929.323	12574
929.428	12506
929.533	12536
929.638	12410
929.743	12410
929.848	12391
929.953	12365
930.058	12285
930.163	12117
930.267	12136
930.372	12270
930.477	12095
930.581	12350
930.685	12258
930.79	12019
930.894	11992
930.998	11946
931.103	12102
931.207	11752
931.311	11646
931.415	11741
931.519	11402
931.623	11395
