Data from test_V78500241_3232.txt Node
Date: Fri Mar 25 16:04:11 CST 2022
User: usil
Spectrometer: V785-0024
Trigger mode: 0
Integration Time (sec): 4.000000E-1
Scans to average: 1
Nonlinearity correction enabled: false
Boxcar width: 0
Storing dark spectrum: false
XAxis mode: Wavelengths
Number of Pixels in Spectrum: 1024
>>>>>Begin Spectral Data<<<<<
801.071	28904
801.214	28809
801.356	28569
801.499	28618
801.641	28622
801.783	28485
801.926	28611
802.068	28653
802.211	28329
802.353	28348
802.496	28360
802.638	28188
802.78	28185
802.923	28086
803.065	28234
803.208	28086
803.35	28074
803.492	28382
803.635	28390
803.777	28360
803.919	28538
804.061	28759
804.204	28531
804.346	28428
804.488	28344
804.63	28344
804.773	28196
804.915	28554
805.057	28554
805.199	28474
805.341	28478
805.483	28649
805.626	28634
805.768	28356
805.91	28615
806.052	28702
806.194	28592
806.336	28786
806.478	28489
806.62	28672
806.762	28763
806.904	28892
807.046	29124
807.188	28984
807.33	29033
807.472	29136
807.614	29010
807.756	28946
807.898	28995
808.04	28755
808.182	28915
808.324	28972
808.465	29033
808.607	29212
808.749	29273
808.891	29288
809.033	29448
809.174	29429
809.316	29353
809.458	29239
809.6	29140
809.741	29440
809.883	29341
810.025	29490
810.166	29661
810.308	29570
810.45	29516
810.591	29387
810.733	29368
810.875	29345
811.016	29250
811.158	29292
811.299	29402
811.441	29630
811.582	29410
811.724	29379
811.865	29444
812.007	29353
812.148	29444
812.29	29379
812.431	29497
812.573	29600
812.714	29680
812.855	29764
812.997	29882
813.138	30106
813.279	29980
813.421	29798
813.562	29958
813.703	29657
813.845	29642
813.986	29261
814.127	29105
814.268	29113
814.41	28915
814.551	29071
814.692	29132
814.833	29094
814.974	29003
815.115	29067
815.256	28892
815.397	29010
815.539	28885
815.68	28949
815.821	28736
815.962	28797
816.103	28892
816.244	28820
816.385	28710
816.526	28523
816.666	28447
816.807	28147
816.948	28466
817.089	28485
817.23	28401
817.371	28356
817.512	28421
817.653	28318
817.793	28219
817.934	28310
818.075	28440
818.216	28401
818.356	28314
818.497	28363
818.638	27968
818.778	28147
818.919	28162
819.06	28261
819.2	28371
819.341	28538
819.481	28409
819.622	28500
819.762	28691
819.903	28679
820.043	28557
820.184	28500
820.324	28618
820.465	28618
820.605	28626
820.746	28436
820.886	28409
821.026	28398
821.167	28451
821.307	28675
821.447	28516
821.588	28249
821.728	28131
821.868	28044
822.008	27739
822.149	27793
822.289	27937
822.429	27667
822.569	27458
822.709	27530
822.849	27283
822.99	27488
823.13	27405
823.27	27485
823.41	27294
823.55	27058
823.69	27233
823.83	27283
823.97	27154
824.11	26975
824.25	26895
824.389	26979
824.529	27108
824.669	27039
824.809	27131
824.949	26998
825.089	27093
825.228	27066
825.368	26940
825.508	26956
825.648	26849
825.787	26826
825.927	27028
826.067	26895
826.206	27013
826.346	26956
826.485	27055
826.625	27009
826.765	27001
826.904	26876
827.044	26826
827.183	26708
827.323	26564
827.462	26659
827.601	26632
827.741	26465
827.88	26575
828.02	26632
828.159	26640
828.298	26697
828.437	26800
828.577	26602
828.716	26640
828.855	26511
828.994	26377
829.134	26309
829.273	26438
829.412	26351
829.551	26202
829.69	26221
829.829	26313
829.968	26408
830.107	26317
830.246	26366
830.385	26377
830.524	26218
830.663	26088
830.802	25982
830.941	25932
831.08	25849
831.219	25982
831.357	25963
831.496	26233
831.635	25959
831.774	25902
831.913	25826
832.051	25742
832.19	25689
832.329	25635
832.467	25712
832.606	25476
832.744	25628
832.883	25628
833.022	25525
833.16	25655
833.299	25616
833.437	25666
833.576	25590
833.714	25715
833.852	25666
833.991	25731
834.129	25723
834.267	25552
834.406	25795
834.544	25719
834.682	25719
834.821	25712
834.959	25928
835.097	25548
835.235	25658
835.373	25689
835.511	25643
835.65	25499
835.788	25540
835.926	25407
836.064	25297
836.202	25358
836.34	25499
836.478	25552
836.615	25616
836.753	25506
836.891	25453
837.029	25540
837.167	25453
837.305	25384
837.443	25377
837.58	25327
837.718	25468
837.856	25415
837.993	25392
838.131	25415
838.269	25206
838.406	25202
838.544	25080
838.681	25072
838.819	25023
838.956	24745
839.094	24779
839.231	24863
839.369	24970
839.506	25164
839.643	25038
839.781	24741
839.918	24642
840.055	24719
840.193	24753
840.33	24703
840.467	24719
840.604	24650
840.742	24924
840.879	24612
841.016	24612
841.153	24574
841.29	24639
841.427	24749
841.564	24745
841.701	24734
841.838	24547
841.975	24673
842.112	24608
842.249	24505
842.385	24300
842.522	24719
842.659	24601
842.796	24448
842.933	24483
843.069	24414
843.206	24407
843.343	24433
843.479	24505
843.616	24429
843.752	24232
843.889	24262
844.025	24437
844.162	24296
844.298	24243
844.435	24216
844.571	24079
844.708	24121
844.844	24426
844.98	24403
845.117	24235
845.253	23980
845.389	24064
845.525	24178
845.661	24060
845.798	23980
845.934	24068
846.07	23904
846.206	24034
846.342	24098
846.478	23813
846.614	23752
846.75	23672
846.886	23699
847.022	23805
847.158	23649
847.294	23684
847.429	23691
847.565	23672
847.701	23817
847.837	23459
847.972	23330
848.108	23391
848.244	23520
848.379	23315
848.515	23265
848.65	23170
848.786	23280
848.921	23307
849.057	23330
849.192	23261
849.328	23265
849.463	23280
849.598	23231
849.734	23197
849.869	23197
850.004	22965
850.14	23052
850.275	22961
850.41	22953
850.545	23006
850.68	22904
850.815	23018
850.95	23094
851.085	23166
851.22	22972
851.355	23003
851.49	23041
851.625	22949
851.76	22858
851.895	22896
852.03	22900
852.165	23003
852.299	23029
852.434	23003
852.569	22991
852.703	22900
852.838	23044
852.973	23033
853.107	23197
853.242	22942
853.376	22847
853.511	22721
853.645	22805
853.78	22889
853.914	22930
854.048	22900
854.183	22965
854.317	22839
854.451	23048
854.585	22797
854.72	22843
854.854	22930
854.988	22809
855.122	22691
855.256	22801
855.39	22824
855.524	22889
855.658	22824
855.792	22854
855.926	22854
856.06	22835
856.194	22934
856.327	22721
856.461	22721
856.595	22797
856.729	22828
856.862	22786
856.996	22968
857.13	23003
857.263	22949
857.397	22934
857.53	22801
857.664	22908
857.797	22824
857.931	22991
858.064	22911
858.197	22949
858.331	22854
858.464	22694
858.597	22748
858.731	22847
858.864	22755
858.997	22748
859.13	22790
859.263	22942
859.396	22957
859.529	22854
859.662	22828
859.795	22679
859.928	22862
860.061	23075
860.194	23022
860.327	22850
860.46	22850
860.592	22972
860.725	22972
860.858	22938
860.99	22854
861.123	22660
861.256	22748
861.388	22805
861.521	23642
861.653	22691
861.786	22611
861.918	22710
862.05	22626
862.183	22782
862.315	22816
862.447	22854
862.58	22744
862.712	22580
862.844	22611
862.976	22797
863.108	22634
863.24	22957
863.372	22493
863.504	22557
863.636	22573
863.768	22519
863.9	22630
864.032	22535
864.164	22466
864.296	22500
864.428	22641
864.559	22512
864.691	22554
864.823	22462
864.954	22527
865.086	22440
865.217	22512
865.349	22371
865.48	22341
865.612	22424
865.743	22424
865.875	22462
866.006	22348
866.137	22348
866.269	22386
866.4	22413
866.531	22371
866.662	22356
866.793	22226
866.924	22348
867.055	22451
867.186	22379
867.317	22276
867.448	22268
867.579	22432
867.71	22185
867.841	22276
867.972	22398
868.103	22280
868.233	22413
868.364	22337
868.495	22466
868.625	22649
868.756	22622
868.886	22584
869.017	22497
869.147	22736
869.278	22672
869.408	22573
869.539	22584
869.669	22630
869.799	22694
869.929	22733
870.06	22691
870.19	22850
870.32	22847
870.45	22930
870.58	23025
870.71	23143
870.84	22949
870.97	22923
871.1	23010
871.23	23212
871.36	23113
871.489	23136
871.619	23109
871.749	23147
871.879	23212
872.008	23204
872.138	23185
872.267	23124
872.397	23052
872.526	22965
872.656	23132
872.785	23010
872.915	23208
873.044	23258
873.173	23197
873.303	23273
873.432	23200
873.561	23349
873.69	23284
873.819	23208
873.948	23284
874.077	23254
874.206	23151
874.335	23109
874.464	23242
874.593	23459
874.722	23421
874.851	23383
874.979	23459
875.108	23440
875.237	23364
875.365	23280
875.494	23364
875.623	23395
875.751	23315
875.88	23433
876.008	23539
876.136	23592
876.265	23775
876.393	24022
876.521	23859
876.65	23980
876.778	23843
876.906	23748
877.034	23627
877.162	23824
877.29	23585
877.418	23813
877.546	23687
877.674	23733
877.802	23843
877.93	23832
878.058	23653
878.185	23668
878.313	23672
878.441	23691
878.568	23459
878.696	23649
878.824	23828
878.951	23897
879.079	23954
879.206	24026
879.333	23832
879.461	23817
879.588	23870
879.715	23889
879.842	24026
879.97	23809
880.097	23684
880.224	23501
880.351	23627
880.478	23600
880.605	23459
880.732	23577
880.859	23764
880.986	23596
881.112	23573
881.239	23490
881.366	23376
881.493	23216
881.619	23151
881.746	23181
881.872	23197
881.999	23060
882.125	23086
882.252	23178
882.378	23075
882.505	23140
882.631	22873
882.757	22847
882.883	23014
883.01	22843
883.136	22675
883.262	22622
883.388	22660
883.514	22748
883.64	22839
883.766	22527
883.892	22550
884.018	22634
884.143	22672
884.269	22889
884.395	22542
884.52	22443
884.646	22440
884.772	22363
884.897	22428
885.023	22462
885.148	22478
885.274	22478
885.399	22405
885.524	22398
885.65	22424
885.775	22417
885.9	22432
886.025	22360
886.15	22424
886.275	22382
886.4	22185
886.525	22329
886.65	22325
886.775	22405
886.9	22504
887.025	22542
887.149	22394
887.274	22226
887.399	22120
887.523	22226
887.648	22147
887.773	22131
887.897	22147
888.021	22154
888.146	22166
888.27	22341
888.395	22337
888.519	22131
888.643	22055
888.767	22177
888.891	21975
889.015	21960
889.139	21960
889.263	21945
889.387	22070
889.511	22010
889.635	22120
889.759	22025
889.883	21884
890.006	21998
890.13	22059
890.254	21865
890.377	21857
890.501	21724
890.624	21660
890.748	21759
890.871	21580
890.995	21583
891.118	21622
891.241	21530
891.364	21549
891.488	21599
891.611	21511
891.734	21549
891.857	21625
891.98	21450
892.103	21504
892.226	21500
892.349	21435
892.471	21359
892.594	21492
892.717	21378
892.839	21363
892.962	21553
893.085	21534
893.207	21424
893.33	21214
893.452	21458
893.575	21462
893.697	21420
893.819	21667
893.941	21644
894.064	21492
894.186	21310
894.308	21207
894.43	21492
894.552	21564
894.674	21450
894.796	21340
894.918	21298
895.04	21313
895.161	21477
895.283	21420
895.405	21416
895.526	21291
895.648	21344
895.769	21340
895.891	21310
896.012	21367
896.134	21450
896.255	21428
896.376	21310
896.498	21317
896.619	21294
896.74	21355
896.861	21519
896.982	21603
897.103	21819
897.224	21587
897.345	21519
897.466	21538
897.587	21530
897.708	21709
897.828	21466
897.949	21458
898.07	21359
898.19	21405
898.311	21698
898.431	21428
898.552	21603
898.672	21603
898.792	21637
898.913	21572
899.033	21386
899.153	21378
899.273	21291
899.393	21199
899.513	21199
899.633	21317
899.753	21313
899.873	21260
899.993	21233
900.113	21188
900.232	21252
900.352	21214
900.472	21222
900.591	20975
900.711	21089
900.83	20921
900.95	21131
901.069	21188
901.189	20929
901.308	20651
901.427	20670
901.546	20590
901.665	20541
901.784	20648
901.904	20492
902.023	20412
902.141	20233
902.26	20149
902.379	20206
902.498	20107
902.617	20016
902.735	20164
902.854	20084
902.973	19879
903.091	19811
903.21	19807
903.328	19734
903.446	19700
903.565	19502
903.683	19506
903.801	19472
903.919	19510
904.038	19506
904.156	19236
904.274	19343
904.392	19304
904.51	19244
904.627	19343
904.745	19472
904.863	19217
904.981	19122
905.098	19061
905.216	19015
905.334	19057
905.451	18973
905.569	19004
905.686	18939
905.803	18867
905.921	18703
906.038	18920
906.155	18935
906.272	18654
906.389	18642
906.506	18574
906.623	18483
906.74	18547
906.857	18346
906.974	18445
907.091	18559
907.208	18525
907.324	18544
907.441	18353
907.557	18270
907.674	18281
907.79	18129
907.907	18243
908.023	18201
908.139	18300
908.256	18117
908.372	18072
908.488	18125
908.604	17969
908.72	17882
908.836	17942
908.952	17954
909.068	17996
909.184	17916
909.3	17889
909.415	17901
909.531	17847
909.647	17585
909.762	17646
909.878	17577
909.993	17695
910.108	17611
910.224	17482
910.339	17501
910.454	17516
910.57	17467
910.685	17330
910.8	17558
910.915	17520
911.03	17455
911.145	17261
911.259	17212
911.374	17155
911.489	17098
911.604	17132
911.718	16824
911.833	17048
911.947	16816
912.062	16797
912.176	16976
912.291	16904
912.405	16949
912.519	17159
912.633	17033
912.748	16961
912.862	16904
912.976	16713
913.09	16672
913.204	16755
913.318	16759
913.431	16831
913.545	16771
913.659	16824
913.772	16805
913.886	16554
914	16485
914.113	16561
914.226	16675
914.34	16535
914.453	16440
914.566	16538
914.68	16470
914.793	16493
914.906	16105
915.019	16093
915.132	16059
915.245	16063
915.358	16120
915.47	16124
915.583	16051
915.696	16154
915.809	16154
915.921	16188
916.034	16063
916.146	16006
916.259	16036
916.371	15994
916.483	16082
916.595	15991
916.708	15907
916.82	15899
916.932	15816
917.044	15800
917.156	15854
917.268	15743
917.38	15732
917.491	15739
917.603	15781
917.715	15736
917.826	15804
917.938	15591
918.049	15584
918.161	15641
918.272	15808
918.384	15755
918.495	15622
918.606	15439
918.717	15477
918.828	15424
918.939	15488
919.05	15317
919.161	15439
919.272	15188
919.383	15367
919.494	15443
919.604	15603
919.715	15367
919.826	15325
919.936	15370
920.047	15572
920.157	15359
920.267	15576
920.378	15439
920.488	15310
920.598	15530
920.708	15648
920.818	15412
920.928	15412
921.038	15629
921.148	15500
921.258	15291
921.368	15306
921.477	15089
921.587	15013
921.697	14990
921.806	15112
921.916	14914
922.025	14800
922.134	14754
922.244	14750
922.353	14777
922.462	14655
922.571	14583
922.68	14511
922.789	14290
922.898	14366
923.007	14271
923.116	14457
923.224	14320
923.333	14278
923.442	14298
923.55	14202
923.659	14130
923.767	14271
923.876	14065
923.984	14210
924.092	14054
924.201	14046
924.309	14088
924.417	14142
924.525	14046
924.633	13978
924.741	14838
924.849	13753
924.956	13947
925.064	13852
925.172	13632
925.279	13727
925.387	13913
925.494	13780
925.602	13883
925.709	13811
925.816	13544
925.924	13746
926.031	13830
926.138	13677
926.245	13651
926.352	13594
926.459	13791
926.566	13719
926.673	13658
926.779	13438
926.886	13449
926.993	13297
927.099	13304
927.206	13358
927.312	13198
927.419	13346
927.525	13320
927.631	13274
927.737	13149
927.843	13099
927.95	13050
928.056	13141
928.162	13076
928.267	13137
928.373	13666
928.479	13088
928.585	12981
928.69	13129
928.796	13065
928.901	12970
929.007	12745
929.112	13008
929.218	12894
929.323	12882
929.428	12791
929.533	12947
929.638	12658
929.743	12810
929.848	12806
929.953	12726
930.058	12623
930.163	12578
930.267	12506
930.372	12521
930.477	12414
930.581	12738
930.685	12608
930.79	12350
930.894	12418
930.998	12285
931.103	12544
931.207	12026
931.311	12057
931.415	11961
931.519	11699
931.623	11684
