Data from test_V78500241_2280.txt Node
Date: Fri Mar 25 15:57:35 CST 2022
User: usil
Spectrometer: V785-0024
Trigger mode: 0
Integration Time (sec): 4.000000E-1
Scans to average: 1
Nonlinearity correction enabled: false
Boxcar width: 0
Storing dark spectrum: false
XAxis mode: Wavelengths
Number of Pixels in Spectrum: 1024
>>>>>Begin Spectral Data<<<<<
801.071	28938
801.214	29041
801.356	28938
801.499	28812
801.641	28519
801.783	28527
801.926	28694
802.068	28542
802.211	28596
802.353	28504
802.496	28455
802.638	28375
802.78	28131
802.923	28226
803.065	28341
803.208	28166
803.35	28341
803.492	28493
803.635	28481
803.777	28379
803.919	28531
804.061	28793
804.204	28649
804.346	28523
804.488	28535
804.63	28580
804.773	28436
804.915	28455
805.057	28767
805.199	28535
805.341	28649
805.483	28694
805.626	28584
805.768	28645
805.91	28755
806.052	28782
806.194	28698
806.336	28942
806.478	28759
806.62	28744
806.762	28713
806.904	28866
807.046	29109
807.188	29212
807.33	29117
807.472	29197
807.614	29086
807.756	29105
807.898	29022
808.04	28972
808.182	28908
808.324	29193
808.465	29010
808.607	29322
808.749	29242
808.891	29421
809.033	29501
809.174	29452
809.316	29414
809.458	29159
809.6	29379
809.741	29398
809.883	29611
810.025	29710
810.166	29703
810.308	29737
810.45	29570
810.591	29547
810.733	29509
810.875	29452
811.016	29402
811.158	29364
811.299	29604
811.441	29570
811.582	29680
811.724	29558
811.865	29364
812.007	29395
812.148	29372
812.29	29490
812.431	29707
812.573	29828
812.714	29855
812.855	29973
812.997	30079
813.138	30125
813.279	30064
813.421	29992
813.562	29741
813.703	29653
813.845	29707
813.986	29227
814.127	29307
814.268	29235
814.41	29056
814.551	29220
814.692	29204
814.833	29041
814.974	29014
815.115	29193
815.256	29052
815.397	28991
815.539	29033
815.68	29010
815.821	28923
815.962	29094
816.103	29025
816.244	28919
816.385	28748
816.526	28812
816.666	28679
816.807	28443
816.948	28538
817.089	28577
817.23	28428
817.371	28394
817.512	28481
817.653	28421
817.793	28398
817.934	28641
818.075	28489
818.216	28630
818.356	28322
818.497	28291
818.638	28249
818.778	28200
818.919	28207
819.06	28284
819.2	28398
819.341	28474
819.481	28409
819.622	28580
819.762	28831
819.903	28759
820.043	28755
820.184	28656
820.324	28626
820.465	28588
820.605	28664
820.746	28516
820.886	28398
821.026	28683
821.167	28637
821.307	28759
821.447	28478
821.588	28382
821.728	28409
821.868	28204
822.008	27937
822.149	28051
822.289	27956
822.429	27759
822.569	27686
822.709	27652
822.849	27481
822.99	27492
823.13	27500
823.27	27431
823.41	27382
823.55	27230
823.69	27386
823.83	27370
823.97	27279
824.11	27093
824.25	27123
824.389	27028
824.529	27237
824.669	27146
824.809	27237
824.949	27321
825.089	27279
825.228	27279
825.368	27066
825.508	27135
825.648	27100
825.787	27020
825.927	27024
826.067	27066
826.206	27066
826.346	27005
826.485	27085
826.625	27043
826.765	27112
826.904	27108
827.044	26853
827.183	26960
827.323	26735
827.462	26899
827.601	26731
827.741	26842
827.88	26781
828.02	26530
828.159	26663
828.298	26762
828.437	26868
828.577	26712
828.716	26910
828.855	26606
828.994	26480
829.134	26457
829.273	26541
829.412	26389
829.551	26476
829.69	26370
829.829	26385
829.968	26526
830.107	26492
830.246	26492
830.385	26381
830.524	26381
830.663	26256
830.802	26111
830.941	26073
831.08	25970
831.219	26271
831.357	25944
831.496	26199
831.635	25978
831.774	26027
831.913	26005
832.051	25947
832.19	25845
832.329	25883
832.467	25639
832.606	25594
832.744	25689
832.883	25738
833.022	25586
833.16	25655
833.299	25871
833.437	25727
833.576	25704
833.714	25712
833.852	25788
833.991	25807
834.129	25830
834.267	25925
834.406	25814
834.544	25849
834.682	25818
834.821	25799
834.959	26035
835.097	25704
835.235	25860
835.373	25822
835.511	25723
835.65	25620
835.788	25616
835.926	25430
836.064	25506
836.202	25518
836.34	25529
836.478	25647
836.615	25514
836.753	25586
836.891	25620
837.029	25582
837.167	25540
837.305	25495
837.443	25556
837.58	25438
837.718	25373
837.856	25434
837.993	25320
838.131	25362
838.269	25320
838.406	25282
838.544	25255
838.681	25187
838.819	25091
838.956	24798
839.094	24920
839.231	24882
839.369	25145
839.506	25327
839.643	25126
839.781	24867
839.918	24852
840.055	24749
840.193	24829
840.33	24703
840.467	24783
840.604	24821
840.742	25019
840.879	24620
841.016	24719
841.153	24719
841.29	24875
841.427	24665
841.564	24772
841.701	24757
841.838	24749
841.975	24749
842.112	24726
842.249	24658
842.385	24509
842.522	24760
842.659	24593
842.796	24513
842.933	24525
843.069	24467
843.206	24661
843.343	24589
843.479	24509
843.616	24525
843.752	24380
843.889	24266
844.025	24445
844.162	24266
844.298	24460
844.435	24292
844.571	24369
844.708	24266
844.844	24361
844.98	24467
845.117	24426
845.253	24289
845.389	24174
845.525	24273
845.661	24155
845.798	23984
845.934	23996
846.07	23969
846.206	24155
846.342	24281
846.478	23920
846.614	23882
846.75	23695
846.886	23748
847.022	23802
847.158	23726
847.294	23764
847.429	23745
847.565	23649
847.701	23992
847.837	23558
847.972	23452
848.108	23672
848.244	23444
848.379	23360
848.515	23330
848.65	23231
848.786	23239
848.921	23372
849.057	23322
849.192	23402
849.328	23486
849.463	23406
849.598	23261
849.734	23147
849.869	23200
850.004	23162
850.14	23086
850.275	23216
850.41	23037
850.545	23006
850.68	23174
850.815	23117
850.95	23235
851.085	23250
851.22	23178
851.355	23151
851.49	23128
851.625	23151
851.76	23185
851.895	22995
852.03	23079
852.165	23102
852.299	23128
852.434	23124
852.569	23193
852.703	22968
852.838	23136
852.973	23223
853.107	23208
853.242	22923
853.376	22949
853.511	22843
853.645	22885
853.78	23006
853.914	22968
854.048	22854
854.183	22953
854.317	22877
854.451	23174
854.585	22885
854.72	22949
854.854	22999
854.988	22869
855.122	22850
855.256	22744
855.39	22991
855.524	22957
855.658	23014
855.792	22908
855.926	22934
856.06	22972
856.194	22965
856.327	22896
856.461	22790
856.595	22805
856.729	22885
856.862	22965
856.996	23003
857.13	22972
857.263	23064
857.397	23079
857.53	22938
857.664	22953
857.797	22976
857.931	23018
858.064	22957
858.197	23003
858.331	22793
858.464	22984
858.597	22801
858.731	22862
858.864	22820
858.997	22953
859.13	22946
859.263	22919
859.396	22980
859.529	22786
859.662	22858
859.795	22881
859.928	22927
860.061	23006
860.194	23277
860.327	23083
860.46	22976
860.592	23075
860.725	23022
860.858	23044
860.99	23010
861.123	22828
861.256	22949
861.388	22858
861.521	23608
861.653	22748
861.786	22736
861.918	22763
862.05	22778
862.183	22759
862.315	22904
862.447	23006
862.58	22725
862.712	22580
862.844	22687
862.976	22717
863.108	22626
863.24	23086
863.372	22569
863.504	22569
863.636	22592
863.768	22831
863.9	22596
864.032	22516
864.164	22478
864.296	22721
864.428	22786
864.559	22599
864.691	22828
864.823	22485
864.954	22672
865.086	22535
865.217	22592
865.349	22424
865.48	22402
865.612	22516
865.743	22569
865.875	22489
866.006	22474
866.137	22493
866.269	22588
866.4	22417
866.531	22436
866.662	22268
866.793	22333
866.924	22295
867.055	22421
867.186	22375
867.317	22409
867.448	22394
867.579	22405
867.71	22341
867.841	22363
867.972	22500
868.103	22421
868.233	22390
868.364	22409
868.495	22481
868.625	22512
868.756	22740
868.886	22580
869.017	22664
869.147	22805
869.278	22679
869.408	22729
869.539	22752
869.669	22710
869.799	22755
869.929	22683
870.06	22771
870.19	22976
870.32	22885
870.45	22991
870.58	22987
870.71	23109
870.84	23113
870.97	23128
871.1	22961
871.23	23185
871.36	23128
871.489	23109
871.619	23379
871.749	23239
871.879	23322
872.008	23379
872.138	23235
872.267	23178
872.397	23060
872.526	23094
872.656	23117
872.785	23121
872.915	23220
873.044	23345
873.173	23315
873.303	23242
873.432	23337
873.561	23425
873.69	23284
873.819	23235
873.948	23231
874.077	23273
874.206	23212
874.335	23220
874.464	23395
874.593	23516
874.722	23406
874.851	23452
874.979	23501
875.108	23444
875.237	23364
875.365	23448
875.494	23398
875.623	23573
875.751	23383
875.88	23406
876.008	23592
876.136	23642
876.265	23828
876.393	23927
876.521	23954
876.65	23840
876.778	23866
876.906	23836
877.034	23832
877.162	23840
877.29	23710
877.418	23836
877.546	23855
877.674	23726
877.802	23855
877.93	23771
878.058	23771
878.185	23687
878.313	23767
878.441	23672
878.568	23710
878.696	23805
878.824	23878
878.951	23786
879.079	23965
879.206	24178
879.333	24049
879.461	23866
879.588	23885
879.715	23931
879.842	24178
879.97	23977
880.097	23596
880.224	23676
880.351	23691
880.478	23531
880.605	23619
880.732	23611
880.859	23836
880.986	23760
881.112	23707
881.239	23406
881.366	23376
881.493	23265
881.619	23261
881.746	23208
881.872	23105
881.999	23143
882.125	23143
882.252	23292
882.378	23208
882.505	23235
882.631	23033
882.757	22801
882.883	22885
883.01	22896
883.136	22873
883.262	22683
883.388	22752
883.514	22816
883.64	22839
883.766	22748
883.892	22607
884.018	22710
884.143	22812
884.269	22812
884.395	22413
884.52	22367
884.646	22447
884.772	22436
884.897	22299
885.023	22478
885.148	22634
885.274	22557
885.399	22550
885.524	22443
885.65	22409
885.775	22363
885.9	22421
886.025	22645
886.15	22428
886.275	22462
886.4	22382
886.525	22481
886.65	22329
886.775	22417
886.9	22599
887.025	22839
887.149	22375
887.274	22257
887.399	22238
887.523	22177
887.648	22188
887.773	22192
887.897	22348
888.021	22306
888.146	22207
888.27	22291
888.395	22310
888.519	22265
888.643	22230
888.767	22265
888.891	22154
889.015	22002
889.139	22067
889.263	21895
889.387	22025
889.511	22181
889.635	22036
889.759	22040
889.883	22021
890.006	22074
890.13	22131
890.254	21869
890.377	21907
890.501	21785
890.624	21682
890.748	21869
890.871	21637
890.995	21583
891.118	21553
891.241	21561
891.364	21606
891.488	21675
891.611	21549
891.734	21606
891.857	21568
891.98	21538
892.103	21542
892.226	21641
892.349	21519
892.471	21534
892.594	21561
892.717	21526
892.839	21450
892.962	21351
893.085	21629
893.207	21454
893.33	21317
893.452	21325
893.575	21450
893.697	21386
893.819	21519
893.941	21717
894.064	21526
894.186	21408
894.308	21302
894.43	21477
894.552	21564
894.674	21481
894.796	21370
894.918	21298
895.04	21336
895.161	21530
895.283	21469
895.405	21332
895.526	21351
895.648	21462
895.769	21401
895.891	21458
896.012	21568
896.134	21485
896.255	21439
896.376	21462
896.498	21424
896.619	21447
896.74	21405
896.861	21447
896.982	21644
897.103	21816
897.224	21595
897.345	21599
897.466	21656
897.587	21557
897.708	21705
897.828	21690
897.949	21603
898.07	21477
898.19	21580
898.311	21656
898.431	21526
898.552	21572
898.672	21504
898.792	21770
898.913	21599
899.033	21587
899.153	21268
899.273	21291
899.393	21378
899.513	21378
899.633	21332
899.753	21367
899.873	21233
899.993	21321
900.113	21249
900.232	21313
900.352	21218
900.472	21058
900.591	20918
900.711	21142
900.83	21028
900.95	21283
901.069	21112
901.189	20994
901.308	20796
901.427	20629
901.546	20682
901.665	20720
901.784	20568
901.904	20457
902.023	20446
902.141	20206
902.26	20233
902.379	20168
902.498	20100
902.617	20073
902.735	20103
902.854	20092
902.973	20088
903.091	19822
903.21	19814
903.328	19811
903.446	19784
903.565	19677
903.683	19643
903.801	19487
903.919	19537
904.038	19624
904.156	19400
904.274	19502
904.392	19304
904.51	19419
904.627	19384
904.745	19339
904.863	19506
904.981	19126
905.098	19084
905.216	19080
905.334	19072
905.451	19103
905.569	19065
905.686	18985
905.803	19133
905.921	18886
906.038	18821
906.155	18760
906.272	18707
906.389	18692
906.506	18513
906.623	18559
906.74	18547
906.857	18388
906.974	18483
907.091	18620
907.208	18517
907.324	18540
907.441	18399
907.557	18243
907.674	18178
907.79	18209
907.907	18228
908.023	18228
908.139	18167
908.256	18205
908.372	18243
908.488	18144
908.604	17992
908.72	17996
908.836	18049
908.952	17893
909.068	18003
909.184	17999
909.3	17961
909.415	17908
909.531	17973
909.647	17779
909.762	17634
909.878	17695
909.993	17703
910.108	17653
910.224	17528
910.339	17615
910.454	17512
910.57	17490
910.685	17376
910.8	17779
910.915	17459
911.03	17474
911.145	17189
911.259	17235
911.374	17189
911.489	17143
911.604	17067
911.718	16976
911.833	17060
911.947	16782
912.062	16866
912.176	16987
912.291	16915
912.405	16968
912.519	17102
912.633	17193
912.748	17052
912.862	16953
912.976	16843
913.09	16683
913.204	16767
913.318	16801
913.431	16927
913.545	16843
913.659	16892
913.772	16752
913.886	16561
914	16550
914.113	16596
914.226	16710
914.34	16577
914.453	16512
914.566	16653
914.68	16375
914.793	16386
914.906	16234
915.019	16109
915.132	16025
915.245	16071
915.358	16181
915.47	16131
915.583	16059
915.696	16150
915.809	16268
915.921	16192
916.034	16055
916.146	15979
916.259	16025
916.371	16021
916.483	16124
916.595	15972
916.708	15941
916.82	15949
916.932	15861
917.044	15835
917.156	15812
917.268	15797
917.38	15686
917.491	15667
917.603	15785
917.715	15869
917.826	15793
917.938	15622
918.049	15492
918.161	15641
918.272	15698
918.384	15751
918.495	15599
918.606	15416
918.717	15439
918.828	15530
918.939	15408
919.05	15382
919.161	15450
919.272	15260
919.383	15222
919.494	15549
919.604	15656
919.715	15462
919.826	15386
919.936	15462
920.047	15564
920.157	15466
920.267	15656
920.378	15416
920.488	15370
920.598	15545
920.708	15698
920.818	15515
920.928	15587
921.038	15705
921.148	15660
921.258	15488
921.368	15195
921.477	15169
921.587	15093
921.697	15009
921.806	15161
921.916	15051
922.025	14842
922.134	14823
922.244	14644
922.353	14815
922.462	14689
922.571	14579
922.68	14476
922.789	14495
922.898	14377
923.007	14358
923.116	14465
923.224	14385
923.333	14275
923.442	14320
923.55	14218
923.659	14286
923.767	14301
923.876	14172
923.984	14263
924.092	14168
924.201	14058
924.309	14024
924.417	14134
924.525	14069
924.633	14103
924.741	14975
924.849	13837
924.956	13940
925.064	13875
925.172	13780
925.279	13784
925.387	13814
925.494	13757
925.602	13890
925.709	13837
925.816	13681
925.924	13712
926.031	13822
926.138	13776
926.245	13765
926.352	13628
926.459	13784
926.566	13814
926.673	13575
926.779	13491
926.886	13441
926.993	13343
927.099	13308
927.206	13282
927.312	13339
927.419	13392
927.525	13369
927.631	13236
927.737	13232
927.843	13129
927.95	13038
928.056	13232
928.162	13126
928.267	13164
928.373	13788
928.479	13202
928.585	13023
928.69	13065
928.796	13061
928.901	12996
929.007	12810
929.112	12894
929.218	12829
929.323	12871
929.428	12802
929.533	12928
929.638	12749
929.743	12722
929.848	12817
929.953	12791
930.058	12620
930.163	12559
930.267	12483
930.372	12620
930.477	12460
930.581	12703
930.685	12513
930.79	12361
930.894	12437
930.998	12346
931.103	12547
931.207	12140
931.311	12003
931.415	11950
931.519	11752
931.623	11718
