Data from test_V78500241_869.txt Node
Date: Fri Mar 25 15:47:49 CST 2022
User: usil
Spectrometer: V785-0024
Trigger mode: 0
Integration Time (sec): 4.000000E-1
Scans to average: 1
Nonlinearity correction enabled: false
Boxcar width: 0
Storing dark spectrum: false
XAxis mode: Wavelengths
Number of Pixels in Spectrum: 1024
>>>>>Begin Spectral Data<<<<<
801.071	27393
801.214	27268
801.356	26960
801.499	26960
801.641	26834
801.783	26686
801.926	26967
802.068	26678
802.211	26731
802.353	26636
802.496	26442
802.638	26541
802.78	26518
802.923	26271
803.065	26415
803.208	26320
803.35	26324
803.492	26537
803.635	26438
803.777	26503
803.919	26552
804.061	26914
804.204	26670
804.346	26537
804.488	26400
804.63	26427
804.773	26499
804.915	26598
805.057	26758
805.199	26571
805.341	26746
805.483	26773
805.626	26823
805.768	26632
805.91	26625
806.052	26735
806.194	26575
806.336	26925
806.478	26861
806.62	26655
806.762	26918
806.904	26967
807.046	27256
807.188	27226
807.33	27119
807.472	27275
807.614	27081
807.756	27157
807.898	27127
808.04	26929
808.182	26982
808.324	26914
808.465	27024
808.607	27370
808.749	27336
808.891	27405
809.033	27587
809.174	27443
809.316	27306
809.458	27408
809.6	27252
809.741	27466
809.883	27633
810.025	27717
810.166	27519
810.308	27595
810.45	27553
810.591	27496
810.733	27321
810.875	27363
811.016	27310
811.158	27233
811.299	27355
811.441	27572
811.582	27481
811.724	27401
811.865	27317
812.007	27332
812.148	27249
812.29	27351
812.431	27553
812.573	27633
812.714	27603
812.855	27819
812.997	27934
813.138	28036
813.279	27949
813.421	27972
813.562	27766
813.703	27781
813.845	27485
813.986	27260
814.127	27165
814.268	27135
814.41	27036
814.551	26960
814.692	26990
814.833	26967
814.974	27051
815.115	27077
815.256	26849
815.397	27039
815.539	27020
815.68	26785
815.821	26689
815.962	26834
816.103	26686
816.244	26689
816.385	26739
816.526	26568
816.666	26355
816.807	26259
816.948	26381
817.089	26415
817.23	26347
817.371	26275
817.512	26298
817.653	26199
817.793	26164
817.934	26309
818.075	26423
818.216	26336
818.356	26180
818.497	26103
818.638	25989
818.778	25989
818.919	25944
819.06	26024
819.2	26233
819.341	26233
819.481	26168
819.622	26377
819.762	26701
819.903	26503
820.043	26602
820.184	26442
820.324	26431
820.465	26598
820.605	26419
820.746	26336
820.886	26138
821.026	26324
821.167	26396
821.307	26522
821.447	26278
821.588	26195
821.728	25947
821.868	25966
822.008	25807
822.149	25795
822.289	25712
822.429	25479
822.569	25601
822.709	25381
822.849	25270
822.99	25183
823.13	25209
823.27	25168
823.41	25240
823.55	24894
823.69	25091
823.83	25095
823.97	24954
824.11	24905
824.25	24791
824.389	24798
824.529	25000
824.669	24962
824.809	24966
824.949	24916
825.089	24890
825.228	25008
825.368	24802
825.508	24753
825.648	24798
825.787	24814
825.927	24856
826.067	24719
826.206	24692
826.346	24783
826.485	24840
826.625	24859
826.765	24825
826.904	24791
827.044	24486
827.183	24502
827.323	24502
827.462	24528
827.601	24460
827.741	24384
827.88	24566
828.02	24315
828.159	24361
828.298	24372
828.437	24532
828.577	24414
828.716	24456
828.855	24414
828.994	24289
829.134	24155
829.273	24224
829.412	24018
829.551	24076
829.69	24106
829.829	24167
829.968	24380
830.107	24182
830.246	24182
830.385	24140
830.524	24007
830.663	23988
830.802	23999
830.941	23863
831.08	23771
831.219	23745
831.357	23889
831.496	23969
831.635	23718
831.774	23760
831.913	23726
832.051	23512
832.19	23505
832.329	23581
832.467	23459
832.606	23356
832.744	23440
832.883	23402
833.022	23444
833.16	23482
833.299	23516
833.437	23417
833.576	23535
833.714	23471
833.852	23570
833.991	23672
834.129	23600
834.267	23535
834.406	23520
834.544	23524
834.682	23539
834.821	23356
834.959	23581
835.097	23543
835.235	23615
835.373	23402
835.511	23398
835.65	23414
835.788	23307
835.926	23200
836.064	23147
836.202	23212
836.34	23250
836.478	23459
836.615	23337
836.753	23299
836.891	23429
837.029	23372
837.167	23334
837.305	23204
837.443	23265
837.58	23083
837.718	23220
837.856	23197
837.993	23124
838.131	23193
838.269	23025
838.406	23056
838.544	22984
838.681	22740
838.819	22847
838.956	22691
839.094	22508
839.231	22736
839.369	22771
839.506	23121
839.643	22839
839.781	22744
839.918	22717
840.055	22801
840.193	22573
840.33	22573
840.467	22698
840.604	22740
840.742	22900
840.879	22538
841.016	22417
841.153	22443
841.29	22679
841.427	22618
841.564	22771
841.701	22622
841.838	22516
841.975	22356
842.112	22611
842.249	22371
842.385	22276
842.522	22440
842.659	22352
842.796	22341
842.933	22280
843.069	22348
843.206	22303
843.343	22413
843.479	22261
843.616	22409
843.752	22131
843.889	22101
844.025	22261
844.162	22051
844.298	22067
844.435	22166
844.571	22017
844.708	22215
844.844	22200
844.98	22242
845.117	22272
845.253	22032
845.389	21972
845.525	22040
845.661	22032
845.798	21827
845.934	21979
846.07	21781
846.206	21835
846.342	21991
846.478	21983
846.614	21625
846.75	21538
846.886	21530
847.022	21641
847.158	21580
847.294	21622
847.429	21641
847.565	21549
847.701	21789
847.837	21367
847.972	21279
848.108	21389
848.244	21469
848.379	21245
848.515	21146
848.65	21093
848.786	21165
848.921	21184
849.057	21291
849.192	21291
849.328	21256
849.463	21214
849.598	21161
849.734	21157
849.869	20994
850.004	20960
850.14	21081
850.275	20952
850.41	20834
850.545	20845
850.68	20872
850.815	20906
850.95	20895
851.085	21058
851.22	21039
851.355	20979
851.49	20979
851.625	20883
851.76	20956
851.895	20963
852.03	20773
852.165	20918
852.299	20994
852.434	20952
852.569	20921
852.703	20967
852.838	20979
852.973	21058
853.107	21119
853.242	20906
853.376	20792
853.511	20689
853.645	20701
853.78	20864
853.914	20823
854.048	20785
854.183	20708
854.317	20807
854.451	20944
854.585	20773
854.72	20659
854.854	20811
854.988	20750
855.122	20720
855.256	20629
855.39	20804
855.524	20857
855.658	20819
855.792	20750
855.926	20693
856.06	20720
856.194	20948
856.327	20716
856.461	20716
856.595	20788
856.729	20758
856.862	20941
856.996	20727
857.13	20872
857.263	20842
857.397	20682
857.53	20785
857.664	20708
857.797	20781
857.931	20842
858.064	20864
858.197	20937
858.331	20609
858.464	20724
858.597	20640
858.731	20773
858.864	20792
858.997	20640
859.13	20701
859.263	20762
859.396	20845
859.529	20716
859.662	20785
859.795	20731
859.928	20868
860.061	20781
860.194	20998
860.327	20842
860.46	20815
860.592	20864
860.725	20952
860.858	20952
860.99	20720
861.123	20670
861.256	20739
861.388	20819
861.521	21344
861.653	20613
861.786	20648
861.918	20598
862.05	20590
862.183	20765
862.315	20735
862.447	20727
862.58	20739
862.712	20511
862.844	20461
862.976	20469
863.108	20564
863.24	20868
863.372	20298
863.504	20511
863.636	20480
863.768	20423
863.9	20427
864.032	20469
864.164	20488
864.296	20545
864.428	20602
864.559	20533
864.691	20587
864.823	20473
864.954	20530
865.086	20457
865.217	20415
865.349	20282
865.48	20324
865.612	20332
865.743	20484
865.875	20415
866.006	20385
866.137	20324
866.269	20393
866.4	20465
866.531	20290
866.662	20419
866.793	20450
866.924	20495
867.055	20339
867.186	20195
867.317	20180
867.448	20240
867.579	20313
867.71	20180
867.841	20233
867.972	20355
868.103	20240
868.233	20298
868.364	20298
868.495	20514
868.625	20507
868.756	20689
868.886	20484
869.017	20537
869.147	20632
869.278	20735
869.408	20583
869.539	20621
869.669	20716
869.799	20609
869.929	20583
870.06	20743
870.19	20838
870.32	20853
870.45	20933
870.58	21066
870.71	21081
870.84	21085
870.97	20990
871.1	20883
871.23	21093
871.36	21176
871.489	21058
871.619	21184
871.749	21245
871.879	21237
872.008	21218
872.138	21184
872.267	21192
872.397	21108
872.526	20952
872.656	21009
872.785	20994
872.915	21176
873.044	21313
873.173	21131
873.303	21237
873.432	21142
873.561	21112
873.69	21142
873.819	21104
873.948	21249
874.077	21157
874.206	21112
874.335	21241
874.464	21291
874.593	21389
874.722	21462
874.851	21462
874.979	21382
875.108	21435
875.237	21431
875.365	21306
875.494	21450
875.623	21416
875.751	21473
875.88	21496
876.008	21519
876.136	21686
876.265	21846
876.393	21838
876.521	21880
876.65	21884
876.778	21816
876.906	21717
877.034	21656
877.162	21759
877.29	21679
877.418	21812
877.546	21823
877.674	21808
877.802	21755
877.93	21774
878.058	21724
878.185	21625
878.313	21766
878.441	21781
878.568	21576
878.696	21720
878.824	21785
878.951	22017
879.079	21964
879.206	22086
879.333	21865
879.461	21869
879.588	21956
879.715	21983
879.842	22090
879.97	21835
880.097	21523
880.224	21561
880.351	21504
880.478	21682
880.605	21504
880.732	21660
880.859	21876
880.986	21709
881.112	21595
881.239	21447
881.366	21363
881.493	21344
881.619	21146
881.746	21237
881.872	21085
881.999	21188
882.125	21188
882.252	21207
882.378	21222
882.505	21336
882.631	21096
882.757	20952
882.883	21020
883.01	20883
883.136	20906
883.262	20830
883.388	20613
883.514	20800
883.64	20960
883.766	20781
883.892	20693
884.018	20746
884.143	20807
884.269	21047
884.395	20667
884.52	20583
884.646	20640
884.772	20530
884.897	20469
885.023	20518
885.148	20743
885.274	20758
885.399	20541
885.524	20568
885.65	20609
885.775	20530
885.9	20480
886.025	20579
886.15	20644
886.275	20412
886.4	20454
886.525	20511
886.65	20457
886.775	20511
886.9	20667
887.025	20708
887.149	20423
887.274	20473
887.399	20271
887.523	20317
887.648	20351
887.773	20298
887.897	20355
888.021	20343
888.146	20275
888.27	20454
888.395	20423
888.519	20454
888.643	20233
888.767	20377
888.891	20202
889.015	20244
889.139	20096
889.263	20043
889.387	20362
889.511	20233
889.635	20362
889.759	20172
889.883	20161
890.006	20263
890.13	20054
890.254	19959
890.377	20088
890.501	19822
890.624	19883
890.748	19849
890.871	19803
890.995	19651
891.118	19681
891.241	19712
891.364	19799
891.488	19753
891.611	19776
891.734	19597
891.857	19753
891.98	19807
892.103	19795
892.226	19719
892.349	19540
892.471	19495
892.594	19613
892.717	19586
892.839	19624
892.962	19620
893.085	19693
893.207	19586
893.33	19476
893.452	19525
893.575	19635
893.697	19594
893.819	19795
893.941	19719
894.064	19826
894.186	19613
894.308	19495
894.43	19662
894.552	19784
894.674	19643
894.796	19601
894.918	19674
895.04	19556
895.161	19658
895.283	19670
895.405	19620
895.526	19597
895.648	19662
895.769	19700
895.891	19685
896.012	19784
896.134	19597
896.255	19647
896.376	19685
896.498	19632
896.619	19738
896.74	19616
896.861	19628
896.982	19906
897.103	20012
897.224	19784
897.345	19871
897.466	19818
897.587	19925
897.708	20016
897.828	19894
897.949	19734
898.07	19674
898.19	19826
898.311	19837
898.431	19757
898.552	19890
898.672	19890
898.792	19944
898.913	19822
899.033	19769
899.153	19605
899.273	19548
899.393	19693
899.513	19761
899.633	19696
899.753	19487
899.873	19571
899.993	19632
900.113	19575
900.232	19658
900.352	19597
900.472	19430
900.591	19308
900.711	19464
900.83	19209
900.95	19457
901.069	19400
901.189	19282
901.308	19084
901.427	18932
901.546	18970
901.665	19004
901.784	18973
901.904	18837
902.023	18749
902.141	18608
902.26	18464
902.379	18589
902.498	18479
902.617	18486
902.735	18506
902.854	18563
902.973	18372
903.091	18258
903.21	18258
903.328	18095
903.446	18022
903.565	18026
903.683	17958
903.801	17920
903.919	17908
904.038	18038
904.156	17802
904.274	17843
904.392	17752
904.51	17699
904.627	17714
904.745	17798
904.863	17805
904.981	17478
905.098	17440
905.216	17497
905.334	17524
905.451	17398
905.569	17543
905.686	17353
905.803	17505
905.921	17227
906.038	17345
906.155	17303
906.272	17189
906.389	17204
906.506	17014
906.623	17003
906.74	16911
906.857	16892
906.974	16942
907.091	17003
907.208	17155
907.324	16995
907.441	16885
907.557	16717
907.674	16626
907.79	16596
907.907	16725
908.023	16694
908.139	16664
908.256	16592
908.372	16577
908.488	16592
908.604	16459
908.72	16360
908.836	16474
908.952	16375
909.068	16478
909.184	16519
909.3	16421
909.415	16421
909.531	16451
909.647	16135
909.762	16192
909.878	16139
909.993	16230
910.108	16116
910.224	16143
910.339	16055
910.454	15956
910.57	15915
910.685	15876
910.8	16071
910.915	16120
911.03	15892
911.145	15797
911.259	15774
911.374	15694
911.489	15652
911.604	15690
911.718	15450
911.833	15496
911.947	15416
912.062	15332
912.176	15530
912.291	15564
912.405	15466
912.519	15720
912.633	15648
912.748	15526
912.862	15488
912.976	15370
913.09	15249
913.204	15279
913.318	15260
913.431	15321
913.545	15450
913.659	15329
913.772	15260
913.886	15127
914	15070
914.113	15192
914.226	15157
914.34	15226
914.453	15009
914.566	15138
914.68	15005
914.793	14963
914.906	14876
915.019	14743
915.132	14632
915.245	14746
915.358	14716
915.47	14834
915.583	14731
915.696	14701
915.809	14899
915.921	14979
916.034	14583
916.146	14689
916.259	14705
916.371	14727
916.483	14651
916.595	14552
916.708	14514
916.82	14480
916.932	14602
917.044	14434
917.156	14454
917.268	14374
917.38	14431
917.491	14351
917.603	14400
917.715	14434
917.826	14476
917.938	14339
918.049	14225
918.161	14294
918.272	14492
918.384	14400
918.495	14385
918.606	14275
918.717	14103
918.828	14153
918.939	14229
919.05	14073
919.161	14195
919.272	13879
919.383	14024
919.494	14210
919.604	14423
919.715	14240
919.826	14138
919.936	14084
920.047	14202
920.157	14191
920.267	14237
920.378	14111
920.488	14065
920.598	14267
920.708	14374
920.818	14301
920.928	14324
921.038	14434
921.148	14370
921.258	14073
921.368	14024
921.477	13860
921.587	13906
921.697	13757
921.806	13852
921.916	13776
922.025	13518
922.134	13464
922.244	13434
922.353	13575
922.462	13460
922.571	13308
922.68	13190
922.789	13118
922.898	13122
923.007	13126
923.116	13225
923.224	13099
923.333	13164
923.442	13031
923.55	12966
923.659	13069
923.767	13114
923.876	12977
923.984	12996
924.092	12897
924.201	13019
924.309	12909
924.417	12920
924.525	12833
924.633	12920
924.741	13803
924.849	12734
924.956	12802
925.064	12658
925.172	12593
925.279	12608
925.387	12604
925.494	12654
925.602	12631
925.709	12620
925.816	12498
925.924	12517
926.031	12627
926.138	12582
926.245	12582
926.352	12429
926.459	12658
926.566	12654
926.673	12460
926.779	12342
926.886	12372
926.993	12201
927.099	12201
927.206	12140
927.312	12167
927.419	12197
927.525	12159
927.631	12205
927.737	12117
927.843	12030
927.95	11882
928.056	12030
928.162	12007
928.267	12053
928.373	12601
928.479	12106
928.585	11866
928.69	11969
928.796	12076
928.901	11824
929.007	11764
929.112	11817
929.218	11821
929.323	11733
929.428	11699
929.533	11851
929.638	11611
929.743	11767
929.848	11779
929.953	11756
930.058	11585
930.163	11547
930.267	11406
930.372	11573
930.477	11368
930.581	11611
930.685	11501
930.79	11353
930.894	11433
930.998	11216
931.103	11471
931.207	11128
931.311	10999
931.415	10869
931.519	10744
931.623	10683
