Data from test_V78500241_3125.txt Node
Date: Fri Mar 25 16:03:26 CST 2022
User: usil
Spectrometer: V785-0024
Trigger mode: 0
Integration Time (sec): 4.000000E-1
Scans to average: 1
Nonlinearity correction enabled: false
Boxcar width: 0
Storing dark spectrum: false
XAxis mode: Wavelengths
Number of Pixels in Spectrum: 1024
>>>>>Begin Spectral Data<<<<<
801.071	28877
801.214	28809
801.356	28774
801.499	28516
801.641	28413
801.783	28618
801.926	28698
802.068	28440
802.211	28535
802.353	28443
802.496	28226
802.638	28265
802.78	28253
802.923	28112
803.065	27994
803.208	28143
803.35	28325
803.492	28299
803.635	28303
803.777	28314
803.919	28470
804.061	28843
804.204	28531
804.346	28535
804.488	28413
804.63	28489
804.773	28341
804.915	28462
805.057	28653
805.199	28538
805.341	28508
805.483	28649
805.626	28664
805.768	28466
805.91	28698
806.052	28691
806.194	28588
806.336	28748
806.478	28459
806.62	28721
806.762	28809
806.904	28877
807.046	29113
807.188	29105
807.33	29083
807.472	29242
807.614	28968
807.756	29174
807.898	28984
808.04	28938
808.182	28748
808.324	29044
808.465	28965
808.607	29220
808.749	29383
808.891	29493
809.033	29425
809.174	29474
809.316	29383
809.458	29204
809.6	29223
809.741	29421
809.883	29619
810.025	29623
810.166	29680
810.308	29566
810.45	29630
810.591	29539
810.733	29482
810.875	29383
811.016	29273
811.158	29246
811.299	29433
811.441	29490
811.582	29619
811.724	29208
811.865	29429
812.007	29398
812.148	29353
812.29	29478
812.431	29592
812.573	29764
812.714	29855
812.855	29847
812.997	29942
813.138	30045
813.279	29999
813.421	29775
813.562	29821
813.703	29687
813.845	29668
813.986	29296
814.127	29242
814.268	29041
814.41	29159
814.551	29094
814.692	29174
814.833	28923
814.974	28904
815.115	29033
815.256	29022
815.397	28862
815.539	29079
815.68	28862
815.821	28885
815.962	28885
816.103	28961
816.244	28736
816.385	28634
816.526	28565
816.666	28596
816.807	28344
816.948	28356
817.089	28516
817.23	28417
817.371	28367
817.512	28409
817.653	28303
817.793	28382
817.934	28382
818.075	28341
818.216	28447
818.356	28360
818.497	28051
818.638	28109
818.778	28185
818.919	28044
819.06	28162
819.2	28234
819.341	28360
819.481	28519
819.622	28554
819.762	28653
819.903	28702
820.043	28744
820.184	28341
820.324	28561
820.465	28519
820.605	28554
820.746	28538
820.886	28428
821.026	28508
821.167	28481
821.307	28596
821.447	28401
821.588	28310
821.728	28162
821.868	28059
822.008	27895
822.149	27842
822.289	27869
822.429	27633
822.569	27519
822.709	27466
822.849	27450
822.99	27363
823.13	27458
823.27	27367
823.41	27081
823.55	27180
823.69	27268
823.83	27275
823.97	27199
824.11	27017
824.25	26849
824.389	27009
824.529	26982
824.669	27119
824.809	27173
824.949	27085
825.089	27070
825.228	27138
825.368	26971
825.508	26899
825.648	26967
825.787	26937
825.927	26925
826.067	26838
826.206	26925
826.346	27009
826.485	26933
826.625	26857
826.765	26963
826.904	27089
827.044	26895
827.183	26682
827.323	26617
827.462	26636
827.601	26765
827.741	26754
827.88	26815
828.02	26423
828.159	26613
828.298	26613
828.437	26674
828.577	26667
828.716	26636
828.855	26571
828.994	26366
829.134	26450
829.273	26503
829.412	26286
829.551	26309
829.69	26317
829.829	26419
829.968	26355
830.107	26423
830.246	26385
830.385	26202
830.524	26244
830.663	26161
830.802	26012
830.941	25986
831.08	25875
831.219	26084
831.357	26084
831.496	26210
831.635	25966
831.774	25868
831.913	25841
832.051	25727
832.19	25624
832.329	25784
832.467	25628
832.606	25518
832.744	25495
832.883	25670
833.022	25582
833.16	25635
833.299	25643
833.437	25624
833.576	25700
833.714	25620
833.852	25548
833.991	25696
834.129	25788
834.267	25776
834.406	25632
834.544	25662
834.682	25712
834.821	25746
834.959	25849
835.097	25662
835.235	25769
835.373	25757
835.511	25613
835.65	25582
835.788	25396
835.926	25457
836.064	25381
836.202	25304
836.34	25419
836.478	25586
836.615	25460
836.753	25578
836.891	25460
837.029	25529
837.167	25266
837.305	25518
837.443	25464
837.58	25324
837.718	25373
837.856	25392
837.993	25278
838.131	25156
838.269	25129
838.406	25274
838.544	25042
838.681	25042
838.819	24947
838.956	24711
839.094	24749
839.231	24833
839.369	24932
839.506	25247
839.643	25076
839.781	24814
839.918	24525
840.055	24760
840.193	24681
840.33	24658
840.467	24631
840.604	24772
840.742	24973
840.879	24566
841.016	24414
841.153	24509
841.29	24726
841.427	24711
841.564	24681
841.701	24677
841.838	24631
841.975	24547
842.112	24631
842.249	24532
842.385	24502
842.522	24597
842.659	24513
842.796	24540
842.933	24441
843.069	24311
843.206	24372
843.343	24460
843.479	24509
843.616	24330
843.752	24251
843.889	24121
844.025	24262
844.162	24174
844.298	24338
844.435	24224
844.571	24209
844.708	24205
844.844	24346
844.98	24376
845.117	24300
845.253	24140
845.389	24060
845.525	24159
845.661	24098
845.798	23912
845.934	23961
846.07	23973
846.206	24015
846.342	23999
846.478	23824
846.614	23634
846.75	23756
846.886	23638
847.022	23729
847.158	23695
847.294	23741
847.429	23687
847.565	23661
847.701	23908
847.837	23364
847.972	23334
848.108	23471
848.244	23425
848.379	23185
848.515	23250
848.65	23223
848.786	23277
848.921	23303
849.057	23341
849.192	23387
849.328	23227
849.463	23330
849.598	23140
849.734	23143
849.869	23261
850.004	23037
850.14	22968
850.275	23018
850.41	22930
850.545	22972
850.68	22816
850.815	23071
850.95	22987
851.085	23166
851.22	23075
851.355	23098
851.49	23105
851.625	23006
851.76	23029
851.895	22953
852.03	22919
852.165	22980
852.299	23037
852.434	23060
852.569	23018
852.703	22961
852.838	23003
852.973	23113
853.107	23178
853.242	22968
853.376	22946
853.511	22748
853.645	22767
853.78	22896
853.914	22858
854.048	22866
854.183	22831
854.317	22862
854.451	22965
854.585	22793
854.72	22904
854.854	22850
854.988	22790
855.122	22850
855.256	22656
855.39	22752
855.524	22820
855.658	22869
855.792	22934
855.926	22797
856.06	22824
856.194	22987
856.327	22809
856.461	22706
856.595	22847
856.729	22691
856.862	22976
856.996	22923
857.13	22896
857.263	22923
857.397	22877
857.53	22767
857.664	22816
857.797	22934
857.931	22930
858.064	22877
858.197	22923
858.331	22915
858.464	22782
858.597	22740
858.731	22710
858.864	22824
858.997	22790
859.13	22835
859.263	22869
859.396	22877
859.529	22793
859.662	22885
859.795	22752
859.928	22786
860.061	22946
860.194	22930
860.327	22949
860.46	22820
860.592	22896
860.725	23006
860.858	22984
860.99	22767
861.123	22698
861.256	22752
861.388	22774
861.521	23395
861.653	22763
861.786	22596
861.918	22759
862.05	22748
862.183	22710
862.315	22824
862.447	22820
862.58	22835
862.712	22561
862.844	22550
862.976	22577
863.108	22557
863.24	22942
863.372	22455
863.504	22573
863.636	22535
863.768	22542
863.9	22535
864.032	22516
864.164	22459
864.296	22500
864.428	22584
864.559	22744
864.691	22675
864.823	22656
864.954	22634
865.086	22550
865.217	22371
865.349	22348
865.48	22455
865.612	22379
865.743	22470
865.875	22421
866.006	22440
866.137	22379
866.269	22443
866.4	22485
866.531	22154
866.662	22261
866.793	22398
866.924	22265
867.055	22356
867.186	22375
867.317	22333
867.448	22261
867.579	22329
867.71	22253
867.841	22261
867.972	22474
868.103	22287
868.233	22356
868.364	22322
868.495	22382
868.625	22618
868.756	22637
868.886	22584
869.017	22489
869.147	22850
869.278	22675
869.408	22535
869.539	22645
869.669	22592
869.799	22679
869.929	22637
870.06	22637
870.19	22927
870.32	22949
870.45	22881
870.58	22911
870.71	22949
870.84	23193
870.97	22934
871.1	22942
871.23	23166
871.36	23170
871.489	23124
871.619	23189
871.749	23159
871.879	23254
872.008	23292
872.138	23280
872.267	23151
872.397	22953
872.526	22976
872.656	23010
872.785	23048
872.915	23185
873.044	23307
873.173	23140
873.303	23364
873.432	23364
873.561	23322
873.69	23185
873.819	23258
873.948	23223
874.077	23181
874.206	23178
874.335	23185
874.464	23299
874.593	23440
874.722	23448
874.851	23570
874.979	23486
875.108	23353
875.237	23315
875.365	23341
875.494	23345
875.623	23497
875.751	23269
875.88	23421
876.008	23414
876.136	23566
876.265	23764
876.393	23897
876.521	23916
876.65	23942
876.778	23897
876.906	23653
877.034	23665
877.162	23874
877.29	23809
877.418	23874
877.546	23703
877.674	23745
877.802	23672
877.93	23821
878.058	23710
878.185	23562
878.313	23661
878.441	23726
878.568	23535
878.696	23665
878.824	23840
878.951	23802
879.079	23908
879.206	23946
879.333	23958
879.461	23718
879.588	23847
879.715	23855
879.842	24121
879.97	23745
880.097	23566
880.224	23505
880.351	23577
880.478	23623
880.605	23562
880.732	23512
880.859	23817
880.986	23680
881.112	23600
881.239	23425
881.366	23277
881.493	23185
881.619	23231
881.746	23132
881.872	23033
881.999	23083
882.125	23105
882.252	23136
882.378	23041
882.505	23140
882.631	22858
882.757	22736
882.883	22991
883.01	22828
883.136	22702
883.262	22679
883.388	22504
883.514	22805
883.64	22862
883.766	22679
883.892	22615
884.018	22538
884.143	22782
884.269	22790
884.395	22519
884.52	22405
884.646	22527
884.772	22375
884.897	22295
885.023	22284
885.148	22478
885.274	22538
885.399	22565
885.524	22322
885.65	22341
885.775	22413
885.9	22352
886.025	22554
886.15	22447
886.275	22394
886.4	22443
886.525	22409
886.65	22284
886.775	22390
886.9	22470
887.025	22554
887.149	22390
887.274	22207
887.399	22230
887.523	22196
887.648	22291
887.773	22067
887.897	22287
888.021	22188
888.146	22128
888.27	22226
888.395	22242
888.519	22226
888.643	22230
888.767	22059
888.891	22177
889.015	22017
889.139	22006
889.263	21937
889.387	22078
889.511	22131
889.635	22097
889.759	21899
889.883	21945
890.006	22063
890.13	22051
890.254	21915
890.377	21876
890.501	21793
890.624	21701
890.748	21838
890.871	21576
890.995	21561
891.118	21424
891.241	21561
891.364	21454
891.488	21599
891.611	21583
891.734	21519
891.857	21564
891.98	21511
892.103	21515
892.226	21485
892.349	21504
892.471	21447
892.594	21340
892.717	21408
892.839	21488
892.962	21412
893.085	21454
893.207	21401
893.33	21359
893.452	21310
893.575	21439
893.697	21359
893.819	21603
893.941	21698
894.064	21526
894.186	21389
894.308	21344
894.43	21469
894.552	21523
894.674	21458
894.796	21325
894.918	21264
895.04	21374
895.161	21481
895.283	21355
895.405	21321
895.526	21382
895.648	21374
895.769	21401
895.891	21397
896.012	21397
896.134	21466
896.255	21283
896.376	21256
896.498	21370
896.619	21218
896.74	21382
896.861	21424
896.982	21705
897.103	21682
897.224	21663
897.345	21549
897.466	21500
897.587	21629
897.708	21682
897.828	21614
897.949	21523
898.07	21481
898.19	21561
898.311	21701
898.431	21507
898.552	21587
898.672	21587
898.792	21622
898.913	21496
899.033	21408
899.153	21348
899.273	21272
899.393	21325
899.513	21306
899.633	21325
899.753	21302
899.873	21169
899.993	21283
900.113	21268
900.232	21165
900.352	21184
900.472	21138
900.591	20967
900.711	21017
900.83	20944
900.95	21135
901.069	21108
901.189	20883
901.308	20720
901.427	20587
901.546	20735
901.665	20632
901.784	20659
901.904	20415
902.023	20404
902.141	20202
902.26	20130
902.379	20252
902.498	20176
902.617	20138
902.735	20027
902.854	20043
902.973	20062
903.091	19723
903.21	19814
903.328	19856
903.446	19635
903.565	19651
903.683	19750
903.801	19521
903.919	19559
904.038	19533
904.156	19320
904.274	19381
904.392	19320
904.51	19285
904.627	19251
904.745	19403
904.863	19343
904.981	19114
905.098	19012
905.216	18981
905.334	19012
905.451	18996
905.569	18939
905.686	18951
905.803	18951
905.921	18768
906.038	18798
906.155	18821
906.272	18646
906.389	18730
906.506	18460
906.623	18525
906.74	18593
906.857	18353
906.974	18380
907.091	18566
907.208	18631
907.324	18536
907.441	18300
907.557	18216
907.674	18273
907.79	18186
907.907	18338
908.023	18273
908.139	18232
908.256	18171
908.372	18102
908.488	18057
908.604	18049
908.72	17942
908.836	17912
908.952	17802
909.068	17965
909.184	18053
909.3	17969
909.415	17942
909.531	17931
909.647	17710
909.762	17581
909.878	17672
909.993	17581
910.108	17592
910.224	17558
910.339	17608
910.454	17452
910.57	17448
910.685	17398
910.8	17585
910.915	17436
911.03	17360
911.145	17200
911.259	17231
911.374	17166
911.489	17109
911.604	17029
911.718	16927
911.833	16946
911.947	16759
912.062	16862
912.176	16900
912.291	16957
912.405	16984
912.519	17029
912.633	17124
912.748	17014
912.862	16793
912.976	16603
913.09	16611
913.204	16603
913.318	16725
913.431	16908
913.545	16797
913.659	16858
913.772	16710
913.886	16405
914	16599
914.113	16687
914.226	16580
914.34	16599
914.453	16337
914.566	16508
914.68	16375
914.793	16382
914.906	16185
915.019	16097
915.132	16063
915.245	16048
915.358	16124
915.47	16006
915.583	16040
915.696	16105
915.809	16188
915.921	16337
916.034	16032
916.146	15968
916.259	15975
916.371	16112
916.483	16078
916.595	15915
916.708	15873
916.82	15953
916.932	15880
917.044	15895
917.156	15724
917.268	15728
917.38	15781
917.491	15690
917.603	15633
917.715	15869
917.826	15876
917.938	15679
918.049	15561
918.161	15667
918.272	15694
918.384	15819
918.495	15603
918.606	15542
918.717	15420
918.828	15477
918.939	15477
919.05	15351
919.161	15389
919.272	15283
919.383	15298
919.494	15469
919.604	15663
919.715	15336
919.826	15340
919.936	15230
920.047	15443
920.157	15431
920.267	15572
920.378	15439
920.488	15355
920.598	15481
920.708	15709
920.818	15523
920.928	15542
921.038	15618
921.148	15610
921.258	15287
921.368	15222
921.477	15074
921.587	15047
921.697	15062
921.806	15127
921.916	14933
922.025	14868
922.134	14621
922.244	14659
922.353	14746
922.462	14549
922.571	14583
922.68	14336
922.789	14412
922.898	14427
923.007	14298
923.116	14423
923.224	14339
923.333	14355
923.442	14233
923.55	14176
923.659	14221
923.767	14263
923.876	14016
923.984	14252
924.092	14088
924.201	14134
924.309	14073
924.417	14161
924.525	13959
924.633	13986
924.741	14785
924.849	13852
924.956	13856
925.064	13833
925.172	13738
925.279	13727
925.387	13879
925.494	13734
925.602	13841
925.709	13757
925.816	13590
925.924	13700
926.031	13734
926.138	13620
926.245	13757
926.352	13639
926.459	13708
926.566	13727
926.673	13647
926.779	13552
926.886	13495
926.993	13312
927.099	13331
927.206	13240
927.312	13240
927.419	13270
927.525	13297
927.631	13285
927.737	13141
927.843	13088
927.95	13004
928.056	13198
928.162	13084
928.267	13110
928.373	13795
928.479	13171
928.585	12909
928.69	12947
928.796	13107
928.901	12871
929.007	12764
929.112	12932
929.218	12894
929.323	12814
929.428	12726
929.533	12909
929.638	12768
929.743	12669
929.848	12768
929.953	12810
930.058	12631
930.163	12506
930.267	12464
930.372	12612
930.477	12429
930.581	12684
930.685	12433
930.79	12346
930.894	12395
930.998	12289
931.103	12471
931.207	12110
931.311	12030
931.415	11908
931.519	11790
931.623	11676
