Data from test_V78500241_693.txt Node
Date: Fri Mar 25 15:46:36 CST 2022
User: usil
Spectrometer: V785-0024
Trigger mode: 0
Integration Time (sec): 4.000000E-1
Scans to average: 1
Nonlinearity correction enabled: false
Boxcar width: 0
Storing dark spectrum: false
XAxis mode: Wavelengths
Number of Pixels in Spectrum: 1024
>>>>>Begin Spectral Data<<<<<
801.071	27823
801.214	27869
801.356	27644
801.499	27481
801.641	27424
801.783	27321
801.926	27557
802.068	27500
802.211	27431
802.353	27275
802.496	27074
802.638	27112
802.78	27051
802.923	27074
803.065	27093
803.208	27222
803.35	27237
803.492	27249
803.635	27374
803.777	27252
803.919	27340
804.061	27530
804.204	27291
804.346	27184
804.488	27218
804.63	27336
804.773	27157
804.915	27454
805.057	27545
805.199	27321
805.341	27389
805.483	27389
805.626	27427
805.768	27260
805.91	27427
806.052	27435
806.194	27488
806.336	27682
806.478	27492
806.62	27424
806.762	27629
806.904	27823
807.046	28010
807.188	27854
807.33	27785
807.472	27911
807.614	27831
807.756	27861
807.898	27591
808.04	27652
808.182	27660
808.324	27762
808.465	27808
808.607	28032
808.749	28013
808.891	28105
809.033	28173
809.174	28158
809.316	28013
809.458	28051
809.6	28215
809.741	28215
809.883	28188
810.025	28276
810.166	28211
810.308	28375
810.45	28215
810.591	28272
810.733	28116
810.875	28090
811.016	27953
811.158	28063
811.299	28207
811.441	28371
811.582	28386
811.724	28139
811.865	28051
812.007	27979
812.148	28048
812.29	28120
812.431	28249
812.573	28462
812.714	28485
812.855	28637
812.997	28706
813.138	28934
813.279	28755
813.421	28687
813.562	28626
813.703	28508
813.845	28333
813.986	28074
814.127	27991
814.268	27785
814.41	27785
814.551	27766
814.692	27873
814.833	27804
814.974	27747
815.115	27781
815.256	27762
815.397	27739
815.539	27652
815.68	27553
815.821	27408
815.962	27675
816.103	27591
816.244	27424
816.385	27321
816.526	27363
816.666	27302
816.807	27112
816.948	27150
817.089	27249
817.23	27138
817.371	26982
817.512	27104
817.653	27077
817.793	27009
817.934	27096
818.075	27112
818.216	27062
818.356	27123
818.497	26895
818.638	26811
818.778	26785
818.919	26781
819.06	26796
819.2	27081
819.341	27066
819.481	27077
819.622	27313
819.762	27439
819.903	27351
820.043	27241
820.184	27108
820.324	27161
820.465	27226
820.605	27233
820.746	27150
820.886	26975
821.026	27142
821.167	27096
821.307	27336
821.447	27268
821.588	26937
821.728	26845
821.868	26823
822.008	26640
822.149	26518
822.289	26492
822.429	26298
822.569	26355
822.709	26271
822.849	26065
822.99	26214
823.13	26084
823.27	26092
823.41	25818
823.55	25788
823.69	25951
823.83	25989
823.97	25902
824.11	25613
824.25	25742
824.389	25647
824.529	25849
824.669	25632
824.809	25780
824.949	25822
825.089	25761
825.228	25772
825.368	25586
825.508	25616
825.648	25548
825.787	25685
825.927	25658
826.067	25556
826.206	25639
826.346	25750
826.485	25601
826.625	25479
826.765	25674
826.904	25609
827.044	25365
827.183	25411
827.323	25289
827.462	25392
827.601	25320
827.741	25327
827.88	25209
828.02	25164
828.159	25247
828.298	25304
828.437	25415
828.577	25270
828.716	25316
828.855	25297
828.994	25015
829.134	25133
829.273	25015
829.412	25034
829.551	24909
829.69	24989
829.829	25004
829.968	24985
830.107	25168
830.246	25015
830.385	24954
830.524	24859
830.663	24757
830.802	24745
830.941	24601
831.08	24460
831.219	24677
831.357	24688
831.496	24795
831.635	24551
831.774	24570
831.913	24490
832.051	24395
832.19	24319
832.329	24414
832.467	24330
832.606	24224
832.744	24262
832.883	24194
833.022	24216
833.16	24315
833.299	24365
833.437	24369
833.576	24426
833.714	24361
833.852	24376
833.991	24296
834.129	24369
834.267	24494
834.406	24486
834.544	24281
834.682	24380
834.821	24361
834.959	24464
835.097	24220
835.235	24319
835.373	24289
835.511	24369
835.65	24152
835.788	24197
835.926	24011
836.064	24091
836.202	24095
836.34	24159
836.478	24262
836.615	24216
836.753	24018
836.891	24350
837.029	24167
837.167	23988
837.305	24038
837.443	24045
837.58	23912
837.718	23954
837.856	24049
837.993	23805
838.131	23897
838.269	23958
838.406	23897
838.544	23783
838.681	23707
838.819	23657
838.956	23482
839.094	23444
839.231	23512
839.369	23684
839.506	23920
839.643	23710
839.781	23448
839.918	23471
840.055	23490
840.193	23391
840.33	23497
840.467	23395
840.604	23429
840.742	23619
840.879	23269
841.016	23277
841.153	23284
841.29	23417
841.427	23311
841.564	23383
841.701	23330
841.838	23261
841.975	23398
842.112	23376
842.249	23223
842.385	23041
842.522	23436
842.659	23071
842.796	23117
842.933	23041
843.069	23140
843.206	23170
843.343	23277
843.479	23113
843.616	23029
843.752	22991
843.889	22987
844.025	23006
844.162	22927
844.298	23128
844.435	22892
844.571	22900
844.708	22930
844.844	23109
844.98	22991
845.117	23075
845.253	22957
845.389	22672
845.525	22809
845.661	22687
845.798	22664
845.934	22675
846.07	22668
846.206	22653
846.342	22782
846.478	22565
846.614	22485
846.75	22223
846.886	22344
847.022	22478
847.158	22398
847.294	22440
847.429	22474
847.565	22322
847.701	22607
847.837	22120
847.972	22162
848.108	22367
848.244	22082
848.379	22010
848.515	21884
848.65	22017
848.786	22006
848.921	21994
849.057	22101
849.192	22013
849.328	22070
849.463	21880
849.598	21789
849.734	21869
849.869	21835
850.004	21766
850.14	21751
850.275	21694
850.41	21675
850.545	21663
850.68	21519
850.815	21895
850.95	21652
851.085	21888
851.22	21835
851.355	21717
851.49	21694
851.625	21686
851.76	21739
851.895	21679
852.03	21603
852.165	21823
852.299	21797
852.434	21857
852.569	21823
852.703	21656
852.838	21766
852.973	21979
853.107	21816
853.242	21561
853.376	21572
853.511	21477
853.645	21587
853.78	21614
853.914	21561
854.048	21568
854.183	21572
854.317	21641
854.451	21705
854.585	21614
854.72	21576
854.854	21572
854.988	21462
855.122	21424
855.256	21454
855.39	21530
855.524	21625
855.658	21538
855.792	21618
855.926	21519
856.06	21454
856.194	21656
856.327	21504
856.461	21511
856.595	21492
856.729	21488
856.862	21637
856.996	21580
857.13	21557
857.263	21652
857.397	21694
857.53	21511
857.664	21606
857.797	21644
857.931	21625
858.064	21633
858.197	21698
858.331	21538
858.464	21507
858.597	21511
858.731	21439
858.864	21561
858.997	21507
859.13	21477
859.263	21534
859.396	21762
859.529	21523
859.662	21443
859.795	21492
859.928	21614
860.061	21747
860.194	21736
860.327	21648
860.46	21504
860.592	21595
860.725	21713
860.858	21641
860.99	21648
861.123	21469
861.256	21435
861.388	21519
861.521	22223
861.653	21439
861.786	21363
861.918	21435
862.05	21386
862.183	21462
862.315	21591
862.447	21557
862.58	21591
862.712	21272
862.844	21203
862.976	21325
863.108	21424
863.24	21698
863.372	21199
863.504	21154
863.636	21135
863.768	21268
863.9	21230
864.032	21264
864.164	21176
864.296	21241
864.428	21355
864.559	21374
864.691	21386
864.823	21279
864.954	21165
865.086	21260
865.217	21180
865.349	21150
865.48	21138
865.612	21161
865.743	21283
865.875	21241
866.006	21070
866.137	21062
866.269	21192
866.4	21161
866.531	21047
866.662	20883
866.793	21077
866.924	21085
867.055	21184
867.186	21108
867.317	21036
867.448	20906
867.579	21017
867.71	21020
867.841	20849
867.972	21020
868.103	20994
868.233	21093
868.364	21138
868.495	21154
868.625	21176
868.756	21310
868.886	21370
869.017	21272
869.147	21431
869.278	21408
869.408	21298
869.539	21310
869.669	21447
869.799	21450
869.929	21382
870.06	21397
870.19	21701
870.32	21473
870.45	21637
870.58	21812
870.71	21827
870.84	21800
870.97	21641
871.1	21778
871.23	21926
871.36	22017
871.489	21823
871.619	21861
871.749	21850
871.879	21857
872.008	22101
872.138	21865
872.267	21850
872.397	21884
872.526	21667
872.656	21800
872.785	21804
872.915	21804
873.044	21918
873.173	22082
873.303	22048
873.432	22048
873.561	22059
873.69	21964
873.819	21926
873.948	21949
874.077	21937
874.206	21960
874.335	21945
874.464	22055
874.593	22215
874.722	22181
874.851	22226
874.979	22207
875.108	22135
875.237	22120
875.365	22135
875.494	22135
875.623	22268
875.751	22101
875.88	22078
876.008	22337
876.136	22440
876.265	22607
876.393	22683
876.521	22565
876.65	22649
876.778	22615
876.906	22409
877.034	22557
877.162	22478
877.29	22409
877.418	22580
877.546	22607
877.674	22440
877.802	22508
877.93	22451
878.058	22481
878.185	22405
878.313	22405
878.441	22542
878.568	22303
878.696	22367
878.824	22516
878.951	22649
879.079	22698
879.206	22843
879.333	22634
879.461	22588
879.588	22694
879.715	22683
879.842	22729
879.97	22710
880.097	22303
880.224	22322
880.351	22413
880.478	22519
880.605	22303
880.732	22333
880.859	22557
880.986	22405
881.112	22405
881.239	22234
881.366	22185
881.493	21991
881.619	21987
881.746	21949
881.872	21842
881.999	21930
882.125	21778
882.252	21998
882.378	22013
882.505	21968
882.631	21736
882.757	21766
882.883	21667
883.01	21580
883.136	21523
883.262	21485
883.388	21458
883.514	21603
883.64	21500
883.766	21462
883.892	21431
884.018	21420
884.143	21549
884.269	21629
884.395	21374
884.52	21252
884.646	21294
884.772	21298
884.897	21245
885.023	21382
885.148	21408
885.274	21378
885.399	21291
885.524	21298
885.65	21264
885.775	21116
885.9	21256
886.025	21298
886.15	21252
886.275	21154
886.4	21135
886.525	21180
886.65	21207
886.775	21142
886.9	21310
887.025	21428
887.149	21283
887.274	21005
887.399	21066
887.523	20937
887.648	20979
887.773	20918
887.897	21017
888.021	21001
888.146	20963
888.27	21013
888.395	21169
888.519	21032
888.643	21074
888.767	21024
888.891	20872
889.015	20823
889.139	20857
889.263	20895
889.387	20826
889.511	21013
889.635	20933
889.759	20891
889.883	20811
890.006	20864
890.13	20906
890.254	20781
890.377	20674
890.501	20556
890.624	20556
890.748	20644
890.871	20473
890.995	20339
891.118	20336
891.241	20423
891.364	20385
891.488	20415
891.611	20377
891.734	20431
891.857	20530
891.98	20374
892.103	20370
892.226	20480
892.349	20313
892.471	20172
892.594	20199
892.717	20282
892.839	20221
892.962	20229
893.085	20393
893.207	20267
893.33	20077
893.452	20176
893.575	20218
893.697	20218
893.819	20442
893.941	20556
894.064	20434
894.186	20237
894.308	20161
894.43	20336
894.552	20324
894.674	20423
894.796	20149
894.918	20180
895.04	20126
895.161	20324
895.283	20343
895.405	20278
895.526	20168
895.648	20259
895.769	20457
895.891	20396
896.012	20480
896.134	20389
896.255	20282
896.376	20233
896.498	20275
896.619	20374
896.74	20237
896.861	20324
896.982	20564
897.103	20762
897.224	20541
897.345	20480
897.466	20434
897.587	20415
897.708	20541
897.828	20556
897.949	20427
898.07	20385
898.19	20396
898.311	20533
898.431	20355
898.552	20423
898.672	20590
898.792	20552
898.913	20507
899.033	20404
899.153	20237
899.273	20233
899.393	20202
899.513	20305
899.633	20199
899.753	20157
899.873	20298
899.993	20195
900.113	20145
900.232	20248
900.352	20229
900.472	20062
900.591	19963
900.711	20031
900.83	20020
900.95	20107
901.069	20058
901.189	19890
901.308	19681
901.427	19548
901.546	19609
901.665	19578
901.784	19575
901.904	19487
902.023	19301
902.141	19171
902.26	19095
902.379	19198
902.498	19091
902.617	19027
902.735	19091
902.854	19084
902.973	18962
903.091	18817
903.21	18753
903.328	18764
903.446	18544
903.565	18574
903.683	18479
903.801	18448
903.919	18521
904.038	18486
904.156	18330
904.274	18422
904.392	18346
904.51	18243
904.627	18235
904.745	18338
904.863	18456
904.981	18171
905.098	17958
905.216	18057
905.334	18114
905.451	18026
905.569	17939
905.686	18190
905.803	17988
905.921	17813
906.038	17870
906.155	17946
906.272	17691
906.389	17813
906.506	17512
906.623	17532
906.74	17657
906.857	17391
906.974	17611
907.091	17570
907.208	17634
907.324	17554
907.441	17554
907.557	17273
907.674	17322
907.79	17083
907.907	17296
908.023	17273
908.139	17273
908.256	17216
908.372	17109
908.488	17094
908.604	16987
908.72	16980
908.836	16984
908.952	16923
909.068	16942
909.184	17128
909.3	16923
909.415	16991
909.531	16980
909.647	16752
909.762	16763
909.878	16656
909.993	16580
910.108	16649
910.224	16660
910.339	16656
910.454	16615
910.57	16421
910.685	16409
910.8	16748
910.915	16694
911.03	16626
911.145	16303
911.259	16333
911.374	16265
911.489	16230
911.604	16249
911.718	16055
911.833	16093
911.947	15930
912.062	15816
912.176	16021
912.291	16002
912.405	16078
912.519	16276
912.633	16303
912.748	16025
912.862	16013
912.976	15873
913.09	15751
913.204	15808
913.318	15869
913.431	15972
913.545	15903
913.659	15918
913.772	15827
913.886	15701
914	15667
914.113	15739
914.226	15739
914.34	15770
914.453	15553
914.566	15629
914.68	15504
914.793	15557
914.906	15294
915.019	15252
915.132	15256
915.245	15176
915.358	15393
915.47	15241
915.583	15199
915.696	15260
915.809	15386
915.921	15268
916.034	15135
916.146	15127
916.259	15081
916.371	15119
916.483	15188
916.595	15074
916.708	15036
916.82	15077
916.932	15077
917.044	15066
917.156	14960
917.268	14880
917.38	14914
917.491	14941
917.603	14899
917.715	14933
917.826	14963
917.938	14785
918.049	14849
918.161	14849
918.272	14963
918.384	14960
918.495	14739
918.606	14606
918.717	14590
918.828	14705
918.939	14674
919.05	14530
919.161	14621
919.272	14434
919.383	14537
919.494	14678
919.604	14937
919.715	14667
919.826	14571
919.936	14549
920.047	14686
920.157	14640
920.267	14788
920.378	14606
920.488	14545
920.598	14746
920.708	14929
920.818	14720
920.928	14724
921.038	14971
921.148	14804
921.258	14632
921.368	14446
921.477	14412
921.587	14328
921.697	14180
921.806	14298
921.916	14248
922.025	14073
922.134	14084
922.244	14008
922.353	14008
922.462	13883
922.571	13818
922.68	13700
922.789	13578
922.898	13563
923.007	13624
923.116	13628
923.224	13586
923.333	13529
923.442	13445
923.55	13430
923.659	13472
923.767	13514
923.876	13514
923.984	13449
924.092	13365
924.201	13400
924.309	13324
924.417	13388
924.525	13308
924.633	13350
924.741	14145
924.849	13053
924.956	13293
925.064	13008
925.172	13072
925.279	13126
925.387	13065
925.494	13110
925.602	13133
925.709	13012
925.816	12943
925.924	12966
926.031	13072
926.138	12943
926.245	13000
926.352	12951
926.459	13004
926.566	13008
926.673	12905
926.779	12749
926.886	12901
926.993	12604
927.099	12642
927.206	12547
927.312	12498
927.419	12642
927.525	12631
927.631	12696
927.737	12475
927.843	12437
927.95	12308
928.056	12323
928.162	12441
928.267	12456
928.373	13179
928.479	12475
928.585	12136
928.69	12353
928.796	12388
928.901	12277
929.007	12175
929.112	12300
929.218	12289
929.323	12171
929.428	12167
929.533	12247
929.638	12079
929.743	12197
929.848	12117
929.953	12167
930.058	11946
930.163	11809
930.267	11969
930.372	11958
930.477	11821
930.581	11996
930.685	11866
930.79	11745
930.894	11798
930.998	11649
931.103	11847
931.207	11490
931.311	11395
931.415	11318
931.519	11208
931.623	11090
