Data from test_V78500241_445.txt Node
Date: Fri Mar 25 15:44:53 CST 2022
User: usil
Spectrometer: V785-0024
Trigger mode: 0
Integration Time (sec): 4.000000E-1
Scans to average: 1
Nonlinearity correction enabled: false
Boxcar width: 0
Storing dark spectrum: false
XAxis mode: Wavelengths
Number of Pixels in Spectrum: 1024
>>>>>Begin Spectral Data<<<<<
801.071	27972
801.214	27941
801.356	27686
801.499	27618
801.641	27485
801.783	27538
801.926	27660
802.068	27587
802.211	27549
802.353	27412
802.496	27237
802.638	27142
802.78	27135
802.923	27123
803.065	27055
803.208	27043
803.35	27256
803.492	27089
803.635	27230
803.777	27081
803.919	27230
804.061	27599
804.204	27359
804.346	27070
804.488	27279
804.63	27252
804.773	26967
804.915	27237
805.057	27317
805.199	27192
805.341	27291
805.483	27401
805.626	27283
805.768	27378
805.91	27310
806.052	27332
806.194	27348
806.336	27595
806.478	27477
806.62	27336
806.762	27477
806.904	27644
807.046	27949
807.188	27937
807.33	27660
807.472	27797
807.614	27606
807.756	27728
807.898	27633
808.04	27523
808.182	27568
808.324	27701
808.465	27606
808.607	27781
808.749	27968
808.891	28002
809.033	28196
809.174	28097
809.316	28150
809.458	27960
809.6	28021
809.741	28055
809.883	28082
810.025	28249
810.166	28230
810.308	28234
810.45	28147
810.591	28181
810.733	28010
810.875	27842
811.016	27797
811.158	27816
811.299	28074
811.441	28116
811.582	28124
811.724	27888
811.865	27842
812.007	27968
812.148	27968
812.29	27983
812.431	28044
812.573	28116
812.714	28379
812.855	28493
812.997	28516
813.138	28767
813.279	28516
813.421	28485
813.562	28466
813.703	28352
813.845	28002
813.986	27899
814.127	27667
814.268	27507
814.41	27576
814.551	27549
814.692	27648
814.833	27568
814.974	27629
815.115	27652
815.256	27408
815.397	27473
815.539	27386
815.68	27374
815.821	27127
815.962	27275
816.103	27310
816.244	27207
816.385	27131
816.526	27039
816.666	26940
816.807	26902
816.948	26788
817.089	26914
817.23	26975
817.371	26811
817.512	26815
817.653	26872
817.793	26807
817.934	26781
818.075	26811
818.216	26743
818.356	26777
818.497	26697
818.638	26625
818.778	26568
818.919	26499
819.06	26613
819.2	26651
819.341	26781
819.481	26758
819.622	26887
819.762	26986
819.903	27047
820.043	26956
820.184	26750
820.324	26864
820.465	26906
820.605	26933
820.746	26792
820.886	26804
821.026	26929
821.167	26823
821.307	26971
821.447	26788
821.588	26636
821.728	26457
821.868	26294
822.008	26244
822.149	26256
822.289	26153
822.429	26001
822.569	25837
822.709	25940
822.849	25772
822.99	25674
823.13	25685
823.27	25552
823.41	25502
823.55	25308
823.69	25506
823.83	25525
823.97	25362
824.11	25297
824.25	25255
824.389	25206
824.529	25415
824.669	25388
824.809	25521
824.949	25316
825.089	25495
825.228	25457
825.368	25175
825.508	25046
825.648	25076
825.787	25228
825.927	25099
826.067	25114
826.206	25088
826.346	25129
826.485	25259
826.625	25145
826.765	25145
826.904	25179
827.044	25023
827.183	24890
827.323	24802
827.462	24859
827.601	24798
827.741	24749
827.88	24916
828.02	24574
828.159	24814
828.298	24844
828.437	24825
828.577	24726
828.716	24924
828.855	24734
828.994	24460
829.134	24582
829.273	24513
829.412	24464
829.551	24422
829.69	24642
829.829	24574
829.968	24578
830.107	24730
830.246	24555
830.385	24388
830.524	24490
830.663	24289
830.802	24258
830.941	24068
831.08	23916
831.219	24110
831.357	24190
831.496	24289
831.635	24034
831.774	23965
831.913	23878
832.051	23901
832.19	23832
832.329	23843
832.467	23775
832.606	23707
832.744	23802
832.883	23748
833.022	23653
833.16	23741
833.299	23798
833.437	23764
833.576	23874
833.714	23866
833.852	23863
833.991	23882
834.129	23870
834.267	23904
834.406	23790
834.544	23756
834.682	23718
834.821	23771
834.959	23996
835.097	23562
835.235	23775
835.373	23726
835.511	23722
835.65	23665
835.788	23649
835.926	23444
836.064	23520
836.202	23436
836.34	23589
836.478	23558
836.615	23589
836.753	23566
836.891	23528
837.029	23577
837.167	23634
837.305	23539
837.443	23459
837.58	23387
837.718	23680
837.856	23493
837.993	23391
838.131	23402
838.269	23387
838.406	23254
838.544	23273
838.681	23140
838.819	23037
838.956	22881
839.094	22892
839.231	22942
839.369	23041
839.506	23280
839.643	23056
839.781	22858
839.918	22908
840.055	22843
840.193	22759
840.33	22778
840.467	22717
840.604	22957
840.742	23048
840.879	22634
841.016	22778
841.153	22717
841.29	22930
841.427	22729
841.564	22809
841.701	22748
841.838	22729
841.975	22675
842.112	22721
842.249	22675
842.385	22424
842.522	22771
842.659	22634
842.796	22462
842.933	22470
843.069	22398
843.206	22527
843.343	22573
843.479	22546
843.616	22474
843.752	22314
843.889	22337
844.025	22428
844.162	22188
844.298	22424
844.435	22143
844.571	22234
844.708	22238
844.844	22390
844.98	22443
845.117	22390
845.253	22265
845.389	22219
845.525	22082
845.661	22120
845.798	21979
845.934	22032
846.07	22006
846.206	22097
846.342	22310
846.478	21895
846.614	21759
846.75	21606
846.886	21698
847.022	21774
847.158	21701
847.294	21679
847.429	21743
847.565	21755
847.701	22002
847.837	21515
847.972	21393
848.108	21564
848.244	21416
848.379	21310
848.515	21340
848.65	21264
848.786	21233
848.921	21359
849.057	21321
849.192	21351
849.328	21431
849.463	21313
849.598	21344
849.734	21279
849.869	21074
850.004	21070
850.14	20944
850.275	21077
850.41	21043
850.545	20986
850.68	21066
850.815	21062
850.95	21214
851.085	21226
851.22	21226
851.355	21165
851.49	21138
851.625	21142
851.76	20982
851.895	21089
852.03	20986
852.165	21127
852.299	21245
852.434	21146
852.569	21032
852.703	21112
852.838	21096
852.973	21104
853.107	21226
853.242	20994
853.376	20872
853.511	20735
853.645	20800
853.78	20967
853.914	20842
854.048	20842
854.183	20750
854.317	20876
854.451	21043
854.585	20811
854.72	20845
854.854	20906
854.988	20933
855.122	20796
855.256	20830
855.39	20887
855.524	20864
855.658	20811
855.792	20933
855.926	20845
856.06	20941
856.194	20906
856.327	20872
856.461	20883
856.595	20914
856.729	20823
856.862	20925
856.996	21089
857.13	20887
857.263	20994
857.397	20998
857.53	20861
857.664	20956
857.797	20967
857.931	20849
858.064	20857
858.197	20967
858.331	20880
858.464	20716
858.597	20613
858.731	20861
858.864	20880
858.997	20868
859.13	20937
859.263	20731
859.396	20891
859.529	20781
859.662	20830
859.795	20823
859.928	20937
860.061	20990
860.194	20990
860.327	20895
860.46	20914
860.592	20918
860.725	20986
860.858	20853
860.99	20902
861.123	20826
861.256	20906
861.388	20834
861.521	21485
861.653	20636
861.786	20697
861.918	20735
862.05	20762
862.183	20720
862.315	20891
862.447	20883
862.58	20765
862.712	20556
862.844	20511
862.976	20686
863.108	20693
863.24	20986
863.372	20533
863.504	20617
863.636	20575
863.768	20606
863.9	20514
864.032	20473
864.164	20469
864.296	20667
864.428	20629
864.559	20659
864.691	20667
864.823	20575
864.954	20655
865.086	20632
865.217	20438
865.349	20412
865.48	20427
865.612	20476
865.743	20579
865.875	20454
866.006	20400
866.137	20473
866.269	20583
866.4	20454
866.531	20328
866.662	20408
866.793	20446
866.924	20427
867.055	20457
867.186	20313
867.317	20393
867.448	20320
867.579	20389
867.71	20339
867.841	20252
867.972	20393
868.103	20358
868.233	20351
868.364	20396
868.495	20476
868.625	20606
868.756	20689
868.886	20651
869.017	20640
869.147	20682
869.278	20716
869.408	20743
869.539	20625
869.669	20781
869.799	20678
869.929	20792
870.06	20708
870.19	20876
870.32	20883
870.45	20891
870.58	21001
870.71	21051
870.84	20998
870.97	21017
871.1	21119
871.23	21348
871.36	21150
871.489	21173
871.619	21199
871.749	21104
871.879	21298
872.008	21321
872.138	21268
872.267	21207
872.397	21226
872.526	21051
872.656	21013
872.785	21093
872.915	21298
873.044	21332
873.173	21298
873.303	21264
873.432	21367
873.561	21332
873.69	21169
873.819	21237
873.948	21325
874.077	21367
874.206	21180
874.335	21195
874.464	21393
874.593	21500
874.722	21496
874.851	21466
874.979	21545
875.108	21553
875.237	21485
875.365	21367
875.494	21435
875.623	21545
875.751	21462
875.88	21515
876.008	21553
876.136	21736
876.265	21789
876.393	22006
876.521	22074
876.65	21892
876.778	21956
876.906	21865
877.034	21857
877.162	21854
877.29	21709
877.418	21827
877.546	21869
877.674	21869
877.802	21842
877.93	21827
878.058	21698
878.185	21698
878.313	21827
878.441	21934
878.568	21766
878.696	21713
878.824	21838
878.951	21778
879.079	22017
879.206	22109
879.333	22150
879.461	21907
879.588	22044
879.715	22067
879.842	22185
879.97	21850
880.097	21698
880.224	21732
880.351	21648
880.478	21743
880.605	21610
880.732	21599
880.859	21930
880.986	21728
881.112	21720
881.239	21557
881.366	21367
881.493	21405
881.619	21363
881.746	21298
881.872	21279
881.999	21104
882.125	21173
882.252	21397
882.378	21203
882.505	21359
882.631	21081
882.757	20895
882.883	21077
883.01	20952
883.136	20975
883.262	20891
883.388	20743
883.514	21020
883.64	20921
883.766	20906
883.892	20929
884.018	20758
884.143	20960
884.269	21017
884.395	20564
884.52	20625
884.646	20667
884.772	20499
884.897	20526
885.023	20568
885.148	20720
885.274	20689
885.399	20754
885.524	20564
885.65	20644
885.775	20590
885.9	20625
886.025	20583
886.15	20659
886.275	20522
886.4	20480
886.525	20511
886.65	20533
886.775	20560
886.9	20769
887.025	20758
887.149	20568
887.274	20415
887.399	20278
887.523	20396
887.648	20313
887.773	20263
887.897	20419
888.021	20518
888.146	20374
888.27	20457
888.395	20393
888.519	20374
888.643	20473
888.767	20347
888.891	20309
889.015	20259
889.139	20195
889.263	20145
889.387	20248
889.511	20374
889.635	20389
889.759	20130
889.883	20187
890.006	20050
890.13	20176
890.254	20016
890.377	20065
890.501	19955
890.624	19807
890.748	19849
890.871	19883
890.995	19677
891.118	19674
891.241	19738
891.364	19784
891.488	19811
891.611	19696
891.734	19723
891.857	19780
891.98	19662
892.103	19898
892.226	19715
892.349	19742
892.471	19548
892.594	19578
892.717	19670
892.839	19559
892.962	19700
893.085	19712
893.207	19753
893.33	19552
893.452	19533
893.575	19757
893.697	19628
893.819	19833
893.941	19788
894.064	19738
894.186	19578
894.308	19578
894.43	19776
894.552	19852
894.674	19731
894.796	19441
894.918	19514
895.04	19556
895.161	19708
895.283	19742
895.405	19548
895.526	19609
895.648	19624
895.769	19662
895.891	19685
896.012	19769
896.134	19658
896.255	19708
896.376	19655
896.498	19639
896.619	19761
896.74	19609
896.861	19750
896.982	19986
897.103	20138
897.224	20058
897.345	19947
897.466	19875
897.587	19936
897.708	20062
897.828	19845
897.949	19967
898.07	19830
898.19	19814
898.311	20001
898.431	19898
898.552	19993
898.672	19928
898.792	19898
898.913	19947
899.033	19856
899.153	19586
899.273	19552
899.393	19674
899.513	19674
899.633	19734
899.753	19693
899.873	19632
899.993	19685
900.113	19632
900.232	19597
900.352	19540
900.472	19453
900.591	19518
900.711	19365
900.83	19495
900.95	19571
901.069	19529
901.189	19377
901.308	19133
901.427	19004
901.546	19038
901.665	18935
901.784	19053
901.904	18890
902.023	18806
902.141	18612
902.26	18460
902.379	18658
902.498	18544
902.617	18563
902.735	18570
902.854	18528
902.973	18441
903.091	18171
903.21	18178
903.328	18311
903.446	18159
903.565	17961
903.683	18003
903.801	17885
903.919	18034
904.038	18083
904.156	17843
904.274	17969
904.392	17859
904.51	17756
904.627	17771
904.745	17836
904.863	17843
904.981	17520
905.098	17391
905.216	17433
905.334	17444
905.451	17425
905.569	17421
905.686	17436
905.803	17395
905.921	17254
906.038	17307
906.155	17322
906.272	17124
906.389	17136
906.506	16946
906.623	17022
906.74	17010
906.857	16934
906.974	16987
907.091	17098
907.208	17064
907.324	17071
907.441	16938
907.557	16679
907.674	16755
907.79	16634
907.907	16748
908.023	16660
908.139	16740
908.256	16596
908.372	16683
908.488	16516
908.604	16516
908.72	16489
908.836	16265
908.952	16379
909.068	16363
909.184	16508
909.3	16371
909.415	16451
909.531	16379
909.647	16196
909.762	16093
909.878	16017
909.993	16044
910.108	16101
910.224	16131
910.339	16086
910.454	15994
910.57	15911
910.685	15846
910.8	16086
910.915	16040
911.03	16032
911.145	15816
911.259	15698
911.374	15686
911.489	15629
911.604	15690
911.718	15420
911.833	15473
911.947	15424
912.062	15302
912.176	15488
912.291	15584
912.405	15488
912.519	15675
912.633	15584
912.748	15458
912.862	15435
912.976	15260
913.09	15157
913.204	15199
913.318	15207
913.431	15382
913.545	15344
913.659	15386
913.772	15291
913.886	15123
914	15161
914.113	15226
914.226	15169
914.34	15249
914.453	15043
914.566	15123
914.68	14925
914.793	14948
914.906	14769
915.019	14625
915.132	14667
915.245	14617
915.358	14682
915.47	14689
915.583	14693
915.696	14815
915.809	14693
915.921	14883
916.034	14571
916.146	14659
916.259	14522
916.371	14708
916.483	14587
916.595	14549
916.708	14621
916.82	14568
916.932	14537
917.044	14427
917.156	14450
917.268	14339
917.38	14393
917.491	14294
917.603	14355
917.715	14541
917.826	14457
917.938	14328
918.049	14214
918.161	14263
918.272	14400
918.384	14446
918.495	14301
918.606	14119
918.717	14001
918.828	14168
918.939	14183
919.05	14020
919.161	14046
919.272	13932
919.383	13951
919.494	14168
919.604	14259
919.715	14111
919.826	13970
919.936	14130
920.047	14176
920.157	14100
920.267	14214
920.378	14123
920.488	14043
920.598	14195
920.708	14324
920.818	14309
920.928	14210
921.038	14457
921.148	14389
921.258	13982
921.368	13970
921.477	13830
921.587	13822
921.697	13700
921.806	13890
921.916	13700
922.025	13468
922.134	13548
922.244	13464
922.353	13460
922.462	13502
922.571	13266
922.68	13023
922.789	13072
922.898	13107
923.007	13053
923.116	13152
923.224	13031
923.333	13038
923.442	12939
923.55	12939
923.659	13133
923.767	13004
923.876	12863
923.984	13031
924.092	12779
924.201	12916
924.309	12909
924.417	12890
924.525	12768
924.633	12745
924.741	13552
924.849	12604
924.956	12764
925.064	12555
925.172	12498
925.279	12620
925.387	12574
925.494	12525
925.602	12623
925.709	12631
925.816	12433
925.924	12601
926.031	12551
926.138	12506
926.245	12483
926.352	12342
926.459	12490
926.566	12555
926.673	12483
926.779	12304
926.886	12437
926.993	12155
927.099	12133
927.206	12102
927.312	12133
927.419	12220
927.525	12125
927.631	12232
927.737	12057
927.843	12034
927.95	11912
928.056	12019
928.162	12019
928.267	12079
928.373	12673
928.479	12038
928.585	11805
928.69	11927
928.796	11980
928.901	11901
929.007	11676
929.112	11916
929.218	11824
929.323	11779
929.428	11786
929.533	11935
929.638	11638
929.743	11756
929.848	11718
929.953	11672
930.058	11627
930.163	11433
930.267	11452
930.372	11630
930.477	11398
930.581	11596
930.685	11467
930.79	11341
930.894	11341
930.998	11299
931.103	11421
931.207	11060
931.311	11056
931.415	10957
931.519	10721
931.623	10706
