Data from test_V78500241_2789.txt Node
Date: Fri Mar 25 16:01:07 CST 2022
User: usil
Spectrometer: V785-0024
Trigger mode: 0
Integration Time (sec): 4.000000E-1
Scans to average: 1
Nonlinearity correction enabled: false
Boxcar width: 0
Storing dark spectrum: false
XAxis mode: Wavelengths
Number of Pixels in Spectrum: 1024
>>>>>Begin Spectral Data<<<<<
801.071	29113
801.214	29170
801.356	28927
801.499	28850
801.641	28740
801.783	28740
801.926	28831
802.068	28896
802.211	28752
802.353	28626
802.496	28535
802.638	28432
802.78	28409
802.923	28356
803.065	28268
803.208	28493
803.35	28519
803.492	28637
803.635	28668
803.777	28478
803.919	28752
804.061	28987
804.204	28881
804.346	28691
804.488	28618
804.63	28675
804.773	28561
804.915	28869
805.057	28961
805.199	28759
805.341	28786
805.483	28942
805.626	28869
805.768	28828
805.91	28797
806.052	28953
806.194	28607
806.336	29029
806.478	28843
806.62	28900
806.762	29010
806.904	29162
807.046	29551
807.188	29258
807.33	29341
807.472	29318
807.614	29242
807.756	29444
807.898	29284
808.04	29128
808.182	29254
808.324	29124
808.465	29341
808.607	29551
808.749	29653
808.891	29687
809.033	29889
809.174	29741
809.316	29642
809.458	29558
809.6	29581
809.741	29760
809.883	29615
810.025	29851
810.166	29969
810.308	29828
810.45	29843
810.591	29893
810.733	29611
810.875	29608
811.016	29497
811.158	29516
811.299	29771
811.441	29874
811.582	29790
811.724	29577
811.865	29699
812.007	29661
812.148	29638
812.29	29680
812.431	29939
812.573	29992
812.714	30064
812.855	30049
812.997	30201
813.138	30445
813.279	30247
813.421	30125
813.562	30235
813.703	29973
813.845	29939
813.986	29627
814.127	29570
814.268	29330
814.41	29417
814.551	29288
814.692	29551
814.833	29299
814.974	29292
815.115	29398
815.256	29159
815.397	29265
815.539	29185
815.68	29235
815.821	29025
815.962	29174
816.103	29159
816.244	29090
816.385	28987
816.526	29041
816.666	28755
816.807	28717
816.948	28710
817.089	28828
817.23	28702
817.371	28736
817.512	28656
817.653	28653
817.793	28645
817.934	28664
818.075	28615
818.216	28649
818.356	28691
818.497	28668
818.638	28500
818.778	28470
818.919	28580
819.06	28413
819.2	28679
819.341	28656
819.481	28793
819.622	28885
819.762	28957
819.903	29006
820.043	28911
820.184	28896
820.324	28892
820.465	28888
820.605	28923
820.746	28824
820.886	28831
821.026	28854
821.167	28630
821.307	28908
821.447	28637
821.588	28561
821.728	28386
821.868	28352
822.008	28128
822.149	28287
822.289	27960
822.429	27960
822.569	27914
822.709	27972
822.849	27789
822.99	27831
823.13	27591
823.27	27728
823.41	27466
823.55	27488
823.69	27526
823.83	27580
823.97	27587
824.11	27393
824.25	27291
824.389	27268
824.529	27332
824.669	27393
824.809	27424
824.949	27439
825.089	27287
825.228	27435
825.368	27336
825.508	27070
825.648	27222
825.787	27370
825.927	27275
826.067	27344
826.206	27420
826.346	27336
826.485	27184
826.625	27268
826.765	27344
826.904	27241
827.044	26937
827.183	27055
827.323	26933
827.462	27058
827.601	26906
827.741	26868
827.88	27051
828.02	26883
828.159	27001
828.298	26994
828.437	26883
828.577	26994
828.716	26979
828.855	26853
828.994	26560
829.134	26613
829.273	26746
829.412	26495
829.551	26598
829.69	26575
829.829	26579
829.968	26648
830.107	26678
830.246	26590
830.385	26431
830.524	26579
830.663	26503
830.802	26381
830.941	26282
831.08	26164
831.219	26240
831.357	26343
831.496	26419
831.635	26176
831.774	26115
831.913	26161
832.051	26153
832.19	25970
832.329	26073
832.467	25966
832.606	25921
832.744	25864
832.883	25986
833.022	25890
833.16	25928
833.299	26027
833.437	25902
833.576	26092
833.714	26058
833.852	26081
833.991	26054
834.129	25982
834.267	26065
834.406	26027
834.544	26035
834.682	25864
834.821	25959
834.959	26081
835.097	26016
835.235	26088
835.373	25932
835.511	25849
835.65	25841
835.788	25788
835.926	25662
836.064	25533
836.202	25700
836.34	26005
836.478	25868
836.615	25822
836.753	25780
836.891	25845
837.029	25883
837.167	25776
837.305	25685
837.443	25651
837.58	25639
837.718	25734
837.856	25685
837.993	25635
838.131	25658
838.269	25464
838.406	25571
838.544	25415
838.681	25327
838.819	25232
838.956	25050
839.094	25053
839.231	25187
839.369	25369
839.506	25453
839.643	25343
839.781	25137
839.918	25091
840.055	25012
840.193	25084
840.33	25004
840.467	24909
840.604	25038
840.742	25225
840.879	24821
841.016	24970
841.153	24867
841.29	25084
841.427	24909
841.564	25008
841.701	25023
841.838	24901
841.975	24878
842.112	24947
842.249	24932
842.385	24795
842.522	24901
842.659	24760
842.796	24757
842.933	24661
843.069	24692
843.206	24650
843.343	24741
843.479	24760
843.616	24810
843.752	24467
843.889	24498
844.025	24669
844.162	24555
844.298	24681
844.435	24483
844.571	24483
844.708	24574
844.844	24677
844.98	24684
845.117	24646
845.253	24528
845.389	24391
845.525	24384
845.661	24330
845.798	24186
845.934	24414
846.07	24342
846.206	24171
846.342	24361
846.478	24285
846.614	24030
846.75	23836
846.886	23942
847.022	24064
847.158	23988
847.294	24015
847.429	23923
847.565	23908
847.701	24167
847.837	23611
847.972	23695
848.108	23786
848.244	23752
848.379	23600
848.515	23615
848.65	23417
848.786	23528
848.921	23630
849.057	23627
849.192	23604
849.328	23615
849.463	23531
849.598	23566
849.734	23551
849.869	23471
850.004	23296
850.14	23231
850.275	23322
850.41	23159
850.545	23246
850.68	23288
850.815	23395
850.95	23414
851.085	23562
851.22	23425
851.355	23368
851.49	23379
851.625	23265
851.76	23360
851.895	23140
852.03	23318
852.165	23353
852.299	23341
852.434	23318
852.569	23387
852.703	23269
852.838	23402
852.973	23463
853.107	23417
853.242	23212
853.376	23109
853.511	23025
853.645	23079
853.78	23235
853.914	23086
854.048	23022
854.183	23105
854.317	23147
854.451	23307
854.585	23258
854.72	23178
854.854	23250
854.988	23117
855.122	23178
855.256	23140
855.39	23147
855.524	23235
855.658	23178
855.792	23174
855.926	23170
856.06	23162
856.194	23254
856.327	23128
856.461	23086
856.595	23064
856.729	23105
856.862	23212
856.996	23166
857.13	23136
857.263	23147
857.397	23113
857.53	23151
857.664	23124
857.797	23159
857.931	23258
858.064	23189
858.197	23277
858.331	23162
858.464	23143
858.597	23044
858.731	23117
858.864	23083
858.997	23079
859.13	23197
859.263	23132
859.396	23155
859.529	23223
859.662	22938
859.795	23079
859.928	23098
860.061	23258
860.194	23288
860.327	23193
860.46	23052
860.592	23227
860.725	23337
860.858	23197
860.99	23143
861.123	23121
861.256	23090
861.388	23117
861.521	23851
861.653	22965
861.786	22953
861.918	22889
862.05	23071
862.183	23037
862.315	23044
862.447	23052
862.58	23025
862.712	22771
862.844	22767
862.976	22984
863.108	22809
863.24	23315
863.372	22725
863.504	22755
863.636	22786
863.768	22908
863.9	22908
864.032	22786
864.164	22774
864.296	22850
864.428	22930
864.559	22934
864.691	22934
864.823	22812
864.954	22797
865.086	22850
865.217	22767
865.349	22744
865.48	22622
865.612	22649
865.743	22831
865.875	22771
866.006	22771
866.137	22637
866.269	22763
866.4	22710
866.531	22675
866.662	22546
866.793	22615
866.924	22649
867.055	22580
867.186	22664
867.317	22630
867.448	22603
867.579	22611
867.71	22512
867.841	22428
867.972	22672
868.103	22584
868.233	22668
868.364	22691
868.495	22733
868.625	22797
868.756	22942
868.886	22706
869.017	22972
869.147	22968
869.278	22972
869.408	22953
869.539	22850
869.669	22889
869.799	22904
869.929	22953
870.06	22976
870.19	23094
870.32	23105
870.45	23231
870.58	23273
870.71	23330
870.84	23429
870.97	23239
871.1	23258
871.23	23410
871.36	23524
871.489	23356
871.619	23520
871.749	23535
871.879	23490
872.008	23619
872.138	23589
872.267	23505
872.397	23330
872.526	23307
872.656	23372
872.785	23220
872.915	23501
873.044	23608
873.173	23516
873.303	23478
873.432	23417
873.561	23585
873.69	23558
873.819	23634
873.948	23615
874.077	23440
874.206	23436
874.335	23516
874.464	23535
874.593	23760
874.722	23570
874.851	23745
874.979	23828
875.108	23775
875.237	23741
875.365	23551
875.494	23714
875.623	23691
875.751	23714
875.88	23684
876.008	23836
876.136	23824
876.265	24163
876.393	24079
876.521	24129
876.65	24239
876.778	23980
876.906	23950
877.034	24003
877.162	24076
877.29	23958
877.418	23999
877.546	23988
877.674	24068
877.802	24110
877.93	23908
878.058	24011
878.185	23931
878.313	23965
878.441	23942
878.568	23779
878.696	24030
878.824	24076
878.951	24102
879.079	24159
879.206	24334
879.333	24262
879.461	24030
879.588	24087
879.715	24064
879.842	24285
879.97	24087
880.097	23798
880.224	23817
880.351	23878
880.478	23904
880.605	23710
880.732	23904
880.859	24045
880.986	23851
881.112	23843
881.239	23756
881.366	23592
881.493	23436
881.619	23535
881.746	23436
881.872	23387
881.999	23326
882.125	23292
882.252	23379
882.378	23330
882.505	23395
882.631	23200
882.757	23143
882.883	23208
883.01	23067
883.136	22980
883.262	22843
883.388	22904
883.514	23090
883.64	23105
883.766	22995
883.892	22771
884.018	22866
884.143	23037
884.269	23003
884.395	22816
884.52	22607
884.646	22729
884.772	22675
884.897	22577
885.023	22706
885.148	22656
885.274	22877
885.399	22797
885.524	22740
885.65	22679
885.775	22641
885.9	22618
886.025	22759
886.15	22752
886.275	22634
886.4	22588
886.525	22637
886.65	22554
886.775	22603
886.9	22611
887.025	22828
887.149	22588
887.274	22424
887.399	22344
887.523	22584
887.648	22375
887.773	22329
887.897	22542
888.021	22569
888.146	22363
888.27	22489
888.395	22451
888.519	22424
888.643	22474
888.767	22478
888.891	22344
889.015	22303
889.139	22382
889.263	22287
889.387	22363
889.511	22375
889.635	22314
889.759	22325
889.883	22135
890.006	22306
890.13	22325
890.254	22135
890.377	22158
890.501	21987
890.624	21956
890.748	21960
890.871	21918
890.995	21770
891.118	21690
891.241	21827
891.364	21835
891.488	21861
891.611	21789
891.734	21842
891.857	21880
891.98	21717
892.103	21819
892.226	21728
892.349	21751
892.471	21534
892.594	21694
892.717	21648
892.839	21720
892.962	21671
893.085	21759
893.207	21641
893.33	21507
893.452	21549
893.575	21701
893.697	21637
893.819	21644
893.941	21865
894.064	21709
894.186	21572
894.308	21485
894.43	21633
894.552	21717
894.674	21743
894.796	21477
894.918	21656
895.04	21564
895.161	21614
895.283	21625
895.405	21557
895.526	21515
895.648	21591
895.769	21637
895.891	21606
896.012	21606
896.134	21583
896.255	21606
896.376	21553
896.498	21523
896.619	21648
896.74	21701
896.861	21424
896.982	21884
897.103	21991
897.224	21873
897.345	21781
897.466	21778
897.587	21770
897.708	21903
897.828	21869
897.949	21808
898.07	21606
898.19	21690
898.311	21785
898.431	21694
898.552	21755
898.672	21835
898.792	21884
898.913	21823
899.033	21717
899.153	21549
899.273	21435
899.393	21534
899.513	21720
899.633	21469
899.753	21553
899.873	21431
899.993	21591
900.113	21363
900.232	21477
900.352	21492
900.472	21424
900.591	21268
900.711	21401
900.83	21184
900.95	21340
901.069	21268
901.189	21222
901.308	20914
901.427	20754
901.546	20864
901.665	20872
901.784	20902
901.904	20712
902.023	20575
902.141	20408
902.26	20389
902.379	20431
902.498	20320
902.617	20419
902.735	20419
902.854	20191
902.973	20233
903.091	20119
903.21	20092
903.328	19890
903.446	19769
903.565	19753
903.683	19734
903.801	19624
903.919	19723
904.038	19772
904.156	19460
904.274	19689
904.392	19514
904.51	19563
904.627	19540
904.745	19575
904.863	19499
904.981	19320
905.098	19198
905.216	19126
905.334	19160
905.451	19304
905.569	19126
905.686	19118
905.803	19263
905.921	18970
906.038	19065
906.155	19061
906.272	18951
906.389	18939
906.506	18764
906.623	18734
906.74	18722
906.857	18563
906.974	18623
907.091	18814
907.208	18954
907.324	18764
907.441	18566
907.557	18403
907.674	18563
907.79	18342
907.907	18426
908.023	18452
908.139	18460
908.256	18346
908.372	18330
908.488	18304
908.604	18167
908.72	18152
908.836	18182
908.952	18178
909.068	18190
909.184	18239
909.3	18022
909.415	18159
909.531	18076
909.647	17843
909.762	17809
909.878	17851
909.993	17779
910.108	17840
910.224	17786
910.339	17824
910.454	17642
910.57	17547
910.685	17501
910.8	17931
910.915	17699
911.03	17684
911.145	17402
911.259	17471
911.374	17349
911.489	17414
911.604	17322
911.718	17159
911.833	17136
911.947	17025
912.062	16942
912.176	17246
912.291	17094
912.405	17193
912.519	17391
912.633	17303
912.748	17246
912.862	17189
912.976	16961
913.09	16831
913.204	16892
913.318	16995
913.431	17029
913.545	17033
913.659	16919
913.772	16892
913.886	16748
914	16691
914.113	16839
914.226	16831
914.34	16793
914.453	16702
914.566	16828
914.68	16554
914.793	16558
914.906	16451
915.019	16303
915.132	16166
915.245	16325
915.358	16284
915.47	16295
915.583	16299
915.696	16363
915.809	16386
915.921	16352
916.034	16261
916.146	16291
916.259	16207
916.371	16246
916.483	16295
916.595	16139
916.708	16086
916.82	16078
916.932	16013
917.044	16029
917.156	16021
917.268	15880
917.38	15964
917.491	15888
917.603	15873
917.715	15998
917.826	15949
917.938	15797
918.049	15808
918.161	15922
918.272	15972
918.384	15968
918.495	15857
918.606	15713
918.717	15576
918.828	15622
918.939	15610
919.05	15561
919.161	15584
919.272	15496
919.383	15488
919.494	15671
919.604	15831
919.715	15599
919.826	15542
919.936	15591
920.047	15660
920.157	15606
920.267	15724
920.378	15610
920.488	15568
920.598	15709
920.708	15865
920.818	15690
920.928	15660
921.038	15835
921.148	15736
921.258	15488
921.368	15355
921.477	15252
921.587	15351
921.697	15081
921.806	15291
921.916	15051
922.025	15005
922.134	14914
922.244	14830
922.353	14891
922.462	14796
922.571	14746
922.68	14560
922.789	14625
922.898	14575
923.007	14545
923.116	14613
923.224	14507
923.333	14423
923.442	14492
923.55	14362
923.659	14488
923.767	14358
923.876	14317
923.984	14446
924.092	14225
924.201	14278
924.309	14240
924.417	14248
924.525	14058
924.633	14168
924.741	15127
924.849	13913
924.956	14157
925.064	14016
925.172	13913
925.279	13860
925.387	13959
925.494	13883
925.602	14016
925.709	13955
925.816	13791
925.924	13765
926.031	13986
926.138	13955
926.245	13875
926.352	13708
926.459	13818
926.566	13852
926.673	13818
926.779	13594
926.886	13681
926.993	13578
927.099	13422
927.206	13384
927.312	13449
927.419	13594
927.525	13422
927.631	13449
927.737	13304
927.843	13270
927.95	13190
928.056	13187
928.162	13274
928.267	13190
928.373	13723
928.479	13343
928.585	13118
928.69	13198
928.796	13225
928.901	13118
929.007	13042
929.112	13103
929.218	13076
929.323	13042
929.428	13008
929.533	13034
929.638	12852
929.743	12897
929.848	12981
929.953	12871
930.058	12776
930.163	12631
930.267	12681
930.372	12722
930.477	12547
930.581	12764
930.685	12662
930.79	12498
930.894	12452
930.998	12490
931.103	12566
931.207	12296
931.311	12171
931.415	12049
931.519	11843
931.623	11824
