Data from test_V78500241_2986.txt Node
Date: Fri Mar 25 16:02:29 CST 2022
User: usil
Spectrometer: V785-0024
Trigger mode: 0
Integration Time (sec): 4.000000E-1
Scans to average: 1
Nonlinearity correction enabled: false
Boxcar width: 0
Storing dark spectrum: false
XAxis mode: Wavelengths
Number of Pixels in Spectrum: 1024
>>>>>Begin Spectral Data<<<<<
801.071	28493
801.214	28398
801.356	28238
801.499	28219
801.641	28070
801.783	28078
801.926	28131
802.068	28063
802.211	28162
802.353	27930
802.496	27914
802.638	27755
802.78	27873
802.923	27618
803.065	27732
803.208	27857
803.35	27926
803.492	28055
803.635	27930
803.777	27888
803.919	28002
804.061	28333
804.204	28067
804.346	28063
804.488	27926
804.63	27892
804.773	27972
804.915	28040
805.057	28207
805.199	27922
805.341	28211
805.483	28249
805.626	28040
805.768	28211
805.91	28143
806.052	28074
806.194	28101
806.336	28280
806.478	28169
806.62	28272
806.762	28318
806.904	28531
807.046	28634
807.188	28550
807.33	28634
807.472	28675
807.614	28622
807.756	28603
807.898	28489
808.04	28436
808.182	28508
808.324	28344
808.465	28596
808.607	28679
808.749	28850
808.891	28839
809.033	29075
809.174	28900
809.316	28847
809.458	28763
809.6	28831
809.741	28938
809.883	28999
810.025	29105
810.166	29083
810.308	29064
810.45	28984
810.591	29178
810.733	29003
810.875	28888
811.016	28740
811.158	28759
811.299	28881
811.441	29033
811.582	29018
811.724	28908
811.865	28915
812.007	28831
812.148	28877
812.29	28888
812.431	28965
812.573	29375
812.714	29239
812.855	29421
812.997	29524
813.138	29672
813.279	29535
813.421	29387
813.562	29254
813.703	29284
813.845	29067
813.986	28801
814.127	28698
814.268	28710
814.41	28649
814.551	28675
814.692	28622
814.833	28413
814.974	28409
815.115	28577
815.256	28474
815.397	28489
815.539	28451
815.68	28341
815.821	28284
815.962	28470
816.103	28223
816.244	28287
816.385	28226
816.526	28150
816.666	27911
816.807	27922
816.948	28002
817.089	27941
817.23	27945
817.371	27842
817.512	27979
817.653	27934
817.793	27888
817.934	27953
818.075	27907
818.216	27926
818.356	27926
818.497	27720
818.638	27667
818.778	27698
818.919	27534
819.06	27686
819.2	27705
819.341	27907
819.481	27846
819.622	28124
819.762	28135
819.903	28207
820.043	28032
820.184	28105
820.324	28010
820.465	28211
820.605	27953
820.746	28017
820.886	27930
821.026	27941
821.167	27911
821.307	28036
821.447	27876
821.588	27789
821.728	27766
821.868	27591
822.008	27427
822.149	27466
822.289	27363
822.429	27131
822.569	27100
822.709	27066
822.849	26925
822.99	26933
823.13	26845
823.27	26861
823.41	26788
823.55	26613
823.69	26838
823.83	26807
823.97	26606
824.11	26518
824.25	26579
824.389	26442
824.529	26575
824.669	26754
824.809	26758
824.949	26678
825.089	26594
825.228	26640
825.368	26571
825.508	26393
825.648	26370
825.787	26457
825.927	26412
826.067	26385
826.206	26366
826.346	26564
826.485	26408
826.625	26377
826.765	26415
826.904	26290
827.044	26122
827.183	26153
827.323	26073
827.462	26183
827.601	26103
827.741	26016
827.88	26119
828.02	25947
828.159	25966
828.298	26024
828.437	26187
828.577	26058
828.716	26237
828.855	25982
828.994	25845
829.134	25795
829.273	25864
829.412	25769
829.551	25742
829.69	25761
829.829	25753
829.968	25845
830.107	25890
830.246	25719
830.385	25643
830.524	25674
830.663	25506
830.802	25422
830.941	25396
831.08	25510
831.219	25525
831.357	25434
831.496	25696
831.635	25297
831.774	25339
831.913	25411
832.051	25225
832.19	25209
832.329	25270
832.467	25095
832.606	25072
832.744	25065
832.883	24943
833.022	24875
833.16	25050
833.299	25004
833.437	25152
833.576	25099
833.714	25072
833.852	25236
833.991	25103
834.129	25282
834.267	25301
834.406	25148
834.544	25217
834.682	25259
834.821	25148
834.959	25156
835.097	25198
835.235	25198
835.373	25145
835.511	25080
835.65	24970
835.788	25050
835.926	24840
836.064	24760
836.202	24909
836.34	25000
836.478	25065
836.615	24920
836.753	24981
836.891	25034
837.029	24989
837.167	24905
837.305	24852
837.443	24924
837.58	24897
837.718	24916
837.856	24848
837.993	24692
838.131	24768
838.269	24669
838.406	24776
838.544	24555
838.681	24544
838.819	24464
838.956	24300
839.094	24205
839.231	24281
839.369	24372
839.506	24597
839.643	24483
839.781	24327
839.918	24254
840.055	24285
840.193	24186
840.33	24167
840.467	24125
840.604	24247
840.742	24494
840.879	24087
841.016	24095
841.153	23935
841.29	24148
841.427	24178
841.564	24285
841.701	23996
841.838	24140
841.975	24114
842.112	23912
842.249	23840
842.385	23882
842.522	24194
842.659	23927
842.796	23920
842.933	23999
843.069	23847
843.206	23874
843.343	23878
843.479	23923
843.616	23904
843.752	23760
843.889	23745
844.025	23798
844.162	23714
844.298	23779
844.435	23642
844.571	23665
844.708	23714
844.844	23813
844.98	23783
845.117	23863
845.253	23710
845.389	23395
845.525	23520
845.661	23531
845.798	23372
845.934	23440
846.07	23452
846.206	23490
846.342	23600
846.478	23315
846.614	23261
846.75	23090
846.886	23151
847.022	23220
847.158	23227
847.294	23113
847.429	23140
847.565	23060
847.701	23452
847.837	22908
847.972	22927
848.108	23037
848.244	22976
848.379	22736
848.515	22919
848.65	22759
848.786	22637
848.921	22774
849.057	22809
849.192	22877
849.328	22710
849.463	22763
849.598	22748
849.734	22615
849.869	22672
850.004	22489
850.14	22519
850.275	22519
850.41	22459
850.545	22481
850.68	22405
850.815	22538
850.95	22466
851.085	22649
851.22	22615
851.355	22512
851.49	22569
851.625	22421
851.76	22508
851.895	22379
852.03	22557
852.165	22599
852.299	22596
852.434	22580
852.569	22611
852.703	22580
852.838	22569
852.973	22717
853.107	22569
853.242	22447
853.376	22360
853.511	22196
853.645	22253
853.78	22386
853.914	22363
854.048	22363
854.183	22261
854.317	22409
854.451	22634
854.585	22284
854.72	22272
854.854	22550
854.988	22268
855.122	22322
855.256	22261
855.39	22318
855.524	22352
855.658	22481
855.792	22280
855.926	22356
856.06	22398
856.194	22428
856.327	22379
856.461	22291
856.595	22440
856.729	22394
856.862	22542
856.996	22344
857.13	22443
857.263	22421
857.397	22421
857.53	22481
857.664	22451
857.797	22402
857.931	22546
858.064	22390
858.197	22550
858.331	22363
858.464	22352
858.597	22322
858.731	22363
858.864	22428
858.997	22375
859.13	22329
859.263	22432
859.396	22318
859.529	22325
859.662	22306
859.795	22185
859.928	22413
860.061	22603
860.194	22630
860.327	22352
860.46	22398
860.592	22497
860.725	22527
860.858	22443
860.99	22318
861.123	22322
861.256	22261
861.388	22424
861.521	23140
861.653	22246
861.786	22116
861.918	22166
862.05	22348
862.183	22341
862.315	22291
862.447	22440
862.58	22299
862.712	22082
862.844	22154
862.976	22272
863.108	22131
863.24	22538
863.372	22131
863.504	22128
863.636	22051
863.768	22059
863.9	22109
864.032	21975
864.164	21994
864.296	22017
864.428	22284
864.559	22139
864.691	22207
864.823	22070
864.954	21964
865.086	22124
865.217	21987
865.349	21865
865.48	22082
865.612	21994
865.743	22070
865.875	21991
866.006	21922
866.137	21941
866.269	21922
866.4	21854
866.531	21934
866.662	21873
866.793	21873
866.924	21816
867.055	21968
867.186	21964
867.317	21816
867.448	21759
867.579	21922
867.71	21720
867.841	21774
867.972	21922
868.103	21854
868.233	21972
868.364	22002
868.495	21953
868.625	22067
868.756	22086
868.886	22082
869.017	22078
869.147	22253
869.278	22200
869.408	22173
869.539	22086
869.669	22166
869.799	22147
869.929	22371
870.06	22337
870.19	22489
870.32	22436
870.45	22405
870.58	22478
870.71	22538
870.84	22565
870.97	22455
871.1	22550
871.23	22687
871.36	22656
871.489	22748
871.619	22706
871.749	22900
871.879	22679
872.008	22820
872.138	22618
872.267	22843
872.397	22573
872.526	22546
872.656	22527
872.785	22599
872.915	22854
873.044	22820
873.173	22687
873.303	22805
873.432	22915
873.561	22976
873.69	22797
873.819	22736
873.948	22839
874.077	22763
874.206	22694
874.335	22733
874.464	22896
874.593	23128
874.722	22995
874.851	22984
874.979	23006
875.108	22961
875.237	22942
875.365	22889
875.494	22915
875.623	22961
875.751	22957
875.88	23006
876.008	23117
876.136	23094
876.265	23448
876.393	23501
876.521	23425
876.65	23570
876.778	23311
876.906	23318
877.034	23296
877.162	23307
877.29	23273
877.418	23212
877.546	23353
877.674	23326
877.802	23204
877.93	23212
878.058	23178
878.185	23102
878.313	23261
878.441	23353
878.568	23132
878.696	23212
878.824	23307
878.951	23429
879.079	23573
879.206	23528
879.333	23531
879.461	23376
879.588	23383
879.715	23383
879.842	23562
879.97	23326
880.097	23128
880.224	23044
880.351	23113
880.478	23086
880.605	23128
880.732	23223
880.859	23330
880.986	23056
881.112	23265
881.239	22953
881.366	22744
881.493	22706
881.619	22706
881.746	22812
881.872	22710
881.999	22645
882.125	22554
882.252	22717
882.378	22664
882.505	22691
882.631	22527
882.757	22493
882.883	22462
883.01	22409
883.136	22284
883.262	22223
883.388	22086
883.514	22356
883.64	22382
883.766	22322
883.892	22200
884.018	22204
884.143	22306
884.269	22443
884.395	22215
884.52	22021
884.646	21975
884.772	21937
884.897	21899
885.023	22029
885.148	22128
885.274	22112
885.399	22063
885.524	22116
885.65	22013
885.775	22086
885.9	22029
886.025	22101
886.15	22078
886.275	22021
886.4	21922
886.525	22051
886.65	21888
886.775	21956
886.9	21972
887.025	22154
887.149	22063
887.274	21759
887.399	21724
887.523	21762
887.648	21762
887.773	21762
887.897	21956
888.021	21861
888.146	21766
888.27	21816
888.395	21789
888.519	21709
888.643	21808
888.767	21705
888.891	21675
889.015	21568
889.139	21667
889.263	21473
889.387	21576
889.511	21755
889.635	21682
889.759	21599
889.883	21557
890.006	21530
890.13	21561
890.254	21367
890.377	21534
890.501	21416
890.624	21275
890.748	21264
890.871	21146
890.995	21146
891.118	21096
891.241	21070
891.364	21100
891.488	21218
891.611	21093
891.734	21176
891.857	21180
891.98	21161
892.103	21089
892.226	21020
892.349	21043
892.471	20849
892.594	20986
892.717	20944
892.839	20937
892.962	20910
893.085	21017
893.207	21001
893.33	20952
893.452	21017
893.575	21055
893.697	20986
893.819	21089
893.941	21245
894.064	21146
894.186	20948
894.308	20834
894.43	21230
894.552	21108
894.674	21055
894.796	20952
894.918	20990
895.04	20948
895.161	21062
895.283	20994
895.405	20956
895.526	20918
895.648	21009
895.769	20990
895.891	21100
896.012	21013
896.134	21062
896.255	20956
896.376	20933
896.498	20982
896.619	20990
896.74	21009
896.861	21108
896.982	21233
897.103	21443
897.224	21313
897.345	21161
897.466	21131
897.587	21268
897.708	21275
897.828	21298
897.949	21283
898.07	20937
898.19	21055
898.311	21252
898.431	21077
898.552	21119
898.672	21268
898.792	21188
898.913	21169
899.033	21104
899.153	20975
899.273	20792
899.393	20990
899.513	20899
899.633	20872
899.753	20944
899.873	20815
899.993	20944
900.113	21001
900.232	20861
900.352	20868
900.472	20682
900.591	20686
900.711	20686
900.83	20640
900.95	20872
901.069	20796
901.189	20613
901.308	20431
901.427	20218
901.546	20317
901.665	20286
901.784	20252
901.904	20122
902.023	20012
902.141	19784
902.26	19795
902.379	19833
902.498	19757
902.617	19655
902.735	19833
902.854	19811
902.973	19670
903.091	19457
903.21	19335
903.328	19369
903.446	19365
903.565	19247
903.683	19198
903.801	19069
903.919	19160
904.038	19160
904.156	18905
904.274	19057
904.392	18935
904.51	19008
904.627	18932
904.745	18966
904.863	18993
904.981	18764
905.098	18639
905.216	18673
905.334	18627
905.451	18616
905.569	18623
905.686	18566
905.803	18684
905.921	18544
906.038	18506
906.155	18437
906.272	18319
906.389	18292
906.506	18232
906.623	18285
906.74	18171
906.857	17999
906.974	18003
907.091	18266
907.208	18285
907.324	18091
907.441	18095
907.557	17832
907.674	17779
907.79	17752
907.907	17908
908.023	17908
908.139	17916
908.256	17680
908.372	17775
908.488	17726
908.604	17490
908.72	17474
908.836	17684
908.952	17627
909.068	17589
909.184	17710
909.3	17547
909.415	17471
909.531	17615
909.647	17261
909.762	17322
909.878	17284
909.993	17311
910.108	17193
910.224	17246
910.339	17162
910.454	17128
910.57	17124
910.685	16987
910.8	17322
910.915	17185
911.03	17124
911.145	16896
911.259	16831
911.374	16946
911.489	16793
911.604	16626
911.718	16554
911.833	16569
911.947	16459
912.062	16390
912.176	16592
912.291	16550
912.405	16634
912.519	16801
912.633	16729
912.748	16588
912.862	16675
912.976	16360
913.09	16295
913.204	16405
913.318	16375
913.431	16550
913.545	16371
913.659	16481
913.772	16432
913.886	16287
914	16139
914.113	16363
914.226	16299
914.34	16257
914.453	16128
914.566	16375
914.68	16105
914.793	15983
914.906	15922
915.019	15808
915.132	15656
915.245	15762
915.358	15884
915.47	15812
915.583	15762
915.696	15812
915.809	15888
915.921	15854
916.034	15705
916.146	15705
916.259	15766
916.371	15739
916.483	15671
916.595	15603
916.708	15648
916.82	15572
916.932	15473
917.044	15580
917.156	15462
917.268	15348
917.38	15439
917.491	15466
917.603	15374
917.715	15496
917.826	15534
917.938	15260
918.049	15241
918.161	15332
918.272	15424
918.384	15431
918.495	15348
918.606	15184
918.717	15135
918.828	15218
918.939	15195
919.05	15150
919.161	15180
919.272	14956
919.383	14994
919.494	15218
919.604	15294
919.715	15131
919.826	15062
919.936	15150
920.047	15169
920.157	15097
920.267	15298
920.378	15142
920.488	15135
920.598	15203
920.708	15405
920.818	15211
920.928	15192
921.038	15355
921.148	15329
921.258	15043
921.368	14925
921.477	14830
921.587	14849
921.697	14701
921.806	14830
921.916	14739
922.025	14564
922.134	14457
922.244	14473
922.353	14511
922.462	14450
922.571	14313
922.68	14069
922.789	14191
922.898	14172
923.007	13982
923.116	14134
923.224	14153
923.333	14043
923.442	13944
923.55	13947
923.659	14043
923.767	14069
923.876	13898
923.984	13940
924.092	13841
924.201	13826
924.309	13799
924.417	13849
924.525	13761
924.633	13689
924.741	14461
924.849	13582
924.956	13681
925.064	13472
925.172	13434
925.279	13499
925.387	13499
925.494	13544
925.602	13647
925.709	13457
925.816	13407
925.924	13407
926.031	13521
926.138	13483
926.245	13419
926.352	13358
926.459	13483
926.566	13426
926.673	13396
926.779	13244
926.886	13225
926.993	12981
927.099	13034
927.206	13015
927.312	13019
927.419	13149
927.525	12981
927.631	13046
927.737	12890
927.843	12867
927.95	12867
928.056	12776
928.162	12871
928.267	12878
928.373	13525
928.479	12920
928.585	12612
928.69	12825
928.796	12848
928.901	12650
929.007	12528
929.112	12730
929.218	12623
929.323	12540
929.428	12559
929.533	12673
929.638	12536
929.743	12544
929.848	12582
929.953	12544
930.058	12388
930.163	12247
930.267	12254
930.372	12414
930.477	12285
930.581	12460
930.685	12273
930.79	12087
930.894	12152
930.998	12102
931.103	12171
931.207	11866
931.311	11672
931.415	11748
931.519	11516
931.623	11482
