Data from test_V78500241_1300.txt Node
Date: Fri Mar 25 15:50:48 CST 2022
User: usil
Spectrometer: V785-0024
Trigger mode: 0
Integration Time (sec): 4.000000E-1
Scans to average: 1
Nonlinearity correction enabled: false
Boxcar width: 0
Storing dark spectrum: false
XAxis mode: Wavelengths
Number of Pixels in Spectrum: 1024
>>>>>Begin Spectral Data<<<<<
801.071	28432
801.214	28322
801.356	28211
801.499	28036
801.641	27983
801.783	28090
801.926	28017
802.068	28051
802.211	28063
802.353	28010
802.496	27808
802.638	27679
802.78	27606
802.923	27614
803.065	27473
803.208	27561
803.35	27686
803.492	27865
803.635	27914
803.777	27816
803.919	27800
804.061	28150
804.204	27987
804.346	27793
804.488	27926
804.63	27888
804.773	27728
804.915	27907
805.057	27842
805.199	27831
805.341	27842
805.483	28090
805.626	28086
805.768	27892
805.91	28078
806.052	28051
806.194	27956
806.336	28276
806.478	28120
806.62	28059
806.762	28295
806.904	28363
807.046	28508
807.188	28523
807.33	28557
807.472	28554
807.614	28485
807.756	28516
807.898	28337
808.04	28356
808.182	28325
808.324	28527
808.465	28356
808.607	28698
808.749	28561
808.891	28866
809.033	28938
809.174	28809
809.316	28656
809.458	28763
809.6	28824
809.741	28904
809.883	28869
810.025	28957
810.166	29018
810.308	29071
810.45	28991
810.591	28949
810.733	28771
810.875	28607
811.016	28615
811.158	28538
811.299	28888
811.441	28942
811.582	28866
811.724	28831
811.865	28660
812.007	28702
812.148	28630
812.29	28698
812.431	28873
812.573	29071
812.714	29265
812.855	29121
812.997	29360
813.138	29471
813.279	29421
813.421	29250
813.562	29185
813.703	28938
813.845	28839
813.986	28660
814.127	28554
814.268	28580
814.41	28466
814.551	28413
814.692	28512
814.833	28310
814.974	28204
815.115	28333
815.256	28325
815.397	28390
815.539	28348
815.68	28173
815.821	28276
815.962	28428
816.103	28219
816.244	28185
816.385	27918
816.526	27998
816.666	27892
816.807	27842
816.948	27827
817.089	27884
817.23	27880
817.371	27880
817.512	27804
817.653	27759
817.793	27679
817.934	27778
818.075	27781
818.216	27781
818.356	27633
818.497	27500
818.638	27401
818.778	27523
818.919	27606
819.06	27549
819.2	27694
819.341	27694
819.481	27827
819.622	27812
819.762	28166
819.903	28093
820.043	28017
820.184	27876
820.324	27899
820.465	27880
820.605	27987
820.746	27827
820.886	27625
821.026	27755
821.167	27857
821.307	27964
821.447	27816
821.588	27652
821.728	27485
821.868	27367
822.008	27169
822.149	27317
822.289	27283
822.429	26944
822.569	26952
822.709	26967
822.849	26845
822.99	26807
823.13	26796
823.27	26819
823.41	26602
823.55	26434
823.69	26663
823.83	26511
823.97	26556
824.11	26362
824.25	26419
824.389	26275
824.529	26389
824.669	26393
824.809	26583
824.949	26480
825.089	26495
825.228	26343
825.368	26248
825.508	26271
825.648	26275
825.787	26271
825.927	26377
826.067	26324
826.206	26278
826.346	26351
826.485	26370
826.625	26218
826.765	26431
826.904	26366
827.044	26054
827.183	26138
827.323	25921
827.462	26046
827.601	25974
827.741	25997
827.88	26130
828.02	25814
828.159	25955
828.298	25849
828.437	26050
828.577	25875
828.716	26092
828.855	25928
828.994	25666
829.134	25693
829.273	25807
829.412	25689
829.551	25533
829.69	25495
829.829	25761
829.968	25753
830.107	25712
830.246	25708
830.385	25704
830.524	25609
830.663	25506
830.802	25312
830.941	25339
831.08	25213
831.219	25438
831.357	25449
831.496	25499
831.635	25411
831.774	25270
831.913	25076
832.051	25088
832.19	24958
832.329	25107
832.467	25095
832.606	24951
832.744	24825
832.883	24989
833.022	24996
833.16	24992
833.299	24989
833.437	25080
833.576	24981
833.714	25019
833.852	25133
833.991	25141
834.129	25110
834.267	25019
834.406	25095
834.544	25050
834.682	25065
834.821	24958
834.959	25072
835.097	24856
835.235	25034
835.373	25046
835.511	24916
835.65	24894
835.788	24878
835.926	24821
836.064	24646
836.202	24696
836.34	24878
836.478	24905
836.615	24798
836.753	24707
836.891	24947
837.029	24814
837.167	24696
837.305	24753
837.443	24768
837.58	24650
837.718	24821
837.856	24825
837.993	24505
838.131	24711
838.269	24578
838.406	24665
838.544	24589
838.681	24315
838.819	24251
838.956	24049
839.094	24174
839.231	24258
839.369	24403
839.506	24528
839.643	24273
839.781	24186
839.918	23969
840.055	24171
840.193	24144
840.33	24079
840.467	24091
840.604	24038
840.742	24285
840.879	23855
841.016	23992
841.153	23965
841.29	24018
841.427	24057
841.564	24057
841.701	24098
841.838	23946
841.975	23843
842.112	23927
842.249	23855
842.385	23878
842.522	24060
842.659	24038
842.796	23676
842.933	23767
843.069	23832
843.206	23737
843.343	23847
843.479	23882
843.616	23863
843.752	23657
843.889	23592
844.025	23691
844.162	23687
844.298	23573
844.435	23547
844.571	23543
844.708	23638
844.844	23707
844.98	23680
845.117	23627
845.253	23459
845.389	23478
845.525	23577
845.661	23345
845.798	23303
845.934	23349
846.07	23318
846.206	23417
846.342	23429
846.478	23265
846.614	23227
846.75	23060
846.886	22987
847.022	23178
847.158	23014
847.294	23037
847.429	23010
847.565	22949
847.701	23330
847.837	22733
847.972	22691
848.108	22733
848.244	22752
848.379	22740
848.515	22706
848.65	22630
848.786	22626
848.921	22733
849.057	22694
849.192	22668
849.328	22653
849.463	22531
849.598	22611
849.734	22508
849.869	22436
850.004	22371
850.14	22455
850.275	22451
850.41	22386
850.545	22341
850.68	22223
850.815	22386
850.95	22310
851.085	22546
851.22	22413
851.355	22447
851.49	22428
851.625	22428
851.76	22386
851.895	22303
852.03	22131
852.165	22226
852.299	22470
852.434	22405
852.569	22276
852.703	22280
852.838	22489
852.973	22489
853.107	22432
853.242	22402
853.376	22116
853.511	22086
853.645	22226
853.78	22413
853.914	22287
854.048	22150
854.183	22207
854.317	22200
854.451	22341
854.585	22200
854.72	22169
854.854	22478
854.988	22192
855.122	22177
855.256	22135
855.39	22097
855.524	22341
855.658	22303
855.792	22287
855.926	22257
856.06	22223
856.194	22230
856.327	22139
856.461	22090
856.595	22017
856.729	22188
856.862	22344
856.996	22192
857.13	22185
857.263	22310
857.397	22211
857.53	22226
857.664	22090
857.797	22257
857.931	22356
858.064	22219
858.197	22344
858.331	22219
858.464	22131
858.597	22169
858.731	22150
858.864	22093
858.997	22147
859.13	22207
859.263	22086
859.396	22287
859.529	22154
859.662	22112
859.795	22173
859.928	22200
860.061	22272
860.194	22386
860.327	22272
860.46	22257
860.592	22257
860.725	22341
860.858	22295
860.99	22196
861.123	22135
861.256	22249
861.388	22196
861.521	22923
861.653	22040
861.786	22032
861.918	21991
862.05	22006
862.183	22063
862.315	22124
862.447	22105
862.58	21994
862.712	21968
862.844	21838
862.976	21907
863.108	21934
863.24	22196
863.372	21880
863.504	21888
863.636	21808
863.768	22048
863.9	21983
864.032	21739
864.164	21747
864.296	21956
864.428	21968
864.559	21911
864.691	22006
864.823	21949
864.954	21797
865.086	21797
865.217	21804
865.349	21675
865.48	21884
865.612	21770
865.743	21903
865.875	21854
866.006	21789
866.137	21751
866.269	21880
866.4	21701
866.531	21778
866.662	21671
866.793	21633
866.924	21595
867.055	21804
867.186	21789
867.317	21698
867.448	21561
867.579	21759
867.71	21671
867.841	21530
867.972	21656
868.103	21671
868.233	21690
868.364	21705
868.495	21895
868.625	21911
868.756	21960
868.886	21907
869.017	22006
869.147	22196
869.278	22181
869.408	21972
869.539	21823
869.669	22013
869.799	22120
869.929	22143
870.06	22044
870.19	22333
870.32	22207
870.45	22234
870.58	22382
870.71	22394
870.84	22447
870.97	22386
871.1	22276
871.23	22512
871.36	22512
871.489	22318
871.619	22451
871.749	22451
871.879	22550
872.008	22653
872.138	22611
872.267	22626
872.397	22584
872.526	22348
872.656	22325
872.785	22436
872.915	22634
873.044	22641
873.173	22645
873.303	22577
873.432	22702
873.561	22660
873.69	22386
873.819	22538
873.948	22675
874.077	22622
874.206	22523
874.335	22618
874.464	22565
874.593	22850
874.722	22801
874.851	22831
874.979	22816
875.108	22736
875.237	22713
875.365	22664
875.494	22820
875.623	22862
875.751	22759
875.88	22759
876.008	22980
876.136	22919
876.265	23136
876.393	23292
876.521	23299
876.65	23284
876.778	23292
876.906	23079
877.034	22949
877.162	23071
877.29	22987
877.418	23159
877.546	23151
877.674	23132
877.802	23121
877.93	23178
878.058	23132
878.185	23025
878.313	23029
878.441	23037
878.568	23018
878.696	23174
878.824	23060
878.951	23246
879.079	23322
879.206	23524
879.333	23360
879.461	23064
879.588	23261
879.715	23356
879.842	23398
879.97	23200
880.097	22946
880.224	22911
880.351	22968
880.478	22885
880.605	22953
880.732	22953
880.859	23147
880.986	23014
881.112	22980
881.239	22782
881.366	22656
881.493	22679
881.619	22485
881.746	22527
881.872	22440
881.999	22474
882.125	22375
882.252	22542
882.378	22554
882.505	22519
882.631	22223
882.757	22314
882.883	22230
883.01	22124
883.136	22162
883.262	22074
883.388	21956
883.514	22280
883.64	22257
883.766	22078
883.892	21964
884.018	22105
884.143	22139
884.269	22204
884.395	21911
884.52	21759
884.646	21781
884.772	21827
884.897	21698
885.023	21869
885.148	21876
885.274	21949
885.399	21838
885.524	21789
885.65	21797
885.775	21747
885.9	21743
886.025	21892
886.15	21819
886.275	21808
886.4	21686
886.525	21781
886.65	21800
886.775	21759
886.9	21865
887.025	21987
887.149	21835
887.274	21641
887.399	21576
887.523	21568
887.648	21420
887.773	21458
887.897	21713
888.021	21557
888.146	21576
888.27	21622
888.395	21667
888.519	21618
888.643	21656
888.767	21660
888.891	21545
889.015	21344
889.139	21511
889.263	21203
889.387	21523
889.511	21606
889.635	21534
889.759	21306
889.883	21374
890.006	21488
890.13	21538
890.254	21241
890.377	21264
890.501	21176
890.624	21028
890.748	21195
890.871	21036
890.995	20910
891.118	20830
891.241	20948
891.364	20910
891.488	21017
891.611	20952
891.734	21017
891.857	20986
891.98	20929
892.103	20971
892.226	20876
892.349	20895
892.471	20773
892.594	20777
892.717	20960
892.839	20842
892.962	20838
893.085	20891
893.207	20804
893.33	20834
893.452	20667
893.575	20868
893.697	20811
893.819	20914
893.941	20967
894.064	20975
894.186	20769
894.308	20849
894.43	20899
894.552	20948
894.674	20811
894.796	20655
894.918	20781
895.04	20853
895.161	20788
895.283	20887
895.405	20872
895.526	20849
895.648	20880
895.769	20811
895.891	20971
896.012	20925
896.134	20838
896.255	20826
896.376	20750
896.498	20941
896.619	20830
896.74	20986
896.861	20941
896.982	21157
897.103	21195
897.224	21093
897.345	21024
897.466	21001
897.587	21100
897.708	21154
897.828	21036
897.949	21077
898.07	20796
898.19	20891
898.311	20971
898.431	21005
898.552	20941
898.672	21161
898.792	21017
898.913	21039
899.033	20876
899.153	20864
899.273	20629
899.393	20724
899.513	20762
899.633	20781
899.753	20823
899.873	20613
899.993	20731
900.113	20674
900.232	20693
900.352	20678
900.472	20552
900.591	20629
900.711	20606
900.83	20533
900.95	20545
901.069	20648
901.189	20461
901.308	20199
901.427	20043
901.546	20035
901.665	20126
901.784	20065
901.904	19936
902.023	19917
902.141	19658
902.26	19624
902.379	19586
902.498	19658
902.617	19639
902.735	19616
902.854	19616
902.973	19563
903.091	19331
903.21	19270
903.328	19263
903.446	19050
903.565	19080
903.683	19053
903.801	18962
903.919	19019
904.038	19015
904.156	18962
904.274	18935
904.392	18764
904.51	18882
904.627	18734
904.745	18901
904.863	18810
904.981	18597
905.098	18467
905.216	18483
905.334	18513
905.451	18490
905.569	18460
905.686	18513
905.803	18407
905.921	18281
906.038	18391
906.155	18262
906.272	18270
906.389	18117
906.506	18072
906.623	18140
906.74	18072
906.857	17920
906.974	18121
907.091	18098
907.208	18159
907.324	18106
907.441	17942
907.557	17809
907.674	17824
907.79	17737
907.907	17684
908.023	17771
908.139	17805
908.256	17676
908.372	17585
908.488	17627
908.604	17547
908.72	17528
908.836	17558
908.952	17414
909.068	17535
909.184	17566
909.3	17516
909.415	17467
909.531	17501
909.647	17143
909.762	17193
909.878	17265
909.993	17147
910.108	17147
910.224	17033
910.339	17128
910.454	17010
910.57	16908
910.685	16953
910.8	17178
910.915	17147
911.03	16995
911.145	16850
911.259	16668
911.374	16812
911.489	16664
911.604	16683
911.718	16481
911.833	16500
911.947	16489
912.062	16352
912.176	16459
912.291	16436
912.405	16493
912.519	16721
912.633	16603
912.748	16481
912.862	16402
912.976	16318
913.09	16211
913.204	16352
913.318	16249
913.431	16455
913.545	16451
913.659	16485
913.772	16242
913.886	16135
914	16166
914.113	16131
914.226	16204
914.34	16188
914.453	15945
914.566	16112
914.68	16010
914.793	15922
914.906	15720
915.019	15675
915.132	15618
915.245	15625
915.358	15686
915.47	15720
915.583	15808
915.696	15633
915.809	15739
915.921	15831
916.034	15568
916.146	15599
916.259	15576
916.371	15682
916.483	15538
916.595	15496
916.708	15515
916.82	15462
916.932	15496
917.044	15469
917.156	15496
917.268	15363
917.38	15382
917.491	15321
917.603	15237
917.715	15485
917.826	15401
917.938	15386
918.049	15074
918.161	15359
918.272	15447
918.384	15336
918.495	15230
918.606	15077
918.717	15085
918.828	15131
918.939	15108
919.05	15005
919.161	15112
919.272	14788
919.383	14876
919.494	15097
919.604	15199
919.715	15077
919.826	15005
919.936	15108
920.047	15039
920.157	15070
920.267	15100
920.378	15024
920.488	14925
920.598	15218
920.708	15283
920.818	15275
920.928	15097
921.038	15268
921.148	15268
921.258	14902
921.368	14887
921.477	14804
921.587	14735
921.697	14629
921.806	14807
921.916	14636
922.025	14415
922.134	14400
922.244	14309
922.353	14419
922.462	14275
922.571	14237
922.68	13997
922.789	14046
922.898	14119
923.007	13898
923.116	13959
923.224	14050
923.333	13951
923.442	13860
923.55	13833
923.659	13982
923.767	13906
923.876	13750
923.984	13803
924.092	13723
924.201	13769
924.309	13727
924.417	13772
924.525	13651
924.633	13590
924.741	14537
924.849	13518
924.956	13571
925.064	13449
925.172	13312
925.279	13445
925.387	13415
925.494	13480
925.602	13613
925.709	13422
925.816	13316
925.924	13377
926.031	13483
926.138	13384
926.245	13316
926.352	13175
926.459	13384
926.566	13362
926.673	13266
926.779	13206
926.886	13107
926.993	12989
927.099	13042
927.206	12970
927.312	12909
927.419	13103
927.525	12985
927.631	13004
927.737	12939
927.843	12787
927.95	12703
928.056	12783
928.162	12829
928.267	12916
928.373	13304
928.479	12863
928.585	12662
928.69	12859
928.796	12669
928.901	12700
929.007	12483
929.112	12616
929.218	12635
929.323	12601
929.428	12540
929.533	12604
929.638	12418
929.743	12410
929.848	12532
929.953	12464
930.058	12410
930.163	12152
930.267	12117
930.372	12327
930.477	12201
930.581	12384
930.685	12194
930.79	12064
930.894	12106
930.998	12060
931.103	12194
931.207	11802
931.311	11790
931.415	11566
931.519	11391
931.623	11463
