Data from test_V78500241_304.txt Node
Date: Fri Mar 25 15:43:54 CST 2022
User: usil
Spectrometer: V785-0024
Trigger mode: 0
Integration Time (sec): 4.000000E-1
Scans to average: 1
Nonlinearity correction enabled: false
Boxcar width: 0
Storing dark spectrum: false
XAxis mode: Wavelengths
Number of Pixels in Spectrum: 1024
>>>>>Begin Spectral Data<<<<<
801.071	29307
801.214	29337
801.356	29166
801.499	29060
801.641	28881
801.783	28980
801.926	29029
802.068	28999
802.211	28828
802.353	28812
802.496	28649
802.638	28668
802.78	28436
802.923	28557
803.065	28341
803.208	28508
803.35	28584
803.492	28721
803.635	28767
803.777	28626
803.919	28809
804.061	29052
804.204	28908
804.346	28634
804.488	28588
804.63	28721
804.773	28584
804.915	28755
805.057	28820
805.199	28599
805.341	28771
805.483	28717
805.626	28702
805.768	28786
805.91	28888
806.052	28854
806.194	28675
806.336	29064
806.478	28771
806.62	28835
806.762	28965
806.904	29174
807.046	29334
807.188	29326
807.33	29220
807.472	29273
807.614	29223
807.756	29155
807.898	29048
808.04	28866
808.182	29044
808.324	29071
808.465	29109
808.607	29288
808.749	29318
808.891	29551
809.033	29554
809.174	29642
809.316	29372
809.458	29452
809.6	29562
809.741	29452
809.883	29486
810.025	29627
810.166	29786
810.308	29771
810.45	29638
810.591	29722
810.733	29375
810.875	29482
811.016	29284
811.158	29341
811.299	29512
811.441	29684
811.582	29570
811.724	29524
811.865	29406
812.007	29486
812.148	29444
812.29	29512
812.431	29535
812.573	29756
812.714	29973
812.855	30049
812.997	30064
813.138	30190
813.279	30038
813.421	29958
813.562	29988
813.703	29714
813.845	29710
813.986	29334
814.127	29239
814.268	29109
814.41	29181
814.551	29124
814.692	29151
814.833	29075
814.974	29022
815.115	29003
815.256	28835
815.397	28987
815.539	28987
815.68	28820
815.821	28877
815.962	28915
816.103	28968
816.244	28725
816.385	28782
816.526	28630
816.666	28516
816.807	28238
816.948	28284
817.089	28478
817.23	28276
817.371	28329
817.512	28204
817.653	28390
817.793	28246
817.934	28280
818.075	28314
818.216	28341
818.356	28409
818.497	28276
818.638	27930
818.778	28086
818.919	27975
819.06	28158
819.2	28158
819.341	28261
819.481	28215
819.622	28462
819.762	28599
819.903	28390
820.043	28360
820.184	28405
820.324	28390
820.465	28466
820.605	28466
820.746	28371
820.886	28299
821.026	28268
821.167	28226
821.307	28493
821.447	28196
821.588	28238
821.728	28006
821.868	27743
822.008	27583
822.149	27884
822.289	27682
822.429	27553
822.569	27412
822.709	27538
822.849	27154
822.99	27294
823.13	27131
823.27	27081
823.41	27085
823.55	26880
823.69	27032
823.83	26952
823.97	26948
824.11	26853
824.25	26689
824.389	26834
824.529	26944
824.669	26693
824.809	26963
824.949	26891
825.089	26724
825.228	26914
825.368	26708
825.508	26651
825.648	26708
825.787	26629
825.927	26712
826.067	26735
826.206	26640
826.346	26670
826.485	26712
826.625	26655
826.765	26727
826.904	26655
827.044	26480
827.183	26495
827.323	26355
827.462	26404
827.601	26442
827.741	26351
827.88	26294
828.02	26294
828.159	26168
828.298	26396
828.437	26484
828.577	26317
828.716	26450
828.855	26336
828.994	26069
829.134	25909
829.273	26039
829.412	25963
829.551	25940
829.69	26039
829.829	26161
829.968	26153
830.107	26035
830.246	25890
830.385	25830
830.524	25776
830.663	25860
830.802	25765
830.941	25632
831.08	25651
831.219	25662
831.357	25734
831.496	25845
831.635	25521
831.774	25499
831.913	25426
832.051	25343
832.19	25339
832.329	25266
832.467	25221
832.606	25206
832.744	25061
832.883	25266
833.022	25118
833.16	25179
833.299	25274
833.437	25278
833.576	25331
833.714	25156
833.852	25183
833.991	25213
834.129	25392
834.267	25209
834.406	25266
834.544	25282
834.682	25308
834.821	25080
834.959	25354
835.097	25198
835.235	25209
835.373	25263
835.511	25027
835.65	25179
835.788	25145
835.926	24920
836.064	24810
836.202	24916
836.34	25103
836.478	25107
836.615	25000
836.753	25126
836.891	25160
837.029	24928
837.167	25012
837.305	24859
837.443	24844
837.58	24871
837.718	25019
837.856	24844
837.993	24844
838.131	24848
838.269	24692
838.406	24798
838.544	24639
838.681	24601
838.819	24502
838.956	24361
839.094	24311
839.231	24254
839.369	24388
839.506	24661
839.643	24429
839.781	24376
839.918	24197
840.055	24209
840.193	24190
840.33	24072
840.467	24258
840.604	24292
840.742	24544
840.879	24159
841.016	24194
841.153	24106
841.29	24289
841.427	24064
841.564	24106
841.701	24110
841.838	24064
841.975	24125
842.112	24190
842.249	24079
842.385	23980
842.522	24186
842.659	23927
842.796	23946
842.933	23961
843.069	23786
843.206	23916
843.343	24072
843.479	24049
843.616	23946
843.752	23748
843.889	23703
844.025	23813
844.162	23634
844.298	23771
844.435	23615
844.571	23562
844.708	23672
844.844	23798
844.98	23756
845.117	23760
845.253	23570
845.389	23577
845.525	23520
845.661	23459
845.798	23345
845.934	23360
846.07	23296
846.206	23364
846.342	23429
846.478	23345
846.614	23132
846.75	23140
846.886	23052
847.022	23132
847.158	23071
847.294	23060
847.429	22953
847.565	23064
847.701	23307
847.837	22786
847.972	22706
848.108	22812
848.244	22812
848.379	22733
848.515	22736
848.65	22573
848.786	22717
848.921	22664
849.057	22683
849.192	22691
849.328	22710
849.463	22622
849.598	22493
849.734	22523
849.869	22584
850.004	22360
850.14	22527
850.275	22394
850.41	22398
850.545	22424
850.68	22447
850.815	22417
850.95	22249
851.085	22466
851.22	22299
851.355	22394
851.49	22341
851.625	22424
851.76	22405
851.895	22291
852.03	22272
852.165	22314
852.299	22371
852.434	22440
852.569	22443
852.703	22417
852.838	22367
852.973	22493
853.107	22421
853.242	22272
853.376	22109
853.511	22048
853.645	22090
853.78	22230
853.914	22215
854.048	22051
854.183	22207
854.317	22169
854.451	22303
854.585	22257
854.72	22284
854.854	22299
854.988	21972
855.122	22215
855.256	22032
855.39	22124
855.524	22177
855.658	22200
855.792	22341
855.926	22318
856.06	22158
856.194	22310
856.327	22169
856.461	22112
856.595	22143
856.729	22105
856.862	22147
856.996	22154
857.13	22169
857.263	22333
857.397	22310
857.53	22135
857.664	22070
857.797	22223
857.931	22287
858.064	22253
858.197	22230
858.331	22211
858.464	22090
858.597	22025
858.731	22109
858.864	22093
858.997	22101
859.13	22211
859.263	22143
859.396	22166
859.529	22124
859.662	22006
859.795	22112
859.928	22158
860.061	22219
860.194	22299
860.327	22166
860.46	22124
860.592	22112
860.725	22249
860.858	22344
860.99	22173
861.123	21922
861.256	22032
861.388	22097
861.521	22748
861.653	21956
861.786	22010
861.918	22082
862.05	21945
862.183	22128
862.315	22249
862.447	22181
862.58	22158
862.712	21857
862.844	21835
862.976	21945
863.108	21816
863.24	22291
863.372	21720
863.504	21827
863.636	21724
863.768	21865
863.9	21755
864.032	21667
864.164	21747
864.296	21774
864.428	21960
864.559	21934
864.691	21922
864.823	21873
864.954	21819
865.086	21781
865.217	21762
865.349	21553
865.48	21762
865.612	21774
865.743	21717
865.875	21660
866.006	21720
866.137	21720
866.269	21660
866.4	21762
866.531	21618
866.662	21549
866.793	21633
866.924	21606
867.055	21591
867.186	21526
867.317	21538
867.448	21591
867.579	21526
867.71	21553
867.841	21386
867.972	21743
868.103	21622
868.233	21671
868.364	21614
868.495	21633
868.625	21876
868.756	21884
868.886	21690
869.017	21899
869.147	21983
869.278	21915
869.408	21762
869.539	21861
869.669	21907
869.799	21926
869.929	22082
870.06	21892
870.19	22067
870.32	22158
870.45	22223
870.58	22265
870.71	22295
870.84	22344
870.97	22120
871.1	22200
871.23	22493
871.36	22325
871.489	22268
871.619	22333
871.749	22375
871.879	22497
872.008	22618
872.138	22436
872.267	22409
872.397	22284
872.526	22234
872.656	22352
872.785	22204
872.915	22424
873.044	22489
873.173	22599
873.303	22523
873.432	22512
873.561	22668
873.69	22489
873.819	22405
873.948	22455
874.077	22573
874.206	22421
874.335	22504
874.464	22569
874.593	22672
874.722	22641
874.851	22729
874.979	22809
875.108	22694
875.237	22615
875.365	22470
875.494	22615
875.623	22710
875.751	22615
875.88	22660
876.008	22801
876.136	23022
876.265	23094
876.393	23204
876.521	23113
876.65	23109
876.778	23140
876.906	22995
877.034	22923
877.162	23056
877.29	23124
877.418	23071
877.546	23113
877.674	22965
877.802	23067
877.93	23083
878.058	22862
878.185	22892
878.313	23014
878.441	22991
878.568	22862
878.696	22824
878.824	23098
878.951	23143
879.079	23273
879.206	23212
879.333	23098
879.461	23044
879.588	22995
879.715	23113
879.842	23174
879.97	22995
880.097	22869
880.224	22889
880.351	22828
880.478	22812
880.605	22710
880.732	22763
880.859	23018
880.986	22938
881.112	22919
881.239	22797
881.366	22538
881.493	22573
881.619	22291
881.746	22424
881.872	22500
881.999	22337
882.125	22344
882.252	22436
882.378	22428
882.505	22493
882.631	22265
882.757	22173
882.883	22246
883.01	22135
883.136	22086
883.262	21915
883.388	21800
883.514	22051
883.64	22207
883.766	22032
883.892	21960
884.018	21930
884.143	22002
884.269	22002
884.395	21732
884.52	21770
884.646	21576
884.772	21724
884.897	21583
885.023	21838
885.148	21724
885.274	21846
885.399	21759
885.524	21644
885.65	21778
885.775	21766
885.9	21682
886.025	21739
886.15	21770
886.275	21652
886.4	21603
886.525	21641
886.65	21648
886.775	21652
886.9	21679
887.025	21953
887.149	21641
887.274	21603
887.399	21412
887.523	21519
887.648	21416
887.773	21344
887.897	21538
888.021	21526
888.146	21416
888.27	21511
888.395	21591
888.519	21485
888.643	21439
888.767	21549
888.891	21378
889.015	21252
889.139	21367
889.263	21180
889.387	21329
889.511	21389
889.635	21348
889.759	21180
889.883	21157
890.006	21203
890.13	21317
890.254	21142
890.377	21032
890.501	20937
890.624	20975
890.748	21024
890.871	20948
890.995	20845
891.118	20758
891.241	20785
891.364	20864
891.488	20872
891.611	20815
891.734	20708
891.857	20906
891.98	20864
892.103	20826
892.226	20762
892.349	20788
892.471	20621
892.594	20625
892.717	20663
892.839	20697
892.962	20670
893.085	20762
893.207	20663
893.33	20533
893.452	20629
893.575	20686
893.697	20636
893.819	20785
893.941	20899
894.064	20826
894.186	20571
894.308	20716
894.43	20701
894.552	20830
894.674	20830
894.796	20625
894.918	20651
895.04	20746
895.161	20697
895.283	20659
895.405	20674
895.526	20811
895.648	20598
895.769	20644
895.891	20644
896.012	20861
896.134	20868
896.255	20807
896.376	20575
896.498	20693
896.619	20750
896.74	20842
896.861	20735
896.982	21074
897.103	21233
897.224	20883
897.345	20967
897.466	20807
897.587	20960
897.708	21070
897.828	21070
897.949	20861
898.07	20800
898.19	20864
898.311	21020
898.431	20857
898.552	20853
898.672	20910
898.792	20914
898.913	20960
899.033	20743
899.153	20731
899.273	20568
899.393	20575
899.513	20667
899.633	20575
899.753	20617
899.873	20560
899.993	20655
900.113	20606
900.232	20522
900.352	20587
900.472	20503
900.591	20362
900.711	20499
900.83	20355
900.95	20488
901.069	20636
901.189	20256
901.308	20107
901.427	19993
901.546	19959
901.665	20130
901.784	19925
901.904	19868
902.023	19742
902.141	19597
902.26	19468
902.379	19620
902.498	19400
902.617	19426
902.735	19468
902.854	19327
902.973	19301
903.091	19217
903.21	19213
903.328	19046
903.446	19080
903.565	18878
903.683	18943
903.801	18852
903.919	18833
904.038	18829
904.156	18703
904.274	18913
904.392	18582
904.51	18650
904.627	18684
904.745	18719
904.863	18639
904.981	18448
905.098	18372
905.216	18258
905.334	18266
905.451	18448
905.569	18315
905.686	18376
905.803	18422
905.921	18015
906.038	18258
906.155	18239
906.272	18030
906.389	17912
906.506	17950
906.623	17802
906.74	17874
906.857	17726
906.974	17752
907.091	17855
907.208	18003
907.324	17882
907.441	17672
907.557	17520
907.674	17600
907.79	17543
907.907	17474
908.023	17570
908.139	17532
908.256	17444
908.372	17482
908.488	17315
908.604	17284
908.72	17303
908.836	17273
908.952	17189
909.068	17307
909.184	17516
909.3	17303
909.415	17292
909.531	17185
909.647	16946
909.762	16938
909.878	16881
909.993	16968
910.108	16885
910.224	16927
910.339	16885
910.454	16782
910.57	16774
910.685	16752
910.8	16923
910.915	16934
911.03	16839
911.145	16603
911.259	16500
911.374	16561
911.489	16402
911.604	16512
911.718	16211
911.833	16348
911.947	16196
912.062	16082
912.176	16280
912.291	16276
912.405	16181
912.519	16432
912.633	16516
912.748	16200
912.862	16147
912.976	16051
913.09	16029
913.204	16055
913.318	16082
913.431	16097
913.545	16082
913.659	16112
913.772	15964
913.886	15869
914	15884
914.113	15991
914.226	15979
914.34	15930
914.453	15797
914.566	15812
914.68	15698
914.793	15660
914.906	15652
915.019	15515
915.132	15424
915.245	15408
915.358	15507
915.47	15428
915.583	15458
915.696	15473
915.809	15538
915.921	15557
916.034	15306
916.146	15283
916.259	15272
916.371	15443
916.483	15332
916.595	15211
916.708	15310
916.82	15211
916.932	15298
917.044	15169
917.156	15173
917.268	15089
917.38	15093
917.491	14982
917.603	15165
917.715	15161
917.826	15085
917.938	14971
918.049	14998
918.161	14941
918.272	15093
918.384	15055
918.495	15066
918.606	14861
918.717	14773
918.828	14906
918.939	14895
919.05	14739
919.161	14796
919.272	14648
919.383	14693
919.494	14887
919.604	14929
919.715	14777
919.826	14716
919.936	14754
920.047	14804
920.157	14746
920.267	14960
920.378	14861
920.488	14773
920.598	14929
920.708	15089
920.818	14918
920.928	14876
921.038	15028
921.148	14982
921.258	14804
921.368	14617
921.477	14484
921.587	14484
921.697	14313
921.806	14579
921.916	14404
922.025	14164
922.134	14145
922.244	14077
922.353	14199
922.462	14027
922.571	13887
922.68	13734
922.789	13712
922.898	13689
923.007	13693
923.116	13753
923.224	13723
923.333	13704
923.442	13605
923.55	13605
923.659	13594
923.767	13643
923.876	13559
923.984	13613
924.092	13491
924.201	13575
924.309	13453
924.417	13514
924.525	13521
924.633	13381
924.741	14374
924.849	13164
924.956	13346
925.064	13168
925.172	13069
925.279	13190
925.387	13141
925.494	13190
925.602	13274
925.709	13141
925.816	13027
925.924	13072
926.031	13190
926.138	13091
926.245	13152
926.352	12973
926.459	13137
926.566	13164
926.673	13023
926.779	12878
926.886	12894
926.993	12791
927.099	12814
927.206	12646
927.312	12646
927.419	12715
927.525	12749
927.631	12798
927.737	12570
927.843	12517
927.95	12433
928.056	12528
928.162	12616
928.267	12585
928.373	13206
928.479	12608
928.585	12372
928.69	12433
928.796	12509
928.901	12422
929.007	12254
929.112	12429
929.218	12308
929.323	12273
929.428	12235
929.533	12437
929.638	12171
929.743	12155
929.848	12243
929.953	12175
930.058	12072
930.163	11927
930.267	11984
930.372	12076
930.477	11897
930.581	12106
930.685	11980
930.79	11809
930.894	11745
930.998	11722
931.103	11874
931.207	11524
931.311	11379
931.415	11284
931.519	11197
931.623	11159
