Data from test_V78500241_1321.txt Node
Date: Fri Mar 25 15:50:57 CST 2022
User: usil
Spectrometer: V785-0024
Trigger mode: 0
Integration Time (sec): 4.000000E-1
Scans to average: 1
Nonlinearity correction enabled: false
Boxcar width: 0
Storing dark spectrum: false
XAxis mode: Wavelengths
Number of Pixels in Spectrum: 1024
>>>>>Begin Spectral Data<<<<<
801.071	28280
801.214	28291
801.356	28070
801.499	28078
801.641	27838
801.783	27732
801.926	27880
802.068	27781
802.211	27823
802.353	27736
802.496	27557
802.638	27504
802.78	27576
802.923	27507
803.065	27435
803.208	27397
803.35	27557
803.492	27686
803.635	27614
803.777	27629
803.919	27652
804.061	28082
804.204	27808
804.346	27701
804.488	27542
804.63	27694
804.773	27747
804.915	27793
805.057	27934
805.199	27770
805.341	27884
805.483	27991
805.626	27941
805.768	27857
805.91	27956
806.052	27964
806.194	28021
806.336	28070
806.478	27918
806.62	27880
806.762	27949
806.904	28192
807.046	28367
807.188	28386
807.33	28371
807.472	28527
807.614	28306
807.756	28322
807.898	28291
808.04	28276
808.182	28124
808.324	28242
808.465	28226
808.607	28500
808.749	28603
808.891	28637
809.033	28831
809.174	28580
809.316	28516
809.458	28691
809.6	28637
809.741	28664
809.883	28847
810.025	28725
810.166	28809
810.308	28801
810.45	28790
810.591	28873
810.733	28546
810.875	28706
811.016	28618
811.158	28508
811.299	28694
811.441	28668
811.582	28820
811.724	28694
811.865	28538
812.007	28459
812.148	28713
812.29	28637
812.431	28710
812.573	28972
812.714	29022
812.855	29128
812.997	29178
813.138	29235
813.279	29185
813.421	29067
813.562	28869
813.703	28957
813.845	28843
813.986	28557
814.127	28333
814.268	28493
814.41	28352
814.551	28337
814.692	28421
814.833	28276
814.974	28322
815.115	28382
815.256	28246
815.397	28238
815.539	28105
815.68	28040
815.821	28276
815.962	28177
816.103	28078
816.244	27918
816.385	27842
816.526	27884
816.666	27644
816.807	27553
816.948	27728
817.089	27751
817.23	27648
817.371	27511
817.512	27553
817.653	27625
817.793	27663
817.934	27549
818.075	27549
818.216	27542
818.356	27534
818.497	27374
818.638	27355
818.778	27412
818.919	27211
819.06	27473
819.2	27382
819.341	27583
819.481	27553
819.622	27660
819.762	27953
819.903	27888
820.043	27797
820.184	27644
820.324	27728
820.465	27679
820.605	27698
820.746	27720
820.886	27736
821.026	27759
821.167	27610
821.307	27743
821.447	27618
821.588	27583
821.728	27424
821.868	27184
822.008	27108
822.149	27119
822.289	27066
822.429	26769
822.569	26796
822.709	26838
822.849	26514
822.99	26667
823.13	26484
823.27	26579
823.41	26408
823.55	26286
823.69	26404
823.83	26370
823.97	26339
824.11	26271
824.25	26206
824.389	26275
824.529	26259
824.669	26237
824.809	26324
824.949	26237
825.089	26370
825.228	26374
825.368	26062
825.508	26214
825.648	26119
825.787	26138
825.927	26119
826.067	26084
826.206	26142
826.346	26130
826.485	26111
826.625	25902
826.765	26058
826.904	26157
827.044	25906
827.183	25932
827.323	25791
827.462	25955
827.601	25666
827.741	25837
827.88	25864
828.02	25833
828.159	25753
828.298	25807
828.437	25887
828.577	25590
828.716	25784
828.855	25856
828.994	25510
829.134	25365
829.273	25514
829.412	25518
829.551	25502
829.69	25552
829.829	25510
829.968	25643
830.107	25609
830.246	25495
830.385	25506
830.524	25381
830.663	25327
830.802	25183
830.941	25107
831.08	25072
831.219	25133
831.357	25190
831.496	25339
831.635	25129
831.774	24989
831.913	25126
832.051	24787
832.19	24882
832.329	24954
832.467	24837
832.606	24677
832.744	24867
832.883	24821
833.022	24715
833.16	24772
833.299	24977
833.437	24810
833.576	24928
833.714	24806
833.852	24810
833.991	24894
834.129	24894
834.267	24859
834.406	24878
834.544	24829
834.682	24817
834.821	24726
834.959	25095
835.097	24825
835.235	24852
835.373	24863
835.511	24722
835.65	24623
835.788	24730
835.926	24464
836.064	24452
836.202	24578
836.34	24719
836.478	24791
836.615	24589
836.753	24544
836.891	24875
837.029	24749
837.167	24608
837.305	24582
837.443	24460
837.58	24547
837.718	24509
837.856	24589
837.993	24494
838.131	24346
838.269	24422
838.406	24388
838.544	24330
838.681	24136
838.819	24197
838.956	24053
839.094	23973
839.231	23965
839.369	24079
839.506	24247
839.643	24281
839.781	24083
839.918	23847
840.055	24022
840.193	24007
840.33	23950
840.467	23935
840.604	23980
840.742	24190
840.879	23813
841.016	23916
841.153	23851
841.29	24003
841.427	23897
841.564	23889
841.701	23954
841.838	23843
841.975	23623
842.112	23840
842.249	23570
842.385	23691
842.522	23817
842.659	23767
842.796	23729
842.933	23615
843.069	23509
843.206	23691
843.343	23786
843.479	23653
843.616	23619
843.752	23486
843.889	23322
844.025	23611
844.162	23455
844.298	23509
844.435	23463
844.571	23406
844.708	23509
844.844	23570
844.98	23547
845.117	23398
845.253	23376
845.389	23337
845.525	23277
845.661	23330
845.798	23155
845.934	23269
846.07	23052
846.206	23242
846.342	23273
846.478	23056
846.614	22866
846.75	22904
846.886	22850
847.022	22995
847.158	22923
847.294	22854
847.429	22850
847.565	22968
847.701	23185
847.837	22596
847.972	22603
848.108	22668
848.244	22702
848.379	22462
848.515	22485
848.65	22557
848.786	22596
848.921	22451
849.057	22569
849.192	22538
849.328	22554
849.463	22489
849.598	22519
849.734	22280
849.869	22246
850.004	22226
850.14	22192
850.275	22291
850.41	22105
850.545	22185
850.68	22147
850.815	22249
850.95	22299
851.085	22360
851.22	22363
851.355	22226
851.49	22196
851.625	22310
851.76	22272
851.895	22162
852.03	22032
852.165	22249
852.299	22306
852.434	22462
852.569	22299
852.703	22143
852.838	22314
852.973	22413
853.107	22375
853.242	22200
853.376	22181
853.511	21960
853.645	22067
853.78	22249
853.914	22051
854.048	22067
854.183	22158
854.317	22051
854.451	22280
854.585	22074
854.72	22082
854.854	22044
854.988	21922
855.122	21994
855.256	21876
855.39	22070
855.524	22010
855.658	22059
855.792	22147
855.926	22051
856.06	22070
856.194	22101
856.327	22067
856.461	22063
856.595	21941
856.729	22105
856.862	22124
856.996	22070
857.13	22223
857.263	22166
857.397	22131
857.53	22070
857.664	22143
857.797	22177
857.931	22230
858.064	22120
858.197	22211
858.331	21987
858.464	22063
858.597	21979
858.731	21991
858.864	22112
858.997	22135
859.13	22040
859.263	22067
859.396	22215
859.529	22029
859.662	22025
859.795	21915
859.928	22181
860.061	22215
860.194	22265
860.327	22116
860.46	22082
860.592	22223
860.725	22303
860.858	22181
860.99	22101
861.123	22105
861.256	21930
861.388	22013
861.521	22767
861.653	21975
861.786	21857
861.918	21907
862.05	21865
862.183	22032
862.315	22021
862.447	21994
862.58	22040
862.712	21755
862.844	21808
862.976	21835
863.108	21797
863.24	22253
863.372	21739
863.504	21644
863.636	21873
863.768	21785
863.9	21793
864.032	21686
864.164	21671
864.296	21728
864.428	21907
864.559	21823
864.691	21873
864.823	21770
864.954	21736
865.086	21812
865.217	21667
865.349	21622
865.48	21591
865.612	21660
865.743	21751
865.875	21679
866.006	21553
866.137	21641
866.269	21618
866.4	21599
866.531	21580
866.662	21583
866.793	21637
866.924	21568
867.055	21606
867.186	21671
867.317	21568
867.448	21496
867.579	21462
867.71	21519
867.841	21454
867.972	21637
868.103	21610
868.233	21580
868.364	21568
868.495	21720
868.625	21819
868.756	21861
868.886	21709
869.017	21743
869.147	21937
869.278	21934
869.408	21789
869.539	21888
869.669	21903
869.799	21827
869.929	21949
870.06	22021
870.19	22139
870.32	22040
870.45	22131
870.58	22181
870.71	22398
870.84	22238
870.97	22284
871.1	22177
871.23	22398
871.36	22421
871.489	22314
871.619	22512
871.749	22421
871.879	22618
872.008	22462
872.138	22485
872.267	22382
872.397	22356
872.526	22291
872.656	22261
872.785	22272
872.915	22386
873.044	22554
873.173	22561
873.303	22596
873.432	22455
873.561	22516
873.69	22432
873.819	22390
873.948	22519
874.077	22371
874.206	22542
874.335	22421
874.464	22584
874.593	22664
874.722	22622
874.851	22649
874.979	22645
875.108	22542
875.237	22596
875.365	22626
875.494	22691
875.623	22740
875.751	22675
875.88	22706
876.008	22896
876.136	22839
876.265	23033
876.393	23098
876.521	23124
876.65	23102
876.778	22995
876.906	22987
877.034	22965
877.162	22942
877.29	22953
877.418	23037
877.546	22896
877.674	22923
877.802	22999
877.93	22968
878.058	22953
878.185	22881
878.313	22896
878.441	22938
878.568	22786
878.696	22980
878.824	23128
878.951	23124
879.079	23200
879.206	23280
879.333	22991
879.461	23006
879.588	23018
879.715	23113
879.842	23216
879.97	23136
880.097	22911
880.224	22786
880.351	22839
880.478	22797
880.605	22786
880.732	22877
880.859	23022
880.986	22949
881.112	22847
881.239	22733
881.366	22656
881.493	22512
881.619	22455
881.746	22333
881.872	22459
881.999	22314
882.125	22261
882.252	22443
882.378	22405
882.505	22500
882.631	22314
882.757	22059
882.883	22188
883.01	22284
883.136	22116
883.262	21949
883.388	21846
883.514	22067
883.64	22162
883.766	21903
883.892	21732
884.018	21819
884.143	21979
884.269	22185
884.395	21732
884.52	21751
884.646	21705
884.772	21614
884.897	21603
885.023	21656
885.148	21835
885.274	21846
885.399	21884
885.524	21614
885.65	21682
885.775	21732
885.9	21652
886.025	21854
886.15	21854
886.275	21622
886.4	21542
886.525	21572
886.65	21622
886.775	21485
886.9	21743
887.025	21918
887.149	21686
887.274	21603
887.399	21428
887.523	21393
887.648	21405
887.773	21351
887.897	21603
888.021	21583
888.146	21420
888.27	21637
888.395	21644
888.519	21583
888.643	21511
888.767	21481
888.891	21374
889.015	21283
889.139	21378
889.263	21214
889.387	21317
889.511	21447
889.635	21443
889.759	21249
889.883	21283
890.006	21317
890.13	21378
890.254	21199
890.377	21207
890.501	21005
890.624	21039
890.748	20941
890.871	20910
890.995	20739
891.118	20750
891.241	20788
891.364	20883
891.488	20933
891.611	20819
891.734	20788
891.857	20853
891.98	20819
892.103	20925
892.226	20849
892.349	20678
892.471	20587
892.594	20724
892.717	20785
892.839	20796
892.962	20800
893.085	20697
893.207	20769
893.33	20625
893.452	20644
893.575	20777
893.697	20686
893.819	20883
893.941	20921
894.064	20785
894.186	20583
894.308	20583
894.43	20773
894.552	20910
894.674	20769
894.796	20587
894.918	20689
895.04	20613
895.161	20750
895.283	20781
895.405	20678
895.526	20651
895.648	20754
895.769	20765
895.891	20769
896.012	20834
896.134	20769
896.255	20640
896.376	20644
896.498	20621
896.619	20823
896.74	20693
896.861	20785
896.982	20979
897.103	21077
897.224	20971
897.345	20975
897.466	20902
897.587	20902
897.708	21028
897.828	20872
897.949	20800
898.07	20678
898.19	20807
898.311	21017
898.431	20842
898.552	20887
898.672	20986
898.792	20929
898.913	20864
899.033	20800
899.153	20701
899.273	20499
899.393	20777
899.513	20640
899.633	20629
899.753	20659
899.873	20541
899.993	20556
900.113	20617
900.232	20609
900.352	20530
900.472	20499
900.591	20480
900.711	20419
900.83	20377
900.95	20560
901.069	20518
901.189	20362
901.308	20069
901.427	20001
901.546	19955
901.665	20039
901.784	20069
901.904	19860
902.023	19746
902.141	19491
902.26	19521
902.379	19681
902.498	19510
902.617	19510
902.735	19571
902.854	19525
902.973	19343
903.091	19171
903.21	19247
903.328	19179
903.446	19110
903.565	18993
903.683	19019
903.801	18802
903.919	18924
904.038	18825
904.156	18696
904.274	18825
904.392	18650
904.51	18673
904.627	18620
904.745	18791
904.863	18764
904.981	18513
905.098	18437
905.216	18327
905.334	18456
905.451	18429
905.569	18308
905.686	18350
905.803	18330
905.921	18213
906.038	18232
906.155	18213
906.272	18011
906.389	18098
906.506	17904
906.623	17961
906.74	17908
906.857	17832
906.974	17836
907.091	17840
907.208	18087
907.324	18007
907.441	17764
907.557	17752
907.674	17722
907.79	17623
907.907	17676
908.023	17733
908.139	17611
908.256	17566
908.372	17467
908.488	17490
908.604	17360
908.72	17360
908.836	17334
908.952	17360
909.068	17341
909.184	17463
909.3	17372
909.415	17337
909.531	17425
909.647	17033
909.762	17056
909.878	16980
909.993	17045
910.108	16957
910.224	17018
910.339	17041
910.454	17025
910.57	16877
910.685	16801
910.8	17071
910.915	16946
911.03	16809
911.145	16656
911.259	16611
911.374	16649
911.489	16637
911.604	16493
911.718	16402
911.833	16424
911.947	16310
912.062	16139
912.176	16440
912.291	16360
912.405	16447
912.519	16592
912.633	16565
912.748	16348
912.862	16390
912.976	16169
913.09	16188
913.204	16207
913.318	16238
913.431	16226
913.545	16276
913.659	16238
913.772	16188
913.886	16040
914	15979
914.113	16116
914.226	16036
914.34	15991
914.453	15869
914.566	16029
914.68	15899
914.793	15800
914.906	15625
915.019	15606
915.132	15507
915.245	15534
915.358	15576
915.47	15568
915.583	15534
915.696	15469
915.809	15568
915.921	15770
916.034	15485
916.146	15439
916.259	15393
916.371	15618
916.483	15450
916.595	15443
916.708	15256
916.82	15359
916.932	15370
917.044	15382
917.156	15336
917.268	15264
917.38	15230
917.491	15169
917.603	15237
917.715	15313
917.826	15233
917.938	15058
918.049	15100
918.161	15180
918.272	15275
918.384	15306
918.495	15081
918.606	14975
918.717	14876
918.828	15062
918.939	15089
919.05	14823
919.161	14876
919.272	14678
919.383	14750
919.494	15032
919.604	15161
919.715	14956
919.826	14891
919.936	14804
920.047	14956
920.157	14880
920.267	15055
920.378	14895
920.488	14823
920.598	15157
920.708	15245
920.818	15039
920.928	15127
921.038	15157
921.148	15123
921.258	14838
921.368	14727
921.477	14549
921.587	14610
921.697	14484
921.806	14705
921.916	14594
922.025	14320
922.134	14290
922.244	14244
922.353	14317
922.462	14161
922.571	14145
922.68	14008
922.789	13902
922.898	13944
923.007	13917
923.116	13860
923.224	13871
923.333	13875
923.442	13784
923.55	13715
923.659	13780
923.767	13822
923.876	13693
923.984	13742
924.092	13609
924.201	13674
924.309	13636
924.417	13662
924.525	13586
924.633	13578
924.741	14480
924.849	13354
924.956	13556
925.064	13362
925.172	13324
925.279	13324
925.387	13335
925.494	13316
925.602	13430
925.709	13415
925.816	13175
925.924	13282
926.031	13365
926.138	13244
926.245	13282
926.352	13095
926.459	13274
926.566	13369
926.673	13247
926.779	13065
926.886	13050
926.993	12962
927.099	12890
927.206	12985
927.312	12833
927.419	12875
927.525	12833
927.631	12844
927.737	12650
927.843	12779
927.95	12627
928.056	12665
928.162	12764
928.267	12840
928.373	13221
928.479	12852
928.585	12540
928.69	12490
928.796	12662
928.901	12589
929.007	12418
929.112	12536
929.218	12509
929.323	12437
929.428	12414
929.533	12582
929.638	12391
929.743	12346
929.848	12384
929.953	12342
930.058	12251
930.163	12140
930.267	12087
930.372	12308
930.477	12003
930.581	12232
930.685	12106
930.79	11980
930.894	12057
930.998	11882
931.103	12136
931.207	11604
931.311	11623
931.415	11611
931.519	11379
931.623	11296
