Data from test_V78500241_2472.txt Node
Date: Fri Mar 25 15:58:55 CST 2022
User: usil
Spectrometer: V785-0024
Trigger mode: 0
Integration Time (sec): 4.000000E-1
Scans to average: 1
Nonlinearity correction enabled: false
Boxcar width: 0
Storing dark spectrum: false
XAxis mode: Wavelengths
Number of Pixels in Spectrum: 1024
>>>>>Begin Spectral Data<<<<<
801.071	28238
801.214	28360
801.356	28162
801.499	27949
801.641	28044
801.783	27888
801.926	27975
802.068	28010
802.211	27857
802.353	27857
802.496	27652
802.638	27694
802.78	27637
802.923	27420
803.065	27447
803.208	27519
803.35	27713
803.492	27785
803.635	27838
803.777	27713
803.919	27846
804.061	28188
804.204	27781
804.346	27804
804.488	27770
804.63	27770
804.773	27694
804.915	27975
805.057	27956
805.199	27766
805.341	27739
805.483	27895
805.626	27972
805.768	27838
805.91	27956
806.052	27934
806.194	27956
806.336	28135
806.478	28013
806.62	27934
806.762	28154
806.904	28211
807.046	28455
807.188	28401
807.33	28367
807.472	28504
807.614	28497
807.756	28466
807.898	28230
808.04	28303
808.182	28246
808.324	28204
808.465	28329
808.607	28622
808.749	28592
808.891	28801
809.033	28733
809.174	28691
809.316	28721
809.458	28653
809.6	28588
809.741	28774
809.883	28668
810.025	28885
810.166	28968
810.308	28927
810.45	28881
810.591	28942
810.733	28653
810.875	28573
811.016	28557
811.158	28546
811.299	28683
811.441	28679
811.582	28828
811.724	28508
811.865	28664
812.007	28577
812.148	28641
812.29	28729
812.431	28816
812.573	28984
812.714	28976
812.855	29189
812.997	29216
813.138	29288
813.279	29368
813.421	29105
813.562	29155
813.703	28968
813.845	28847
813.986	28588
814.127	28478
814.268	28367
814.41	28299
814.551	28318
814.692	28348
814.833	28143
814.974	28329
815.115	28417
815.256	28116
815.397	28105
815.539	28207
815.68	28158
815.821	28078
815.962	28074
816.103	28032
816.244	27998
816.385	27956
816.526	27873
816.666	27766
816.807	27656
816.948	27766
817.089	27713
817.23	27690
817.371	27637
817.512	27557
817.653	27622
817.793	27641
817.934	27542
818.075	27511
818.216	27625
818.356	27675
818.497	27435
818.638	27420
818.778	27389
818.919	27431
819.06	27389
819.2	27485
819.341	27599
819.481	27606
819.622	27747
819.762	27808
819.903	27964
820.043	27835
820.184	27835
820.324	27618
820.465	27698
820.605	27808
820.746	27800
820.886	27671
821.026	27679
821.167	27751
821.307	27797
821.447	27625
821.588	27572
821.728	27473
821.868	27420
822.008	27051
822.149	27131
822.289	27173
822.429	26838
822.569	26807
822.709	26746
822.849	26674
822.99	26712
823.13	26587
823.27	26549
823.41	26469
823.55	26362
823.69	26461
823.83	26526
823.97	26347
824.11	26294
824.25	26237
824.389	26199
824.529	26332
824.669	26187
824.809	26328
824.949	26248
825.089	26358
825.228	26164
825.368	26046
825.508	26145
825.648	26065
825.787	26126
825.927	26214
826.067	26218
826.206	26084
826.346	26153
826.485	26187
826.625	26195
826.765	26202
826.904	26199
827.044	26012
827.183	25936
827.323	25940
827.462	25856
827.601	25826
827.741	25940
827.88	25837
828.02	25811
828.159	25795
828.298	25875
828.437	25868
828.577	25776
828.716	25841
828.855	25696
828.994	25506
829.134	25506
829.273	25647
829.412	25552
829.551	25403
829.69	25445
829.829	25407
829.968	25544
830.107	25502
830.246	25552
830.385	25525
830.524	25403
830.663	25343
830.802	25282
830.941	25209
831.08	25160
831.219	25050
831.357	25164
831.496	25362
831.635	25160
831.774	25202
831.913	25000
832.051	24806
832.19	24909
832.329	25019
832.467	24901
832.606	24673
832.744	24787
832.883	24791
833.022	24806
833.16	24894
833.299	24928
833.437	24817
833.576	24985
833.714	24848
833.852	24996
833.991	25008
834.129	24867
834.267	24973
834.406	24958
834.544	24882
834.682	24901
834.821	24935
834.959	25046
835.097	24817
835.235	24909
835.373	24871
835.511	24806
835.65	24608
835.788	24772
835.926	24483
836.064	24467
836.202	24521
836.34	24757
836.478	24734
836.615	24578
836.753	24863
836.891	24654
837.029	24711
837.167	24650
837.305	24669
837.443	24623
837.58	24517
837.718	24582
837.856	24505
837.993	24391
838.131	24517
838.269	24372
838.406	24467
838.544	24319
838.681	24190
838.819	24095
838.956	23939
839.094	23973
839.231	24022
839.369	24125
839.506	24388
839.643	24186
839.781	23946
839.918	23786
840.055	24011
840.193	23988
840.33	23954
840.467	23939
840.604	24007
840.742	24155
840.879	23809
841.016	23878
841.153	23798
841.29	23969
841.427	23931
841.564	23927
841.701	23901
841.838	23874
841.975	23760
842.112	23745
842.249	23779
842.385	23615
842.522	23897
842.659	23729
842.796	23638
842.933	23615
843.069	23611
843.206	23623
843.343	23703
843.479	23581
843.616	23604
843.752	23463
843.889	23490
844.025	23642
844.162	23273
844.298	23505
844.435	23512
844.571	23349
844.708	23505
844.844	23539
844.98	23520
845.117	23570
845.253	23391
845.389	23269
845.525	23254
845.661	23318
845.798	23166
845.934	23280
846.07	23231
846.206	23147
846.342	23383
846.478	23197
846.614	22831
846.75	22881
846.886	23041
847.022	23014
847.158	22889
847.294	22976
847.429	22953
847.565	22847
847.701	23052
847.837	22660
847.972	22649
848.108	22702
848.244	22763
848.379	22459
848.515	22493
848.65	22538
848.786	22561
848.921	22504
849.057	22615
849.192	22569
849.328	22466
849.463	22440
849.598	22481
849.734	22455
849.869	22405
850.004	22318
850.14	22219
850.275	22246
850.41	22207
850.545	22101
850.68	22272
850.815	22265
850.95	22207
851.085	22284
851.22	22394
851.355	22360
851.49	22261
851.625	22215
851.76	22246
851.895	22238
852.03	22291
852.165	22257
852.299	22322
852.434	22261
852.569	22185
852.703	22249
852.838	22306
852.973	22341
853.107	22322
853.242	22169
853.376	22143
853.511	21915
853.645	21922
853.78	22207
853.914	22017
854.048	22032
854.183	22082
854.317	22181
854.451	22261
854.585	21998
854.72	22048
854.854	22120
854.988	22017
855.122	21998
855.256	21964
855.39	22040
855.524	22063
855.658	22166
855.792	22017
855.926	22082
856.06	22177
856.194	22139
856.327	22040
856.461	22013
856.595	22063
856.729	22097
856.862	22124
856.996	22074
857.13	22169
857.263	22173
857.397	22402
857.53	21991
857.664	22086
857.797	22105
857.931	22109
858.064	21994
858.197	22169
858.331	22036
858.464	22032
858.597	21960
858.731	21956
858.864	22074
858.997	22074
859.13	22036
859.263	22040
859.396	22055
859.529	22006
859.662	22105
859.795	22051
859.928	22109
860.061	22139
860.194	22211
860.327	22093
860.46	22173
860.592	22158
860.725	22284
860.858	22226
860.99	22109
861.123	22017
861.256	21937
861.388	21930
861.521	22904
861.653	21998
861.786	21876
861.918	21835
862.05	21922
862.183	22025
862.315	21926
862.447	21979
862.58	22010
862.712	21816
862.844	21682
862.976	21899
863.108	21747
863.24	22253
863.372	21660
863.504	21739
863.636	21774
863.768	21793
863.9	21755
864.032	21732
864.164	21728
864.296	21873
864.428	21907
864.559	21884
864.691	21781
864.823	21724
864.954	21785
865.086	21785
865.217	21663
865.349	21641
865.48	21587
865.612	21690
865.743	21808
865.875	21591
866.006	21606
866.137	21679
866.269	21690
866.4	21614
866.531	21583
866.662	21583
866.793	21660
866.924	21637
867.055	21583
867.186	21652
867.317	21572
867.448	21534
867.579	21526
867.71	21378
867.841	21523
867.972	21488
868.103	21564
868.233	21603
868.364	21595
868.495	21713
868.625	21762
868.756	21991
868.886	21698
869.017	21808
869.147	21941
869.278	21850
869.408	21876
869.539	21816
869.669	21960
869.799	21812
869.929	21941
870.06	21945
870.19	22211
870.32	22105
870.45	22230
870.58	22299
870.71	22352
870.84	22287
870.97	22204
871.1	22246
871.23	22421
871.36	22436
871.489	22375
871.619	22390
871.749	22363
871.879	22470
872.008	22519
872.138	22451
872.267	22470
872.397	22318
872.526	22143
872.656	22356
872.785	22162
872.915	22394
873.044	22489
873.173	22402
873.303	22424
873.432	22500
873.561	22580
873.69	22542
873.819	22413
873.948	22668
874.077	22462
874.206	22409
874.335	22344
874.464	22554
874.593	22622
874.722	22653
874.851	22767
874.979	22656
875.108	22672
875.237	22588
875.365	22577
875.494	22641
875.623	22736
875.751	22656
875.88	22649
876.008	22736
876.136	22835
876.265	23067
876.393	23197
876.521	23181
876.65	23121
876.778	23052
876.906	22885
877.034	23041
877.162	23185
877.29	22843
877.418	22999
877.546	23113
877.674	23098
877.802	23105
877.93	23067
878.058	23041
878.185	22961
878.313	22949
878.441	22953
878.568	22889
878.696	22877
878.824	22991
878.951	23159
879.079	23231
879.206	23341
879.333	23128
879.461	22991
879.588	23048
879.715	23079
879.842	23353
879.97	23098
880.097	22873
880.224	22831
880.351	22946
880.478	22805
880.605	22942
880.732	22790
880.859	22987
880.986	22873
881.112	22763
881.239	22656
881.366	22577
881.493	22554
881.619	22443
881.746	22485
881.872	22318
881.999	22314
882.125	22363
882.252	22455
882.378	22398
882.505	22519
882.631	22204
882.757	22280
882.883	22188
883.01	22093
883.136	22090
883.262	21945
883.388	21945
883.514	22051
883.64	22124
883.766	21804
883.892	21903
884.018	21895
884.143	22017
884.269	22135
884.395	21861
884.52	21701
884.646	21808
884.772	21610
884.897	21568
885.023	21705
885.148	21869
885.274	21945
885.399	21812
885.524	21732
885.65	21800
885.775	21770
885.9	21751
886.025	21857
886.15	21644
886.275	21686
886.4	21561
886.525	21553
886.65	21603
886.775	21709
886.9	21762
887.025	21804
887.149	21762
887.274	21564
887.399	21564
887.523	21389
887.648	21466
887.773	21435
887.897	21618
888.021	21549
888.146	21458
888.27	21507
888.395	21561
888.519	21488
888.643	21492
888.767	21557
888.891	21447
889.015	21233
889.139	21157
889.263	21298
889.387	21424
889.511	21447
889.635	21401
889.759	21279
889.883	21123
890.006	21252
890.13	21435
890.254	21173
890.377	21249
890.501	21096
890.624	21104
890.748	21017
890.871	20998
890.995	20773
891.118	20845
891.241	20758
891.364	20937
891.488	21055
891.611	20853
891.734	20838
891.857	20944
891.98	20811
892.103	20941
892.226	20857
892.349	20743
892.471	20583
892.594	20834
892.717	20701
892.839	20648
892.962	20754
893.085	20769
893.207	20750
893.33	20655
893.452	20674
893.575	20811
893.697	20750
893.819	20750
893.941	20857
894.064	20880
894.186	20716
894.308	20556
894.43	20746
894.552	20845
894.674	20876
894.796	20686
894.918	20754
895.04	20716
895.161	20895
895.283	20746
895.405	20632
895.526	20598
895.648	20670
895.769	20629
895.891	20781
896.012	20880
896.134	20834
896.255	20769
896.376	20712
896.498	20720
896.619	20765
896.74	20739
896.861	20720
896.982	20963
897.103	21017
897.224	21005
897.345	20921
897.466	20720
897.587	20845
897.708	21039
897.828	20921
897.949	20868
898.07	20807
898.19	20830
898.311	20880
898.431	20891
898.552	20929
898.672	20933
898.792	21036
898.913	20979
899.033	20811
899.153	20697
899.273	20644
899.393	20659
899.513	20712
899.633	20735
899.753	20659
899.873	20644
899.993	20724
900.113	20670
900.232	20598
900.352	20609
900.472	20465
900.591	20336
900.711	20446
900.83	20336
900.95	20465
901.069	20560
901.189	20347
901.308	20008
901.427	19959
901.546	19963
901.665	19986
901.784	19974
901.904	19955
902.023	19670
902.141	19609
902.26	19563
902.379	19666
902.498	19586
902.617	19434
902.735	19582
902.854	19480
902.973	19453
903.091	19247
903.21	19164
903.328	19206
903.446	19194
903.565	19000
903.683	19034
903.801	18924
903.919	18867
904.038	18932
904.156	18791
904.274	18810
904.392	18757
904.51	18741
904.627	18764
904.745	18776
904.863	18817
904.981	18513
905.098	18437
905.216	18357
905.334	18475
905.451	18346
905.569	18353
905.686	18623
905.803	18437
905.921	18228
906.038	18216
906.155	18258
906.272	18121
906.389	18171
906.506	17954
906.623	17973
906.74	17866
906.857	17893
906.974	17916
907.091	17866
907.208	18079
907.324	17958
907.441	17783
907.557	17596
907.674	17691
907.79	17615
907.907	17592
908.023	17676
908.139	17630
908.256	17619
908.372	17524
908.488	17532
908.604	17368
908.72	17383
908.836	17349
908.952	17273
909.068	17376
909.184	17467
909.3	17414
909.415	17349
909.531	17318
909.647	17140
909.762	16980
909.878	17094
909.993	17025
910.108	16987
910.224	16961
910.339	17014
910.454	16972
910.57	16927
910.685	16866
910.8	17094
910.915	17067
911.03	16839
911.145	16645
911.259	16653
911.374	16615
911.489	16596
911.604	16558
911.718	16341
911.833	16398
911.947	16249
912.062	16143
912.176	16360
912.291	16390
912.405	16394
912.519	16596
912.633	16516
912.748	16322
912.862	16424
912.976	16211
913.09	16093
913.204	16246
913.318	16234
913.431	16344
913.545	16230
913.659	16204
913.772	16215
913.886	16124
914	16032
914.113	16116
914.226	16097
914.34	16078
914.453	15915
914.566	16021
914.68	15907
914.793	15850
914.906	15641
915.019	15595
915.132	15572
915.245	15485
915.358	15561
915.47	15534
915.583	15538
915.696	15637
915.809	15644
915.921	15762
916.034	15469
916.146	15428
916.259	15473
916.371	15618
916.483	15530
916.595	15473
916.708	15389
916.82	15431
916.932	15439
917.044	15313
917.156	15275
917.268	15268
917.38	15272
917.491	15192
917.603	15241
917.715	15283
917.826	15329
917.938	15142
918.049	15123
918.161	15195
918.272	15298
918.384	15245
918.495	15230
918.606	14910
918.717	14861
918.828	14990
918.939	15047
919.05	14887
919.161	14887
919.272	14796
919.383	14708
919.494	14948
919.604	15039
919.715	14975
919.826	14960
919.936	14952
920.047	14910
920.157	14975
920.267	15108
920.378	14937
920.488	14891
920.598	15070
920.708	15230
920.818	15024
920.928	15001
921.038	15184
921.148	15081
921.258	14925
921.368	14773
921.477	14648
921.587	14606
921.697	14495
921.806	14610
921.916	14511
922.025	14381
922.134	14233
922.244	14229
922.353	14271
922.462	14244
922.571	14065
922.68	13890
922.789	13940
922.898	13959
923.007	13856
923.116	14027
923.224	13913
923.333	13868
923.442	13803
923.55	13708
923.659	13814
923.767	13780
923.876	13666
923.984	13765
924.092	13582
924.201	13693
924.309	13647
924.417	13677
924.525	13594
924.633	13704
924.741	14423
924.849	13339
924.956	13464
925.064	13285
925.172	13285
925.279	13373
925.387	13445
925.494	13293
925.602	13369
925.709	13335
925.816	13266
925.924	13259
926.031	13324
926.138	13316
926.245	13331
926.352	13187
926.459	13285
926.566	13388
926.673	13118
926.779	12989
926.886	13012
926.993	12973
927.099	12890
927.206	12821
927.312	12814
927.419	12947
927.525	12947
927.631	12837
927.737	12802
927.843	12719
927.95	12707
928.056	12665
928.162	12662
928.267	12734
928.373	13350
928.479	12719
928.585	12563
928.69	12669
928.796	12696
928.901	12483
929.007	12308
929.112	12559
929.218	12585
929.323	12437
929.428	12433
929.533	12559
929.638	12353
929.743	12319
929.848	12410
929.953	12357
930.058	12201
930.163	12159
930.267	12087
930.372	12129
930.477	11969
930.581	12296
930.685	12213
930.79	12041
930.894	11954
930.998	11961
931.103	12106
931.207	11745
931.311	11638
931.415	11539
931.519	11391
931.623	11315
