Data from test_V78500241_1866.txt Node
Date: Fri Mar 25 15:54:43 CST 2022
User: usil
Spectrometer: V785-0024
Trigger mode: 0
Integration Time (sec): 4.000000E-1
Scans to average: 1
Nonlinearity correction enabled: false
Boxcar width: 0
Storing dark spectrum: false
XAxis mode: Wavelengths
Number of Pixels in Spectrum: 1024
>>>>>Begin Spectral Data<<<<<
801.071	28710
801.214	28710
801.356	28405
801.499	28428
801.641	28314
801.783	28234
801.926	28318
802.068	28215
802.211	28322
802.353	28070
802.496	28070
802.638	27956
802.78	27831
802.923	27968
803.065	27941
803.208	27880
803.35	28044
803.492	28082
803.635	28204
803.777	27983
803.919	28169
804.061	28516
804.204	28131
804.346	28093
804.488	28219
804.63	28226
804.773	28105
804.915	28257
805.057	28325
805.199	28173
805.341	28295
805.483	28466
805.626	28405
805.768	28185
805.91	28379
806.052	28287
806.194	28276
806.336	28535
806.478	28329
806.62	28265
806.762	28508
806.904	28519
807.046	28748
807.188	28831
807.33	28828
807.472	28904
807.614	28721
807.756	28790
807.898	28828
808.04	28664
808.182	28542
808.324	28596
808.465	28596
808.607	28744
808.749	29083
808.891	29067
809.033	29132
809.174	29064
809.316	28930
809.458	28984
809.6	28919
809.741	29212
809.883	29227
810.025	29307
810.166	29204
810.308	29372
810.45	29269
810.591	29151
810.733	29109
810.875	29086
811.016	28908
811.158	28968
811.299	29117
811.441	29311
811.582	29098
811.724	29109
811.865	28991
812.007	29075
812.148	29090
812.29	29098
812.431	29265
812.573	29368
812.714	29452
812.855	29566
812.997	29604
813.138	29786
813.279	29676
813.421	29665
813.562	29512
813.703	29421
813.845	29315
813.986	29025
814.127	28885
814.268	28904
814.41	28858
814.551	28801
814.692	28725
814.833	28752
814.974	28687
815.115	28885
815.256	28668
815.397	28706
815.539	28546
815.68	28698
815.821	28542
815.962	28580
816.103	28417
816.244	28325
816.385	28390
816.526	28398
816.666	28150
816.807	27956
816.948	27979
817.089	28268
817.23	28105
817.371	28040
817.512	28070
817.653	28086
817.793	27914
817.934	28010
818.075	28135
818.216	28055
818.356	27846
818.497	27968
818.638	27766
818.778	27831
818.919	27774
819.06	27846
819.2	27941
819.341	28055
819.481	28112
819.622	28086
819.762	28333
819.903	28394
820.043	28185
820.184	28128
820.324	28120
820.465	28230
820.605	28257
820.746	28131
820.886	28025
821.026	28150
821.167	28090
821.307	28238
821.447	28223
821.588	27876
821.728	27854
821.868	27766
822.008	27759
822.149	27603
822.289	27637
822.429	27359
822.569	27313
822.709	27173
822.849	27089
822.99	27081
823.13	27138
823.27	26891
823.41	26823
823.55	26929
823.69	26887
823.83	26777
823.97	26788
824.11	26632
824.25	26609
824.389	26735
824.529	26940
824.669	26880
824.809	26769
824.949	26906
825.089	26754
825.228	26682
825.368	26636
825.508	26632
825.648	26686
825.787	26526
825.927	26743
826.067	26632
826.206	26511
826.346	26758
826.485	26644
826.625	26518
826.765	26659
826.904	26625
827.044	26389
827.183	26400
827.323	26248
827.462	26362
827.601	26301
827.741	26240
827.88	26400
828.02	26191
828.159	26343
828.298	26256
828.437	26442
828.577	26237
828.716	26465
828.855	26206
828.994	26100
829.134	26058
829.273	25944
829.412	25917
829.551	25852
829.69	25921
829.829	25932
829.968	26088
830.107	26153
830.246	26084
830.385	25959
830.524	25902
830.663	25818
830.802	25632
830.941	25518
831.08	25453
831.219	25681
831.357	25696
831.496	25769
831.635	25643
831.774	25575
831.913	25487
832.051	25457
832.19	25324
832.329	25373
832.467	25190
832.606	25179
832.744	25289
832.883	25206
833.022	25156
833.16	25187
833.299	25251
833.437	25187
833.576	25392
833.714	25259
833.852	25415
833.991	25365
834.129	25419
834.267	25453
834.406	25221
834.544	25365
834.682	25419
834.821	25255
834.959	25453
835.097	25407
835.235	25293
835.373	25350
835.511	25331
835.65	25080
835.788	25084
835.926	25145
836.064	25034
836.202	25057
836.34	25095
836.478	25129
836.615	25122
836.753	25065
836.891	25141
837.029	25065
837.167	25027
837.305	25038
837.443	24890
837.58	24863
837.718	25057
837.856	24985
837.993	24966
838.131	25095
838.269	24996
838.406	24901
838.544	24783
838.681	24612
838.819	24593
838.956	24319
839.094	24376
839.231	24486
839.369	24654
839.506	24791
839.643	24582
839.781	24479
839.918	24407
840.055	24448
840.193	24350
840.33	24292
840.467	24418
840.604	24456
840.742	24582
840.879	24152
841.016	24380
841.153	24194
841.29	24456
841.427	24338
841.564	24372
841.701	24342
841.838	24270
841.975	24254
842.112	24281
842.249	24159
842.385	24087
842.522	24350
842.659	24102
842.796	24068
842.933	24186
843.069	24087
843.206	24148
843.343	24155
843.479	24079
843.616	24171
843.752	23809
843.889	24007
844.025	24129
844.162	23790
844.298	23863
844.435	23828
844.571	23733
844.708	23714
844.844	24064
844.98	23958
845.117	23992
845.253	23687
845.389	23634
845.525	23775
845.661	23570
845.798	23551
845.934	23600
846.07	23554
846.206	23668
846.342	23642
846.478	23596
846.614	23417
846.75	23303
846.886	23372
847.022	23387
847.158	23341
847.294	23421
847.429	23395
847.565	23261
847.701	23505
847.837	22923
847.972	22984
848.108	23132
848.244	23136
848.379	22930
848.515	22972
848.65	22771
848.786	22831
848.921	22934
849.057	22961
849.192	22965
849.328	22991
849.463	22866
849.598	22900
849.734	22862
849.869	22793
850.004	22538
850.14	22900
850.275	22778
850.41	22577
850.545	22687
850.68	22725
850.815	22839
850.95	22675
851.085	22904
851.22	22862
851.355	22630
851.49	22645
851.625	22687
851.76	22706
851.895	22607
852.03	22405
852.165	22637
852.299	22660
852.434	22672
852.569	22752
852.703	22641
852.838	22569
852.973	22824
853.107	22801
853.242	22668
853.376	22592
853.511	22428
853.645	22421
853.78	22599
853.914	22561
854.048	22512
854.183	22402
854.317	22573
854.451	22771
854.585	22504
854.72	22455
854.854	22634
854.988	22504
855.122	22489
855.256	22405
855.39	22474
855.524	22634
855.658	22580
855.792	22447
855.926	22679
856.06	22516
856.194	22516
856.327	22542
856.461	22531
856.595	22421
856.729	22504
856.862	22622
856.996	22660
857.13	22584
857.263	22523
857.397	22607
857.53	22519
857.664	22577
857.797	22516
857.931	22702
858.064	22500
858.197	22649
858.331	22588
858.464	22455
858.597	22478
858.731	22512
858.864	22554
858.997	22550
859.13	22573
859.263	22557
859.396	22577
859.529	22500
859.662	22398
859.795	22379
859.928	22523
860.061	22584
860.194	22664
860.327	22478
860.46	22462
860.592	22588
860.725	22588
860.858	22622
860.99	22538
861.123	22470
861.256	22367
861.388	22428
861.521	23368
861.653	22341
861.786	22284
861.918	22367
862.05	22314
862.183	22318
862.315	22375
862.447	22447
862.58	22428
862.712	22204
862.844	22295
862.976	22234
863.108	22158
863.24	22615
863.372	22124
863.504	22207
863.636	22139
863.768	22394
863.9	22131
864.032	22101
864.164	22211
864.296	22215
864.428	22303
864.559	22379
864.691	22337
864.823	22188
864.954	22265
865.086	22177
865.217	22150
865.349	22051
865.48	22055
865.612	22131
865.743	22185
865.875	22120
866.006	21994
866.137	21915
866.269	22055
866.4	21983
866.531	21975
866.662	21949
866.793	21964
866.924	21960
867.055	22040
867.186	22017
867.317	22082
867.448	21854
867.579	21861
867.71	22025
867.841	21911
867.972	22082
868.103	21895
868.233	21983
868.364	21972
868.495	22097
868.625	22211
868.756	22310
868.886	22044
869.017	22211
869.147	22325
869.278	22352
869.408	22276
869.539	22204
869.669	22234
869.799	22204
869.929	22398
870.06	22314
870.19	22542
870.32	22436
870.45	22721
870.58	22679
870.71	22698
870.84	22748
870.97	22584
871.1	22588
871.23	22850
871.36	22820
871.489	22675
871.619	22946
871.749	22900
871.879	22923
872.008	22976
872.138	22862
872.267	22953
872.397	22733
872.526	22596
872.656	22649
872.785	22649
872.915	22862
873.044	22908
873.173	22869
873.303	22919
873.432	22889
873.561	22942
873.69	22877
873.819	22778
873.948	22991
874.077	23052
874.206	22733
874.335	22915
874.464	22976
874.593	23185
874.722	22999
874.851	23083
874.979	23029
875.108	23185
875.237	22930
875.365	22934
875.494	22968
875.623	23048
875.751	23010
875.88	23140
876.008	23155
876.136	23208
876.265	23596
876.393	23589
876.521	23486
876.65	23501
876.778	23516
876.906	23448
877.034	23463
877.162	23501
877.29	23455
877.418	23391
877.546	23402
877.674	23376
877.802	23444
877.93	23417
878.058	23425
878.185	23353
878.313	23284
878.441	23322
878.568	23277
878.696	23334
878.824	23459
878.951	23471
879.079	23531
879.206	23619
879.333	23684
879.461	23326
879.588	23436
879.715	23543
879.842	23676
879.97	23474
880.097	23197
880.224	23364
880.351	23220
880.478	23311
880.605	23094
880.732	23353
880.859	23383
880.986	23258
881.112	23151
881.239	23003
881.366	23003
881.493	22885
881.619	22835
881.746	22748
881.872	22900
881.999	22793
882.125	22790
882.252	22812
882.378	22782
882.505	22881
882.631	22622
882.757	22516
882.883	22493
883.01	22447
883.136	22360
883.262	22322
883.388	22299
883.514	22478
883.64	22485
883.766	22310
883.892	22249
884.018	22272
884.143	22382
884.269	22516
884.395	22211
884.52	22105
884.646	22120
884.772	22021
884.897	21964
885.023	22070
885.148	22310
885.274	22306
885.399	22215
885.524	22093
885.65	22188
885.775	22048
885.9	22025
886.025	22124
886.15	22200
886.275	22162
886.4	22116
886.525	22131
886.65	22013
886.775	22116
886.9	22154
887.025	22230
887.149	22032
887.274	21842
887.399	21888
887.523	21869
887.648	21854
887.773	21724
887.897	21895
888.021	21915
888.146	21701
888.27	21865
888.395	21964
888.519	21991
888.643	21956
888.767	21949
888.891	21884
889.015	21625
889.139	21690
889.263	21530
889.387	21705
889.511	21979
889.635	21785
889.759	21618
889.883	21561
890.006	21698
890.13	21679
890.254	21549
890.377	21469
890.501	21443
890.624	21591
890.748	21378
890.871	21272
890.995	21123
891.118	21112
891.241	21161
891.364	21230
891.488	21393
891.611	21192
891.734	21275
891.857	21211
891.98	21214
892.103	21195
892.226	21230
892.349	21047
892.471	21081
892.594	21116
892.717	21100
892.839	20990
892.962	21066
893.085	21291
893.207	21017
893.33	20883
893.452	20948
893.575	21173
893.697	21165
893.819	21180
893.941	21302
894.064	21146
894.186	21085
894.308	20952
894.43	21176
894.552	21161
894.674	21058
894.796	21074
894.918	21077
895.04	21001
895.161	21032
895.283	21154
895.405	20971
895.526	21138
895.648	20990
895.769	21169
895.891	21123
896.012	21135
896.134	21062
896.255	21085
896.376	21066
896.498	21032
896.619	21184
896.74	20963
896.861	21127
896.982	21272
897.103	21526
897.224	21340
897.345	21374
897.466	21218
897.587	21340
897.708	21389
897.828	21329
897.949	21207
898.07	21055
898.19	21169
898.311	21272
898.431	21154
898.552	21329
898.672	21264
898.792	21245
898.913	21386
899.033	21233
899.153	21013
899.273	21001
899.393	21028
899.513	21032
899.633	21017
899.753	21036
899.873	21135
899.993	21074
900.113	20975
900.232	21066
900.352	20876
900.472	20727
900.591	20762
900.711	20811
900.83	20678
900.95	20823
901.069	20788
901.189	20659
901.308	20404
901.427	20305
901.546	20374
901.665	20244
901.784	20214
901.904	20214
902.023	20077
902.141	19864
902.26	19871
902.379	19875
902.498	19784
902.617	19761
902.735	19917
902.854	19841
902.973	19750
903.091	19556
903.21	19514
903.328	19647
903.446	19327
903.565	19400
903.683	19312
903.801	19247
903.919	19225
904.038	19259
904.156	19114
904.274	19091
904.392	19095
904.51	19061
904.627	19000
904.745	19065
904.863	19042
904.981	18848
905.098	18726
905.216	18802
905.334	18764
905.451	18730
905.569	18658
905.686	18726
905.803	18722
905.921	18597
906.038	18646
906.155	18467
906.272	18464
906.389	18437
906.506	18232
906.623	18346
906.74	18281
906.857	18167
906.974	18068
907.091	18262
907.208	18426
907.324	18182
907.441	18167
907.557	18019
907.674	17783
907.79	17847
907.907	17843
908.023	17802
908.139	17969
908.256	17885
908.372	17847
908.488	17703
908.604	17608
908.72	17623
908.836	17722
908.952	17581
909.068	17680
909.184	17733
909.3	17589
909.415	17665
909.531	17554
909.647	17360
909.762	17425
909.878	17341
909.993	17379
910.108	17318
910.224	17326
910.339	17299
910.454	17140
910.57	17204
910.685	17189
910.8	17265
910.915	17318
911.03	17170
911.145	16930
911.259	16896
911.374	16953
911.489	16923
911.604	16782
911.718	16607
911.833	16694
911.947	16584
912.062	16622
912.176	16668
912.291	16710
912.405	16626
912.519	16778
912.633	16847
912.748	16729
912.862	16668
912.976	16523
913.09	16371
913.204	16390
913.318	16508
913.431	16607
913.545	16516
913.659	16565
913.772	16382
913.886	16371
914	16253
914.113	16390
914.226	16409
914.34	16333
914.453	16112
914.566	16223
914.68	16093
914.793	16196
914.906	15819
915.019	15846
915.132	15819
915.245	15831
915.358	15778
915.47	15861
915.583	15842
915.696	15842
915.809	15915
915.921	15922
916.034	15724
916.146	15793
916.259	15713
916.371	15816
916.483	15698
916.595	15606
916.708	15675
916.82	15633
916.932	15625
917.044	15641
917.156	15564
917.268	15496
917.38	15572
917.491	15534
917.603	15507
917.715	15500
917.826	15534
917.938	15344
918.049	15272
918.161	15458
918.272	15561
918.384	15557
918.495	15435
918.606	15199
918.717	15154
918.828	15306
918.939	15165
919.05	15055
919.161	15154
919.272	14918
919.383	15024
919.494	15348
919.604	15367
919.715	15192
919.826	15241
919.936	15207
920.047	15313
920.157	15089
920.267	15397
920.378	15089
920.488	15104
920.598	15317
920.708	15401
920.818	15370
920.928	15222
921.038	15397
921.148	15416
921.258	15093
921.368	15089
921.477	14891
921.587	14830
921.697	14727
921.806	14910
921.916	14648
922.025	14571
922.134	14503
922.244	14469
922.353	14556
922.462	14408
922.571	14259
922.68	14298
922.789	14176
922.898	14176
923.007	14077
923.116	14161
923.224	14119
923.333	14119
923.442	14039
923.55	13963
923.659	14054
923.767	13925
923.876	13883
923.984	14119
924.092	13917
924.201	13852
924.309	13871
924.417	13860
924.525	13753
924.633	13875
924.741	14484
924.849	13677
924.956	13704
925.064	13655
925.172	13499
925.279	13457
925.387	13578
925.494	13514
925.602	13655
925.709	13559
925.816	13403
925.924	13487
926.031	13571
926.138	13388
926.245	13438
926.352	13384
926.459	13457
926.566	13571
926.673	13419
926.779	13293
926.886	13293
926.993	13187
927.099	13152
927.206	13080
927.312	13042
927.419	13213
927.525	13126
927.631	13072
927.737	12989
927.843	12871
927.95	12764
928.056	12947
928.162	12932
928.267	12996
928.373	13586
928.479	12977
928.585	12707
928.69	12890
928.796	12867
928.901	12745
929.007	12662
929.112	12745
929.218	12669
929.323	12574
929.428	12570
929.533	12787
929.638	12570
929.743	12525
929.848	12566
929.953	12547
930.058	12426
930.163	12258
930.267	12205
930.372	12483
930.477	12205
930.581	12437
930.685	12350
930.79	12117
930.894	12273
930.998	12106
931.103	12270
931.207	11885
931.311	11790
931.415	11710
931.519	11585
931.623	11490
