Data from test_V78500241_2287.txt Node
Date: Fri Mar 25 15:57:38 CST 2022
User: usil
Spectrometer: V785-0024
Trigger mode: 0
Integration Time (sec): 4.000000E-1
Scans to average: 1
Nonlinearity correction enabled: false
Boxcar width: 0
Storing dark spectrum: false
XAxis mode: Wavelengths
Number of Pixels in Spectrum: 1024
>>>>>Begin Spectral Data<<<<<
801.071	28721
801.214	28645
801.356	28459
801.499	28401
801.641	28322
801.783	28287
801.926	28424
802.068	28272
802.211	28207
802.353	28105
802.496	28002
802.638	27998
802.78	27956
802.923	27861
803.065	27941
803.208	27918
803.35	27994
803.492	28177
803.635	28215
803.777	28185
803.919	28295
804.061	28478
804.204	28215
804.346	28249
804.488	28177
804.63	28287
804.773	28013
804.915	28223
805.057	28344
805.199	28310
805.341	28337
805.483	28474
805.626	28405
805.768	28162
805.91	28360
806.052	28436
806.194	28333
806.336	28721
806.478	28462
806.62	28447
806.762	28641
806.904	28698
807.046	28934
807.188	28805
807.33	28774
807.472	28976
807.614	28603
807.756	28987
807.898	28702
808.04	28641
808.182	28622
808.324	28729
808.465	28782
808.607	28976
808.749	29113
808.891	29235
809.033	29166
809.174	29064
809.316	29006
809.458	29159
809.6	29014
809.741	29193
809.883	29147
810.025	29360
810.166	29368
810.308	29372
810.45	29467
810.591	29292
810.733	29227
810.875	29075
811.016	29067
811.158	28854
811.299	29162
811.441	29223
811.582	29189
811.724	29200
811.865	29174
812.007	29052
812.148	29044
812.29	29136
812.431	29269
812.573	29311
812.714	29562
812.855	29493
812.997	29699
813.138	29920
813.279	29710
813.421	29520
813.562	29570
813.703	29364
813.845	29273
813.986	28984
814.127	28995
814.268	28698
814.41	29018
814.551	28729
814.692	28854
814.833	28713
814.974	28881
815.115	28824
815.256	28672
815.397	28679
815.539	28615
815.68	28702
815.821	28512
815.962	28599
816.103	28637
816.244	28577
816.385	28443
816.526	28337
816.666	28150
816.807	28124
816.948	28287
817.089	28253
817.23	28185
817.371	28211
817.512	28116
817.653	28090
817.793	27884
817.934	28181
818.075	28219
818.216	28177
818.356	28059
818.497	27987
818.638	28097
818.778	27983
818.919	27816
819.06	27934
819.2	28078
819.341	28082
819.481	28021
819.622	28303
819.762	28459
819.903	28459
820.043	28371
820.184	28367
820.324	28181
820.465	28242
820.605	28265
820.746	28390
820.886	27979
821.026	28253
821.167	28166
821.307	28280
821.447	28109
821.588	28010
821.728	27949
821.868	27762
822.008	27667
822.149	27557
822.289	27610
822.429	27367
822.569	27249
822.709	27252
822.849	27131
822.99	27195
823.13	27085
823.27	27203
823.41	26944
823.55	26796
823.69	26857
823.83	26982
823.97	26845
824.11	26655
824.25	26678
824.389	26819
824.529	26769
824.669	26796
824.809	26960
824.949	26845
825.089	26842
825.228	26864
825.368	26560
825.508	26499
825.648	26697
825.787	26609
825.927	26651
826.067	26602
826.206	26606
826.346	26743
826.485	26705
826.625	26686
826.765	26773
826.904	26629
827.044	26431
827.183	26488
827.323	26267
827.462	26396
827.601	26328
827.741	26415
827.88	26298
828.02	26278
828.159	26332
828.298	26317
828.437	26511
828.577	26434
828.716	26408
828.855	26229
828.994	25974
829.134	26039
829.273	26145
829.412	25978
829.551	25928
829.69	25917
829.829	26043
829.968	26157
830.107	26134
830.246	26046
830.385	26012
830.524	25963
830.663	25868
830.802	25628
830.941	25590
831.08	25578
831.219	25658
831.357	25761
831.496	25883
831.635	25696
831.774	25639
831.913	25624
832.051	25445
832.19	25476
832.329	25320
832.467	25381
832.606	25289
832.744	25183
832.883	25320
833.022	25308
833.16	25396
833.299	25384
833.437	25407
833.576	25324
833.714	25369
833.852	25426
833.991	25388
834.129	25506
834.267	25384
834.406	25430
834.544	25388
834.682	25339
834.821	25228
834.959	25556
835.097	25377
835.235	25472
835.373	25312
835.511	25278
835.65	25110
835.788	25236
835.926	25061
836.064	24996
836.202	25034
836.34	25122
836.478	25274
836.615	25160
836.753	25297
836.891	25244
837.029	25209
837.167	25122
837.305	25061
837.443	25000
837.58	24992
837.718	25156
837.856	25061
837.993	24901
838.131	25072
838.269	24973
838.406	24962
838.544	24871
838.681	24627
838.819	24703
838.956	24467
839.094	24582
839.231	24547
839.369	24722
839.506	24943
839.643	24856
839.781	24486
839.918	24509
840.055	24388
840.193	24361
840.33	24551
840.467	24471
840.604	24494
840.742	24551
840.879	24308
841.016	24308
841.153	24262
841.29	24483
841.427	24369
841.564	24479
841.701	24285
841.838	24418
841.975	24391
842.112	24243
842.249	24182
842.385	24144
842.522	24494
842.659	24190
842.796	24110
842.933	24159
843.069	24140
843.206	24060
843.343	24114
843.479	24152
843.616	24216
843.752	23946
843.889	23965
844.025	23847
844.162	23866
844.298	23977
844.435	23931
844.571	23882
844.708	23939
844.844	24064
844.98	24110
845.117	24076
845.253	23859
845.389	23859
845.525	23866
845.661	23661
845.798	23665
845.934	23684
846.07	23630
846.206	23611
846.342	23646
846.478	23642
846.614	23376
846.75	23349
846.886	23356
847.022	23417
847.158	23391
847.294	23402
847.429	23315
847.565	23322
847.701	23661
847.837	23071
847.972	23166
848.108	23223
848.244	23159
848.379	23006
848.515	23018
848.65	22946
848.786	22927
848.921	22915
849.057	23029
849.192	23064
849.328	22965
849.463	22946
849.598	22869
849.734	22843
849.869	22717
850.004	22755
850.14	22755
850.275	22713
850.41	22615
850.545	22565
850.68	22630
850.815	22733
850.95	22717
851.085	22873
851.22	22908
851.355	22763
851.49	22713
851.625	22634
851.76	22622
851.895	22615
852.03	22580
852.165	22752
852.299	22774
852.434	22911
852.569	22778
852.703	22721
852.838	22691
852.973	22809
853.107	22828
853.242	22687
853.376	22481
853.511	22432
853.645	22531
853.78	22687
853.914	22531
854.048	22527
854.183	22588
854.317	22584
854.451	22729
854.585	22577
854.72	22443
854.854	22577
854.988	22504
855.122	22577
855.256	22459
855.39	22538
855.524	22535
855.658	22493
855.792	22474
855.926	22405
856.06	22607
856.194	22687
856.327	22508
856.461	22466
856.595	22577
856.729	22527
856.862	22702
856.996	22554
857.13	22698
857.263	22713
857.397	22500
857.53	22508
857.664	22664
857.797	22607
857.931	22592
858.064	22542
858.197	22679
858.331	22653
858.464	22497
858.597	22303
858.731	22394
858.864	22428
858.997	22512
859.13	22542
859.263	22546
859.396	22592
859.529	22466
859.662	22546
859.795	22493
859.928	22603
860.061	22649
860.194	22706
860.327	22466
860.46	22531
860.592	22618
860.725	22679
860.858	22656
860.99	22557
861.123	22497
861.256	22478
861.388	22508
861.521	23117
861.653	22470
861.786	22386
861.918	22379
862.05	22287
862.183	22459
862.315	22394
862.447	22451
862.58	22481
862.712	22257
862.844	22090
862.976	22402
863.108	22284
863.24	22759
863.372	22105
863.504	22177
863.636	22185
863.768	22276
863.9	22287
864.032	22181
864.164	22162
864.296	22238
864.428	22497
864.559	22352
864.691	22226
864.823	22131
864.954	22230
865.086	22044
865.217	22226
865.349	21975
865.48	22048
865.612	22025
865.743	22143
865.875	22090
866.006	21983
866.137	22070
866.269	22150
866.4	21972
866.531	22021
866.662	22002
866.793	22029
866.924	22067
867.055	22074
867.186	22070
867.317	21956
867.448	21895
867.579	22032
867.71	21930
867.841	22013
867.972	22006
868.103	21979
868.233	22059
868.364	22082
868.495	21979
868.625	22196
868.756	22333
868.886	22101
869.017	22188
869.147	22409
869.278	22379
869.408	22291
869.539	22314
869.669	22337
869.799	22261
869.929	22618
870.06	22516
870.19	22649
870.32	22516
870.45	22577
870.58	22660
870.71	22755
870.84	22831
870.97	22592
871.1	22599
871.23	22771
871.36	22797
871.489	22713
871.619	22877
871.749	22927
871.879	22915
872.008	22972
872.138	22847
872.267	22927
872.397	22862
872.526	22793
872.656	22759
872.785	22748
872.915	22885
873.044	23037
873.173	22904
873.303	22968
873.432	22991
873.561	23029
873.69	22843
873.819	22946
873.948	22938
874.077	22919
874.206	22786
874.335	22927
874.464	22999
874.593	23254
874.722	22995
874.851	23227
874.979	23162
875.108	23136
875.237	23041
875.365	22953
875.494	23159
875.623	23159
875.751	23067
875.88	23079
876.008	23379
876.136	23303
876.265	23516
876.393	23589
876.521	23596
876.65	23608
876.778	23543
876.906	23402
877.034	23395
877.162	23379
877.29	23436
877.418	23463
877.546	23471
877.674	23402
877.802	23440
877.93	23478
878.058	23478
878.185	23277
878.313	23406
878.441	23455
878.568	23250
878.696	23353
878.824	23493
878.951	23531
879.079	23623
879.206	23707
879.333	23649
879.461	23531
879.588	23600
879.715	23497
879.842	23615
879.97	23592
880.097	23162
880.224	23299
880.351	23364
880.478	23231
880.605	23170
880.732	23212
880.859	23482
880.986	23318
881.112	23231
881.239	23105
881.366	23136
881.493	22889
881.619	22847
881.746	22850
881.872	22774
881.999	22869
882.125	22710
882.252	22831
882.378	22812
882.505	22915
882.631	22675
882.757	22550
882.883	22542
883.01	22508
883.136	22497
883.262	22333
883.388	22382
883.514	22379
883.64	22485
883.766	22386
883.892	22268
884.018	22211
884.143	22382
884.269	22584
884.395	22249
884.52	22112
884.646	22166
884.772	22086
884.897	21960
885.023	22124
885.148	22192
885.274	22337
885.399	22226
885.524	22226
885.65	22128
885.775	22173
885.9	22086
886.025	22196
886.15	22246
886.275	22109
886.4	22036
886.525	22086
886.65	21987
886.775	22086
886.9	22150
887.025	22322
887.149	22109
887.274	21953
887.399	21778
887.523	21880
887.648	21899
887.773	21709
887.897	21869
888.021	21964
888.146	21770
888.27	21987
888.395	21991
888.519	21911
888.643	21960
888.767	21983
888.891	21823
889.015	21599
889.139	21724
889.263	21766
889.387	21819
889.511	21876
889.635	21709
889.759	21641
889.883	21797
890.006	21686
890.13	21747
890.254	21542
890.377	21667
890.501	21386
890.624	21336
890.748	21572
890.871	21294
890.995	21184
891.118	21127
891.241	21302
891.364	21272
891.488	21332
891.611	21173
891.734	21154
891.857	21264
891.98	21150
892.103	21138
892.226	21173
892.349	21199
892.471	21062
892.594	21096
892.717	21074
892.839	21119
892.962	21138
893.085	21066
893.207	21112
893.33	20944
893.452	21017
893.575	21180
893.697	21043
893.819	21344
893.941	21173
894.064	21146
894.186	21062
894.308	20994
894.43	21108
894.552	21294
894.674	21195
894.796	20967
894.918	20998
895.04	21169
895.161	21188
895.283	21176
895.405	21138
895.526	21001
895.648	21127
895.769	21161
895.891	21100
896.012	21127
896.134	21127
896.255	21036
896.376	21020
896.498	21070
896.619	21096
896.74	21032
896.861	21116
896.982	21397
897.103	21644
897.224	21416
897.345	21241
897.466	21306
897.587	21378
897.708	21336
897.828	21382
897.949	21195
898.07	21051
898.19	21252
898.311	21363
898.431	21272
898.552	21245
898.672	21378
898.792	21424
898.913	21279
899.033	21207
899.153	21135
899.273	21024
899.393	21062
899.513	21119
899.633	21005
899.753	21001
899.873	21020
899.993	20986
900.113	20883
900.232	20948
900.352	20990
900.472	20857
900.591	20712
900.711	20701
900.83	20773
900.95	20849
901.069	20902
901.189	20648
901.308	20469
901.427	20339
901.546	20499
901.665	20317
901.784	20393
901.904	20172
902.023	20168
902.141	19921
902.26	19894
902.379	19917
902.498	19856
902.617	19864
902.735	19982
902.854	19887
902.973	19784
903.091	19548
903.21	19639
903.328	19491
903.446	19430
903.565	19327
903.683	19327
903.801	19221
903.919	19251
904.038	19274
904.156	19103
904.274	19183
904.392	19175
904.51	19012
904.627	19019
904.745	19137
904.863	19091
904.981	18852
905.098	18772
905.216	18757
905.334	18692
905.451	18741
905.569	18738
905.686	18802
905.803	18597
905.921	18574
906.038	18604
906.155	18513
906.272	18475
906.389	18327
906.506	18357
906.623	18235
906.74	18292
906.857	18095
906.974	18114
907.091	18330
907.208	18342
907.324	18350
907.441	18171
907.557	18091
907.674	17996
907.79	17897
907.907	17950
908.023	17954
908.139	17961
908.256	17832
908.372	17961
908.488	17870
908.604	17779
908.72	17623
908.836	17684
908.952	17604
909.068	17687
909.184	17813
909.3	17672
909.415	17649
909.531	17558
909.647	17474
909.762	17459
909.878	17311
909.993	17299
910.108	17452
910.224	17284
910.339	17322
910.454	17261
910.57	17109
910.685	17086
910.8	17356
910.915	17296
911.03	17197
911.145	17105
911.259	17029
911.374	16961
911.489	16984
911.604	16949
911.718	16694
911.833	16801
911.947	16611
912.062	16538
912.176	16653
912.291	16679
912.405	16698
912.519	16892
912.633	16938
912.748	16702
912.862	16618
912.976	16565
913.09	16455
913.204	16554
913.318	16588
913.431	16630
913.545	16679
913.659	16577
913.772	16493
913.886	16424
914	16379
914.113	16348
914.226	16443
914.34	16417
914.453	16154
914.566	16398
914.68	16257
914.793	16219
914.906	15994
915.019	15960
915.132	15884
915.245	15873
915.358	15956
915.47	15960
915.583	16010
915.696	15949
915.809	16040
915.921	16078
916.034	15956
916.146	15804
916.259	15778
916.371	15918
916.483	15979
916.595	15854
916.708	15804
916.82	15622
916.932	15751
917.044	15671
917.156	15724
917.268	15614
917.38	15523
917.491	15557
917.603	15637
917.715	15603
917.826	15648
917.938	15447
918.049	15355
918.161	15507
918.272	15595
918.384	15610
918.495	15477
918.606	15386
918.717	15367
918.828	15260
918.939	15291
919.05	15214
919.161	15241
919.272	15104
919.383	15169
919.494	15279
919.604	15424
919.715	15279
919.826	15207
919.936	15192
920.047	15256
920.157	15340
920.267	15393
920.378	15279
920.488	15222
920.598	15416
920.708	15519
920.818	15332
920.928	15351
921.038	15568
921.148	15485
921.258	15154
921.368	15131
921.477	14990
921.587	15005
921.697	14773
921.806	14967
921.916	14857
922.025	14610
922.134	14648
922.244	14579
922.353	14629
922.462	14400
922.571	14381
922.68	14237
922.789	14248
922.898	14256
923.007	14206
923.116	14221
923.224	14195
923.333	14138
923.442	14088
923.55	14081
923.659	14084
923.767	14065
923.876	14069
923.984	14119
924.092	13959
924.201	13955
924.309	13879
924.417	13974
924.525	13784
924.633	13822
924.741	14807
924.849	13632
924.956	13807
925.064	13559
925.172	13529
925.279	13636
925.387	13613
925.494	13643
925.602	13613
925.709	13685
925.816	13533
925.924	13590
926.031	13548
926.138	13472
926.245	13460
926.352	13476
926.459	13590
926.566	13639
926.673	13434
926.779	13320
926.886	13343
926.993	13213
927.099	13137
927.206	13027
927.312	13091
927.419	13110
927.525	13065
927.631	13122
927.737	13053
927.843	12947
927.95	12932
928.056	12882
928.162	12928
928.267	13008
928.373	13575
928.479	12970
928.585	12825
928.69	12916
928.796	12928
928.901	12798
929.007	12700
929.112	12840
929.218	12783
929.323	12654
929.428	12677
929.533	12810
929.638	12635
929.743	12601
929.848	12608
929.953	12642
930.058	12445
930.163	12410
930.267	12407
930.372	12498
930.477	12372
930.581	12544
930.685	12380
930.79	12144
930.894	12159
930.998	12197
931.103	12376
931.207	11973
931.311	11901
931.415	11756
931.519	11551
931.623	11596
