Data from test_V78500241_3683.txt Node
Date: Fri Mar 25 16:07:18 CST 2022
User: usil
Spectrometer: V785-0024
Trigger mode: 0
Integration Time (sec): 4.000000E-1
Scans to average: 1
Nonlinearity correction enabled: false
Boxcar width: 0
Storing dark spectrum: false
XAxis mode: Wavelengths
Number of Pixels in Spectrum: 1024
>>>>>Begin Spectral Data<<<<<
801.071	28287
801.214	28306
801.356	28010
801.499	27930
801.641	27671
801.783	27717
801.926	27846
802.068	27720
802.211	27808
802.353	27770
802.496	27545
802.638	27530
802.78	27466
802.923	27435
803.065	27427
803.208	27408
803.35	27564
803.492	27530
803.635	27644
803.777	27466
803.919	27698
804.061	28078
804.204	27812
804.346	27663
804.488	27652
804.63	27603
804.773	27553
804.915	27751
805.057	27869
805.199	27755
805.341	27873
805.483	27960
805.626	27797
805.768	27720
805.91	27835
806.052	27819
806.194	27694
806.336	28105
806.478	27857
806.62	27755
806.762	28040
806.904	28101
807.046	28413
807.188	28333
807.33	28147
807.472	28341
807.614	28211
807.756	28371
807.898	28173
808.04	28097
808.182	28002
808.324	28010
808.465	28112
808.607	28375
808.749	28561
808.891	28417
809.033	28622
809.174	28557
809.316	28603
809.458	28569
809.6	28451
809.741	28641
809.883	28565
810.025	28797
810.166	28869
810.308	28862
810.45	28771
810.591	28641
810.733	28649
810.875	28599
811.016	28455
811.158	28409
811.299	28641
811.441	28599
811.582	28694
811.724	28573
811.865	28653
812.007	28592
812.148	28481
812.29	28497
812.431	28736
812.573	28752
812.714	28908
812.855	28930
812.997	29064
813.138	29246
813.279	29052
813.421	29155
813.562	28911
813.703	28801
813.845	28713
813.986	28508
814.127	28348
814.268	28143
814.41	28268
814.551	28249
814.692	28348
814.833	28166
814.974	28272
815.115	28234
815.256	28135
815.397	28070
815.539	28078
815.68	27987
815.821	27956
815.962	27907
816.103	28006
816.244	27983
816.385	27949
816.526	27842
816.666	27606
816.807	27507
816.948	27686
817.089	27622
817.23	27454
817.371	27431
817.512	27344
817.653	27534
817.793	27553
817.934	27477
818.075	27488
818.216	27466
818.356	27443
818.497	27321
818.638	27077
818.778	27211
818.919	27233
819.06	27310
819.2	27485
819.341	27587
819.481	27545
819.622	27568
819.762	27819
819.903	27797
820.043	27701
820.184	27679
820.324	27648
820.465	27656
820.605	27720
820.746	27652
820.886	27511
821.026	27648
821.167	27553
821.307	27648
821.447	27488
821.588	27473
821.728	27401
821.868	27226
822.008	27096
822.149	26944
822.289	26960
822.429	26609
822.569	26670
822.709	26754
822.849	26495
822.99	26499
823.13	26332
823.27	26476
823.41	26366
823.55	26343
823.69	26389
823.83	26457
823.97	26320
824.11	26233
824.25	26005
824.389	26161
824.529	26161
824.669	26259
824.809	26358
824.949	26172
825.089	26271
825.228	26324
825.368	25959
825.508	26069
825.648	25932
825.787	26008
825.927	26065
826.067	25966
826.206	26069
826.346	26043
826.485	26111
826.625	26043
826.765	26180
826.904	26020
827.044	25818
827.183	25837
827.323	25772
827.462	25750
827.601	25712
827.741	25734
827.88	25757
828.02	25635
828.159	25708
828.298	25658
828.437	25742
828.577	25624
828.716	25868
828.855	25548
828.994	25354
829.134	25476
829.273	25518
829.412	25304
829.551	25407
829.69	25324
829.829	25506
829.968	25464
830.107	25464
830.246	25346
830.385	25441
830.524	25270
830.663	25263
830.802	25145
830.941	24973
831.08	25008
831.219	25091
831.357	25110
831.496	25304
831.635	25175
831.774	24958
831.913	24958
832.051	24852
832.19	24905
832.329	24764
832.467	24734
832.606	24703
832.744	24661
832.883	24631
833.022	24544
833.16	24688
833.299	24783
833.437	24852
833.576	24757
833.714	24715
833.852	24859
833.991	24795
834.129	24859
834.267	24829
834.406	24844
834.544	24738
834.682	24738
834.821	24741
834.959	24856
835.097	24753
835.235	24894
835.373	24749
835.511	24711
835.65	24760
835.788	24471
835.926	24627
836.064	24452
836.202	24384
836.34	24494
836.478	24753
836.615	24639
836.753	24547
836.891	24540
837.029	24566
837.167	24536
837.305	24547
837.443	24608
837.58	24448
837.718	24494
837.856	24490
837.993	24502
838.131	24369
838.269	24292
838.406	24376
838.544	24254
838.681	24167
838.819	24011
838.956	23950
839.094	23889
839.231	23916
839.369	24190
839.506	24213
839.643	23988
839.781	23798
839.918	23817
840.055	23889
840.193	23878
840.33	23824
840.467	23805
840.604	23870
840.742	24098
840.879	23642
841.016	23695
841.153	23668
841.29	23935
841.427	23843
841.564	23840
841.701	23718
841.838	23668
841.975	23684
842.112	23630
842.249	23733
842.385	23615
842.522	23745
842.659	23672
842.796	23566
842.933	23558
843.069	23436
843.206	23562
843.343	23638
843.479	23520
843.616	23551
843.752	23299
843.889	23349
844.025	23497
844.162	23376
844.298	23387
844.435	23296
844.571	23414
844.708	23334
844.844	23566
844.98	23482
845.117	23463
845.253	23353
845.389	23212
845.525	23250
845.661	23223
845.798	23090
845.934	23254
846.07	23121
846.206	23048
846.342	23303
846.478	23220
846.614	22889
846.75	22835
846.886	22622
847.022	22968
847.158	22740
847.294	22873
847.429	22923
847.565	22847
847.701	23033
847.837	22489
847.972	22596
848.108	22580
848.244	22527
848.379	22474
848.515	22474
848.65	22318
848.786	22348
848.921	22470
849.057	22527
849.192	22455
849.328	22402
849.463	22318
849.598	22402
849.734	22318
849.869	22135
850.004	22188
850.14	22166
850.275	22192
850.41	22063
850.545	22086
850.68	22128
850.815	22147
850.95	22128
851.085	22360
851.22	22363
851.355	22272
851.49	22093
851.625	22181
851.76	22230
851.895	22070
852.03	22135
852.165	22166
852.299	22238
852.434	22177
852.569	22173
852.703	22192
852.838	22246
852.973	22291
853.107	22272
853.242	22135
853.376	22010
853.511	21903
853.645	21979
853.78	22063
853.914	22063
854.048	21979
854.183	21934
854.317	22120
854.451	22101
854.585	21983
854.72	22032
854.854	22044
854.988	21991
855.122	21998
855.256	21972
855.39	21956
855.524	21949
855.658	22082
855.792	21972
855.926	22082
856.06	22059
856.194	22154
856.327	22040
856.461	21922
856.595	22029
856.729	21964
856.862	22025
856.996	21991
857.13	22063
857.263	22070
857.397	22116
857.53	22067
857.664	22059
857.797	21953
857.931	22040
858.064	21956
858.197	22074
858.331	21987
858.464	21907
858.597	21861
858.731	21941
858.864	21960
858.997	21991
859.13	22006
859.263	22032
859.396	22169
859.529	22029
859.662	22021
859.795	21934
859.928	21972
860.061	22135
860.194	22131
860.327	21964
860.46	22017
860.592	22131
860.725	22150
860.858	22093
860.99	21949
861.123	21934
861.256	21850
861.388	22029
861.521	22702
861.653	21930
861.786	21895
861.918	21812
862.05	21888
862.183	21857
862.315	21960
862.447	21983
862.58	21793
862.712	21656
862.844	21644
862.976	21781
863.108	21732
863.24	22196
863.372	21595
863.504	21663
863.636	21682
863.768	21785
863.9	21679
864.032	21667
864.164	21701
864.296	21736
864.428	21972
864.559	21732
864.691	21759
864.823	21808
864.954	21610
865.086	21591
865.217	21614
865.349	21545
865.48	21637
865.612	21549
865.743	21736
865.875	21622
866.006	21656
866.137	21523
866.269	21587
866.4	21622
866.531	21549
866.662	21439
866.793	21523
866.924	21652
867.055	21485
867.186	21641
867.317	21511
867.448	21469
867.579	21408
867.71	21530
867.841	21644
867.972	21447
868.103	21424
868.233	21675
868.364	21488
868.495	21439
868.625	21728
868.756	21816
868.886	21637
869.017	21713
869.147	21854
869.278	21842
869.408	21823
869.539	21660
869.669	21857
869.799	21747
869.929	21884
870.06	21915
870.19	22093
870.32	22078
870.45	22109
870.58	22295
870.71	22314
870.84	22344
870.97	22173
871.1	22158
871.23	22284
871.36	22318
871.489	22215
871.619	22276
871.749	22344
871.879	22409
872.008	22668
872.138	22424
872.267	22470
872.397	22276
872.526	22109
872.656	22219
872.785	22200
872.915	22421
873.044	22413
873.173	22413
873.303	22413
873.432	22421
873.561	22421
873.69	22341
873.819	22363
873.948	22413
874.077	22344
874.206	22318
874.335	22424
874.464	22382
874.593	22584
874.722	22649
874.851	22653
874.979	22706
875.108	22546
875.237	22588
875.365	22550
875.494	22573
875.623	22675
875.751	22603
875.88	22672
876.008	22744
876.136	22771
876.265	22904
876.393	22999
876.521	22999
876.65	23090
876.778	22927
876.906	22976
877.034	22915
877.162	22919
877.29	23044
877.418	22984
877.546	22961
877.674	22953
877.802	22908
877.93	22953
878.058	22885
878.185	22839
878.313	22953
878.441	23014
878.568	22596
878.696	22869
878.824	23006
878.951	22965
879.079	23170
879.206	23132
879.333	23216
879.461	23071
879.588	23025
879.715	22930
879.842	23200
879.97	22953
880.097	22702
880.224	22885
880.351	22771
880.478	22786
880.605	22763
880.732	22782
880.859	22957
880.986	22843
881.112	22744
881.239	22653
881.366	22637
881.493	22462
881.619	22280
881.746	22367
881.872	22341
881.999	22238
882.125	22215
882.252	22280
882.378	22299
882.505	22424
882.631	22116
882.757	22059
882.883	22078
883.01	22059
883.136	22048
883.262	21983
883.388	21823
883.514	22044
883.64	22074
883.766	21865
883.892	21774
884.018	21797
884.143	21956
884.269	22124
884.395	21759
884.52	21652
884.646	21701
884.772	21698
884.897	21580
885.023	21686
885.148	21728
885.274	21907
885.399	21869
885.524	21660
885.65	21743
885.775	21557
885.9	21717
886.025	21842
886.15	21747
886.275	21564
886.4	21549
886.525	21564
886.65	21732
886.775	21545
886.9	21656
887.025	21937
887.149	21660
887.274	21485
887.399	21420
887.523	21321
887.648	21370
887.773	21378
887.897	21401
888.021	21485
888.146	21378
888.27	21447
888.395	21538
888.519	21500
888.643	21561
888.767	21435
888.891	21325
889.015	21264
889.139	21317
889.263	21226
889.387	21275
889.511	21344
889.635	21340
889.759	21313
889.883	21207
890.006	21214
890.13	21306
890.254	21173
890.377	21195
890.501	20994
890.624	20876
890.748	21070
890.871	20895
890.995	20785
891.118	20765
891.241	20781
891.364	20762
891.488	20895
891.611	20682
891.734	20796
891.857	20796
891.98	20788
892.103	20701
892.226	20864
892.349	20670
892.471	20549
892.594	20720
892.717	20735
892.839	20621
892.962	20625
893.085	20815
893.207	20746
893.33	20682
893.452	20560
893.575	20750
893.697	20625
893.819	20864
893.941	20895
894.064	20796
894.186	20686
894.308	20400
894.43	20674
894.552	20834
894.674	20750
894.796	20602
894.918	20708
895.04	20606
895.161	20659
895.283	20689
895.405	20545
895.526	20606
895.648	20644
895.769	20769
895.891	20655
896.012	20762
896.134	20746
896.255	20609
896.376	20693
896.498	20651
896.619	20598
896.74	20720
896.861	20629
896.982	20963
897.103	21077
897.224	20910
897.345	20918
897.466	20796
897.587	20861
897.708	21024
897.828	21047
897.949	20910
898.07	20670
898.19	20815
898.311	20887
898.431	20735
898.552	20914
898.672	20823
898.792	20880
898.913	21047
899.033	20781
899.153	20765
899.273	20602
899.393	20590
899.513	20632
899.633	20640
899.753	20606
899.873	20564
899.993	20571
900.113	20541
900.232	20499
900.352	20503
900.472	20374
900.591	20423
900.711	20533
900.83	20271
900.95	20434
901.069	20438
901.189	20339
901.308	20039
901.427	19993
901.546	19970
901.665	20046
901.784	19852
901.904	19917
902.023	19742
902.141	19655
902.26	19472
902.379	19635
902.498	19438
902.617	19426
902.735	19468
902.854	19483
902.973	19244
903.091	19038
903.21	19015
903.328	19168
903.446	19080
903.565	18962
903.683	18924
903.801	18779
903.919	18958
904.038	18798
904.156	18798
904.274	18738
904.392	18707
904.51	18692
904.627	18707
904.745	18700
904.863	18783
904.981	18544
905.098	18308
905.216	18308
905.334	18399
905.451	18361
905.569	18330
905.686	18399
905.803	18353
905.921	18220
906.038	18216
906.155	18178
906.272	17969
906.389	18057
906.506	17908
906.623	17893
906.74	17832
906.857	17897
906.974	17729
907.091	17912
907.208	18041
907.324	17973
907.441	17794
907.557	17573
907.674	17608
907.79	17554
907.907	17516
908.023	17634
908.139	17630
908.256	17562
908.372	17505
908.488	17417
908.604	17277
908.72	17250
908.836	17334
908.952	17322
909.068	17216
909.184	17349
909.3	17284
909.415	17330
909.531	17345
909.647	17029
909.762	17018
909.878	17033
909.993	17048
910.108	17003
910.224	16968
910.339	16896
910.454	16858
910.57	16797
910.685	16710
910.8	17075
910.915	17045
911.03	16805
911.145	16558
911.259	16580
911.374	16588
911.489	16527
911.604	16341
911.718	16409
911.833	16363
911.947	16272
912.062	16276
912.176	16382
912.291	16356
912.405	16371
912.519	16519
912.633	16451
912.748	16322
912.862	16344
912.976	16211
913.09	16139
913.204	16021
913.318	16173
913.431	16238
913.545	16200
913.659	16246
913.772	16021
913.886	16032
914	15918
914.113	16109
914.226	16093
914.34	15953
914.453	15804
914.566	15945
914.68	15831
914.793	15751
914.906	15542
915.019	15466
915.132	15523
915.245	15530
915.358	15526
915.47	15561
915.583	15507
915.696	15599
915.809	15709
915.921	15610
916.034	15496
916.146	15485
916.259	15435
916.371	15473
916.483	15564
916.595	15374
916.708	15306
916.82	15382
916.932	15397
917.044	15329
917.156	15268
917.268	15237
917.38	15268
917.491	15119
917.603	15192
917.715	15272
917.826	15264
917.938	15135
918.049	15001
918.161	15100
918.272	15363
918.384	15211
918.495	15180
918.606	15024
918.717	14876
918.828	15020
918.939	15001
919.05	14811
919.161	14899
919.272	14743
919.383	14788
919.494	14982
919.604	15131
919.715	14857
919.826	14826
919.936	14891
920.047	14963
920.157	14887
920.267	15047
920.378	14891
920.488	14804
920.598	14994
920.708	15180
920.818	15032
920.928	15039
921.038	15256
921.148	15127
921.258	14785
921.368	14743
921.477	14663
921.587	14636
921.697	14438
921.806	14610
921.916	14480
922.025	14381
922.134	14278
922.244	14202
922.353	14233
922.462	14183
922.571	14168
922.68	13909
922.789	13890
922.898	13822
923.007	13906
923.116	13856
923.224	13879
923.333	13841
923.442	13784
923.55	13643
923.659	13693
923.767	13799
923.876	13753
923.984	13700
924.092	13655
924.201	13609
924.309	13594
924.417	13609
924.525	13552
924.633	13567
924.741	14461
924.849	13365
924.956	13521
925.064	13266
925.172	13255
925.279	13274
925.387	13422
925.494	13308
925.602	13384
925.709	13324
925.816	13217
925.924	13236
926.031	13331
926.138	13244
926.245	13285
926.352	13091
926.459	13308
926.566	13346
926.673	13156
926.779	13129
926.886	13091
926.993	12932
927.099	12863
927.206	12791
927.312	12779
927.419	12783
927.525	12795
927.631	12840
927.737	12738
927.843	12631
927.95	12574
928.056	12570
928.162	12719
928.267	12715
928.373	13266
928.479	12677
928.585	12509
928.69	12582
928.796	12639
928.901	12467
929.007	12372
929.112	12585
929.218	12544
929.323	12361
929.428	12410
929.533	12509
929.638	12334
929.743	12353
929.848	12315
929.953	12414
930.058	12171
930.163	12064
930.267	11992
930.372	12213
930.477	12068
930.581	12224
930.685	12148
930.79	11916
930.894	11992
930.998	11882
931.103	12110
931.207	11726
931.311	11611
931.415	11554
931.519	11311
931.623	11280
