Data from test_V78500241_3208.txt Node
Date: Fri Mar 25 16:04:01 CST 2022
User: usil
Spectrometer: V785-0024
Trigger mode: 0
Integration Time (sec): 4.000000E-1
Scans to average: 1
Nonlinearity correction enabled: false
Boxcar width: 0
Storing dark spectrum: false
XAxis mode: Wavelengths
Number of Pixels in Spectrum: 1024
>>>>>Begin Spectral Data<<<<<
801.071	28759
801.214	28702
801.356	28314
801.499	28295
801.641	28280
801.783	28318
801.926	28261
802.068	28401
802.211	28147
802.353	28139
802.496	28063
802.638	27926
802.78	27979
802.923	27793
803.065	27850
803.208	27914
803.35	28006
803.492	28109
803.635	28223
803.777	28086
803.919	28295
804.061	28459
804.204	28200
804.346	28036
804.488	28139
804.63	28196
804.773	28013
804.915	28105
805.057	28291
805.199	28303
805.341	28253
805.483	28234
805.626	28306
805.768	28188
805.91	28363
806.052	28341
806.194	28291
806.336	28603
806.478	28257
806.62	28268
806.762	28523
806.904	28580
807.046	28900
807.188	28645
807.33	28748
807.472	28771
807.614	28615
807.756	28710
807.898	28641
808.04	28527
808.182	28630
808.324	28664
808.465	28771
808.607	28812
808.749	29060
808.891	29231
809.033	29140
809.174	29094
809.316	29090
809.458	29006
809.6	29109
809.741	29113
809.883	29235
810.025	29292
810.166	29341
810.308	29307
810.45	29296
810.591	29299
810.733	28949
810.875	29113
811.016	28984
811.158	29094
811.299	29121
811.441	29330
811.582	29250
811.724	29018
811.865	28999
812.007	29014
812.148	28934
812.29	29143
812.431	29197
812.573	29398
812.714	29516
812.855	29539
812.997	29775
813.138	29836
813.279	29661
813.421	29547
813.562	29490
813.703	29337
813.845	29353
813.986	28927
814.127	28782
814.268	28706
814.41	28801
814.551	28778
814.692	28900
814.833	28668
814.974	28664
815.115	28786
815.256	28763
815.397	28554
815.539	28694
815.68	28428
815.821	28470
815.962	28622
816.103	28508
816.244	28546
816.385	28379
816.526	28287
816.666	28147
816.807	28067
816.948	28021
817.089	28196
817.23	27979
817.371	28059
817.512	28093
817.653	28059
817.793	28021
817.934	27941
818.075	28040
818.216	27994
818.356	27994
818.497	27953
818.638	27831
818.778	27774
818.919	27884
819.06	27998
819.2	27888
819.341	28204
819.481	28059
819.622	28337
819.762	28356
819.903	28295
820.043	28177
820.184	28147
820.324	28230
820.465	28333
820.605	28329
820.746	28204
820.886	28059
821.026	28303
821.167	28116
821.307	28181
821.447	28097
821.588	27960
821.728	27781
821.868	27679
822.008	27713
822.149	27587
822.289	27462
822.429	27298
822.569	27245
822.709	27351
822.849	27173
822.99	27169
823.13	26998
823.27	26929
823.41	26952
823.55	26811
823.69	26804
823.83	26967
823.97	26811
824.11	26705
824.25	26800
824.389	26609
824.529	26933
824.669	26792
824.809	26944
824.949	26876
825.089	26785
825.228	26727
825.368	26594
825.508	26613
825.648	26689
825.787	26537
825.927	26587
826.067	26533
826.206	26602
826.346	26530
826.485	26644
826.625	26640
826.765	26629
826.904	26682
827.044	26400
827.183	26450
827.323	26161
827.462	26434
827.601	26366
827.741	26465
827.88	26427
828.02	26240
828.159	26282
828.298	26244
828.437	26431
828.577	26301
828.716	26259
828.855	26119
828.994	25970
829.134	26012
829.273	26126
829.412	25951
829.551	25936
829.69	26081
829.829	26062
829.968	26130
830.107	26164
830.246	26050
830.385	25982
830.524	25894
830.663	25902
830.802	25712
830.941	25731
831.08	25632
831.219	25643
831.357	25757
831.496	25841
831.635	25594
831.774	25533
831.913	25575
832.051	25483
832.19	25293
832.329	25419
832.467	25259
832.606	25209
832.744	25209
832.883	25209
833.022	25339
833.16	25141
833.299	25240
833.437	25384
833.576	25396
833.714	25403
833.852	25411
833.991	25358
834.129	25464
834.267	25422
834.406	25415
834.544	25396
834.682	25468
834.821	25236
834.959	25384
835.097	25259
835.235	25354
835.373	25369
835.511	25449
835.65	25221
835.788	25137
835.926	25057
836.064	24894
836.202	25046
836.34	25168
836.478	25206
836.615	25183
836.753	25095
836.891	25228
837.029	25263
837.167	25107
837.305	25126
837.443	25038
837.58	25019
837.718	25038
837.856	25103
837.993	24947
838.131	25008
838.269	24932
838.406	24886
838.544	24833
838.681	24627
838.819	24677
838.956	24585
839.094	24323
839.231	24597
839.369	24745
839.506	24867
839.643	24772
839.781	24388
839.918	24475
840.055	24467
840.193	24399
840.33	24429
840.467	24369
840.604	24384
840.742	24616
840.879	24292
841.016	24254
841.153	24338
841.29	24376
841.427	24365
841.564	24372
841.701	24338
841.838	24403
841.975	24292
842.112	24289
842.249	24243
842.385	24136
842.522	24361
842.659	24205
842.796	24201
842.933	24178
843.069	24049
843.206	24034
843.343	24140
843.479	24152
843.616	24201
843.752	23935
843.889	24011
844.025	24129
844.162	23920
844.298	23965
844.435	23958
844.571	23965
844.708	23908
844.844	24072
844.98	24068
845.117	24041
845.253	23748
845.389	23672
845.525	23802
845.661	23828
845.798	23608
845.934	23684
846.07	23668
846.206	23752
846.342	23726
846.478	23729
846.614	23452
846.75	23493
846.886	23376
847.022	23395
847.158	23429
847.294	23402
847.429	23341
847.565	23376
847.701	23452
847.837	23090
847.972	22984
848.108	23265
848.244	23117
848.379	23010
848.515	23060
848.65	22957
848.786	22999
848.921	22965
849.057	23006
849.192	23022
849.328	23006
849.463	22904
849.598	22934
849.734	22835
849.869	22759
850.004	22694
850.14	22782
850.275	22706
850.41	22649
850.545	22664
850.68	22767
850.815	22691
850.95	22736
851.085	22885
851.22	22831
851.355	22694
851.49	22683
851.625	22664
851.76	22801
851.895	22599
852.03	22831
852.165	22763
852.299	22763
852.434	22908
852.569	22755
852.703	22664
852.838	22687
852.973	22828
853.107	22694
853.242	22656
853.376	22615
853.511	22474
853.645	22557
853.78	22615
853.914	22607
854.048	22512
854.183	22630
854.317	22535
854.451	22736
854.585	22599
854.72	22607
854.854	22660
854.988	22500
855.122	22596
855.256	22360
855.39	22569
855.524	22573
855.658	22538
855.792	22565
855.926	22626
856.06	22656
856.194	22611
856.327	22542
856.461	22668
856.595	22527
856.729	22516
856.862	22687
856.996	22531
857.13	22656
857.263	22790
857.397	22641
857.53	22398
857.664	22557
857.797	22607
857.931	22668
858.064	22466
858.197	22645
858.331	22440
858.464	22470
858.597	22474
858.731	22615
858.864	22580
858.997	22542
859.13	22538
859.263	22519
859.396	22630
859.529	22508
859.662	22584
859.795	22565
859.928	22538
860.061	22679
860.194	22713
860.327	22592
860.46	22531
860.592	22733
860.725	22744
860.858	22736
860.99	22436
861.123	22569
861.256	22569
861.388	22584
861.521	23254
861.653	22398
861.786	22337
861.918	22405
862.05	22557
862.183	22561
862.315	22474
862.447	22557
862.58	22535
862.712	22223
862.844	22238
862.976	22295
863.108	22478
863.24	22786
863.372	22204
863.504	22215
863.636	22265
863.768	22325
863.9	22299
864.032	22204
864.164	22185
864.296	22272
864.428	22303
864.559	22325
864.691	22352
864.823	22291
864.954	22253
865.086	22185
865.217	22109
865.349	22131
865.48	22128
865.612	22166
865.743	22417
865.875	22204
866.006	22070
866.137	22188
866.269	21964
866.4	22120
866.531	22192
866.662	22067
866.793	22010
866.924	22059
867.055	22112
867.186	22101
867.317	22032
867.448	21953
867.579	22101
867.71	21994
867.841	21979
867.972	22082
868.103	22059
868.233	22120
868.364	22017
868.495	22131
868.625	22348
868.756	22466
868.886	22238
869.017	22306
869.147	22394
869.278	22379
869.408	22436
869.539	22284
869.669	22432
869.799	22348
869.929	22409
870.06	22478
870.19	22797
870.32	22653
870.45	22569
870.58	22771
870.71	22763
870.84	22828
870.97	22664
871.1	22668
871.23	22877
871.36	22858
871.489	22908
871.619	22824
871.749	23014
871.879	22866
872.008	22953
872.138	22843
872.267	22949
872.397	22805
872.526	22763
872.656	22831
872.785	22771
872.915	22869
873.044	22968
873.173	23109
873.303	22911
873.432	23006
873.561	23094
873.69	22805
873.819	22930
873.948	23048
874.077	22908
874.206	22866
874.335	22873
874.464	22999
874.593	23185
874.722	23174
874.851	23166
874.979	23079
875.108	23102
875.237	23143
875.365	23014
875.494	23151
875.623	23239
875.751	23143
875.88	23212
876.008	23345
876.136	23334
876.265	23516
876.393	23551
876.521	23531
876.65	23573
876.778	23684
876.906	23497
877.034	23452
877.162	23516
877.29	23467
877.418	23596
877.546	23425
877.674	23490
877.802	23406
877.93	23448
878.058	23402
878.185	23421
878.313	23391
878.441	23592
878.568	23376
878.696	23376
878.824	23524
878.951	23615
879.079	23634
879.206	23733
879.333	23608
879.461	23585
879.588	23547
879.715	23737
879.842	23824
879.97	23535
880.097	23254
880.224	23383
880.351	23417
880.478	23269
880.605	23292
880.732	23520
880.859	23646
880.986	23334
881.112	23444
881.239	23220
881.366	22946
881.493	22953
881.619	22698
881.746	22946
881.872	22809
881.999	22866
882.125	22759
882.252	22881
882.378	22873
882.505	22881
882.631	22721
882.757	22596
882.883	22668
883.01	22527
883.136	22523
883.262	22322
883.388	22417
883.514	22523
883.64	22607
883.766	22485
883.892	22272
884.018	22329
884.143	22455
884.269	22584
884.395	22261
884.52	22147
884.646	22177
884.772	22169
884.897	22105
885.023	22135
885.148	22337
885.274	22265
885.399	22207
885.524	22124
885.65	22200
885.775	22139
885.9	22192
886.025	22169
886.15	22242
886.275	22044
886.4	22013
886.525	22109
886.65	22135
886.775	22090
886.9	22306
887.025	22291
887.149	22188
887.274	21892
887.399	21956
887.523	22040
887.648	21899
887.773	21854
887.897	21941
888.021	21880
888.146	21899
888.27	21888
888.395	21941
888.519	21926
888.643	21994
888.767	22006
888.891	21869
889.015	21652
889.139	21797
889.263	21789
889.387	21835
889.511	21895
889.635	21960
889.759	21774
889.883	21671
890.006	21736
890.13	21774
890.254	21675
890.377	21572
890.501	21386
890.624	21515
890.748	21587
890.871	21363
890.995	21275
891.118	21294
891.241	21241
891.364	21203
891.488	21355
891.611	21302
891.734	21397
891.857	21329
891.98	21169
892.103	21367
892.226	21226
892.349	21245
892.471	21085
892.594	21116
892.717	21165
892.839	21074
892.962	21070
893.085	21310
893.207	21081
893.33	21096
893.452	21013
893.575	21157
893.697	21131
893.819	21363
893.941	21260
894.064	21306
894.186	21161
894.308	21135
894.43	21161
894.552	21188
894.674	21306
894.796	21180
894.918	21135
895.04	21036
895.161	21131
895.283	21173
895.405	20979
895.526	21062
895.648	21104
895.769	21176
895.891	21230
896.012	21127
896.134	21188
896.255	21260
896.376	21032
896.498	21127
896.619	21180
896.74	21135
896.861	21249
896.982	21557
897.103	21454
897.224	21389
897.345	21332
897.466	21222
897.587	21325
897.708	21408
897.828	21458
897.949	21287
898.07	21169
898.19	21302
898.311	21428
898.431	21294
898.552	21317
898.672	21325
898.792	21393
898.913	21344
899.033	21252
899.153	21127
899.273	21074
899.393	21104
899.513	20975
899.633	21150
899.753	20982
899.873	20971
899.993	21165
900.113	21074
900.232	20948
900.352	20952
900.472	20979
900.591	20724
900.711	20868
900.83	20804
900.95	20975
901.069	20830
901.189	20693
901.308	20530
901.427	20427
901.546	20233
901.665	20499
901.784	20423
901.904	20244
902.023	20172
902.141	19997
902.26	19909
902.379	20043
902.498	19902
902.617	19803
902.735	19814
902.854	19784
902.973	19776
903.091	19529
903.21	19559
903.328	19525
903.446	19464
903.565	19354
903.683	19445
903.801	19312
903.919	19365
904.038	19198
904.156	19118
904.274	19228
904.392	19114
904.51	18993
904.627	19019
904.745	19145
904.863	19076
904.981	18932
905.098	18696
905.216	18734
905.334	18757
905.451	18764
905.569	18802
905.686	18848
905.803	18738
905.921	18536
906.038	18642
906.155	18604
906.272	18380
906.389	18456
906.506	18330
906.623	18346
906.74	18350
906.857	18182
906.974	18167
907.091	18338
907.208	18350
907.324	18220
907.441	18285
907.557	18133
907.674	17935
907.79	18015
907.907	17980
908.023	17999
908.139	18083
908.256	17939
908.372	17996
908.488	17950
908.604	17714
908.72	17707
908.836	17649
908.952	17741
909.068	17866
909.184	17775
909.3	17726
909.415	17745
909.531	17543
909.647	17410
909.762	17421
909.878	17459
909.993	17345
910.108	17334
910.224	17345
910.339	17402
910.454	17296
910.57	17166
910.685	17246
910.8	17406
910.915	17315
911.03	17143
911.145	17003
911.259	17003
911.374	17041
911.489	16972
911.604	16828
911.718	16797
911.833	16694
911.947	16626
912.062	16500
912.176	16820
912.291	16736
912.405	16721
912.519	16919
912.633	16911
912.748	16767
912.862	16584
912.976	16573
913.09	16481
913.204	16519
913.318	16443
913.431	16626
913.545	16630
913.659	16702
913.772	16478
913.886	16424
914	16356
914.113	16409
914.226	16466
914.34	16451
914.453	16382
914.566	16360
914.68	16143
914.793	16253
914.906	16036
915.019	15926
915.132	15915
915.245	15899
915.358	15918
915.47	15846
915.583	15884
915.696	15899
915.809	15926
915.921	16002
916.034	15918
916.146	15789
916.259	15812
916.371	15911
916.483	15808
916.595	15789
916.708	15629
916.82	15587
916.932	15819
917.044	15759
917.156	15622
917.268	15561
917.38	15584
917.491	15515
917.603	15530
917.715	15496
917.826	15625
917.938	15477
918.049	15370
918.161	15443
918.272	15606
918.384	15553
918.495	15424
918.606	15408
918.717	15256
918.828	15252
918.939	15306
919.05	15135
919.161	15180
919.272	15047
919.383	15173
919.494	15268
919.604	15542
919.715	15233
919.826	15135
919.936	15211
920.047	15405
920.157	15184
920.267	15382
920.378	15195
920.488	15184
920.598	15332
920.708	15511
920.818	15439
920.928	15405
921.038	15454
921.148	15416
921.258	15157
921.368	15047
921.477	14956
921.587	14845
921.697	14838
921.806	14929
921.916	14838
922.025	14598
922.134	14598
922.244	14629
922.353	14571
922.462	14571
922.571	14488
922.68	14271
922.789	14275
922.898	14218
923.007	14180
923.116	14263
923.224	14172
923.333	14123
923.442	14103
923.55	14024
923.659	14145
923.767	14039
923.876	13970
923.984	14039
924.092	13917
924.201	14050
924.309	13788
924.417	14005
924.525	13811
924.633	13875
924.741	14629
924.849	13700
924.956	13784
925.064	13609
925.172	13521
925.279	13639
925.387	13518
925.494	13567
925.602	13788
925.709	13666
925.816	13453
925.924	13529
926.031	13552
926.138	13460
926.245	13586
926.352	13457
926.459	13563
926.566	13529
926.673	13487
926.779	13392
926.886	13297
926.993	13225
927.099	13122
927.206	13149
927.312	13114
927.419	13141
927.525	13206
927.631	13190
927.737	13038
927.843	12973
927.95	12859
928.056	12939
928.162	12958
928.267	13050
928.373	13525
928.479	13076
928.585	12806
928.69	12932
928.796	12924
928.901	12806
929.007	12688
929.112	12738
929.218	12817
929.323	12665
929.428	12570
929.533	12711
929.638	12601
929.743	12639
929.848	12662
929.953	12738
930.058	12479
930.163	12327
930.267	12327
930.372	12528
930.477	12247
930.581	12532
930.685	12369
930.79	12266
930.894	12254
930.998	12095
931.103	12319
931.207	12041
931.311	11935
931.415	11779
931.519	11554
931.623	11558
