Data from test_V78500241_1165.txt Node
Date: Fri Mar 25 15:49:52 CST 2022
User: usil
Spectrometer: V785-0024
Trigger mode: 0
Integration Time (sec): 4.000000E-1
Scans to average: 1
Nonlinearity correction enabled: false
Boxcar width: 0
Storing dark spectrum: false
XAxis mode: Wavelengths
Number of Pixels in Spectrum: 1024
>>>>>Begin Spectral Data<<<<<
801.071	28809
801.214	28615
801.356	28584
801.499	28417
801.641	28253
801.783	28242
801.926	28299
802.068	28371
802.211	28287
802.353	28158
802.496	27953
802.638	27949
802.78	27907
802.923	27880
803.065	27854
803.208	27953
803.35	28090
803.492	28036
803.635	28291
803.777	28128
803.919	28234
804.061	28554
804.204	28390
804.346	28226
804.488	28116
804.63	28177
804.773	28223
804.915	28265
805.057	28348
805.199	28090
805.341	28306
805.483	28462
805.626	28280
805.768	28257
805.91	28291
806.052	28413
806.194	28284
806.336	28550
806.478	28443
806.62	28519
806.762	28443
806.904	28672
807.046	28820
807.188	28816
807.33	28835
807.472	28934
807.614	28763
807.756	28900
807.898	28698
808.04	28554
808.182	28706
808.324	28577
808.465	28858
808.607	29003
808.749	29124
808.891	29162
809.033	29261
809.174	29052
809.316	28972
809.458	29162
809.6	29094
809.741	29231
809.883	29337
810.025	29360
810.166	29455
810.308	29345
810.45	29436
810.591	29235
810.733	29212
810.875	29071
811.016	29052
811.158	28999
811.299	29189
811.441	29307
811.582	29246
811.724	29235
811.865	29174
812.007	29189
812.148	29003
812.29	29086
812.431	29402
812.573	29379
812.714	29429
812.855	29737
812.997	29794
813.138	29916
813.279	29752
813.421	29718
813.562	29512
813.703	29566
813.845	29356
813.986	29200
814.127	29006
814.268	28786
814.41	28888
814.551	28850
814.692	29022
814.833	28786
814.974	28824
815.115	28839
815.256	28721
815.397	28721
815.539	28713
815.68	28664
815.821	28656
815.962	28618
816.103	28672
816.244	28615
816.385	28493
816.526	28485
816.666	28177
816.807	28055
816.948	28280
817.089	28120
817.23	28139
817.371	28185
817.512	28147
817.653	28040
817.793	28040
817.934	28112
818.075	28063
818.216	28181
818.356	28074
818.497	27960
818.638	27873
818.778	27838
818.919	27865
819.06	27964
819.2	28006
819.341	28200
819.481	28143
819.622	28306
819.762	28557
819.903	28390
820.043	28291
820.184	28234
820.324	28314
820.465	28318
820.605	28265
820.746	28306
820.886	28040
821.026	28230
821.167	28272
821.307	28287
821.447	28147
821.588	28070
821.728	27991
821.868	27762
822.008	27751
822.149	27667
822.289	27534
822.429	27466
822.569	27245
822.709	27256
822.849	27192
822.99	27142
823.13	27081
823.27	27089
823.41	26979
823.55	26861
823.69	27032
823.83	27142
823.97	26967
824.11	26883
824.25	26758
824.389	26914
824.529	26929
824.669	26910
824.809	26918
824.949	26963
825.089	26960
825.228	26933
825.368	26739
825.508	26781
825.648	26758
825.787	26758
825.927	26838
826.067	26773
826.206	26739
826.346	26750
826.485	26689
826.625	26769
826.765	26925
826.904	26769
827.044	26625
827.183	26602
827.323	26431
827.462	26507
827.601	26438
827.741	26412
827.88	26495
828.02	26317
828.159	26290
828.298	26518
828.437	26488
828.577	26240
828.716	26457
828.855	26282
828.994	26149
829.134	26240
829.273	26214
829.412	26187
829.551	26096
829.69	26221
829.829	26111
829.968	26122
830.107	26248
830.246	26081
830.385	26084
830.524	26176
830.663	25982
830.802	25879
830.941	25563
831.08	25681
831.219	25666
831.357	25791
831.496	25936
831.635	25761
831.774	25769
831.913	25605
832.051	25491
832.19	25502
832.329	25525
832.467	25392
832.606	25422
832.744	25407
832.883	25510
833.022	25324
833.16	25434
833.299	25567
833.437	25422
833.576	25586
833.714	25613
833.852	25430
833.991	25388
834.129	25392
834.267	25491
834.406	25529
834.544	25533
834.682	25499
834.821	25335
834.959	25575
835.097	25206
835.235	25388
835.373	25422
835.511	25396
835.65	25358
835.788	25278
835.926	25183
836.064	25061
836.202	25168
836.34	25343
836.478	25316
836.615	25213
836.753	25308
836.891	25244
837.029	25190
837.167	25206
837.305	25236
837.443	25164
837.58	25004
837.718	25126
837.856	25126
837.993	25046
838.131	24992
838.269	24947
838.406	24878
838.544	24970
838.681	24871
838.819	24760
838.956	24608
839.094	24521
839.231	24669
839.369	24791
839.506	24890
839.643	24829
839.781	24494
839.918	24601
840.055	24544
840.193	24505
840.33	24445
840.467	24418
840.604	24681
840.742	24837
840.879	24266
841.016	24437
841.153	24346
841.29	24517
841.427	24479
841.564	24448
841.701	24448
841.838	24437
841.975	24338
842.112	24388
842.249	24167
842.385	24308
842.522	24426
842.659	24239
842.796	24117
842.933	24254
843.069	24087
843.206	24167
843.343	24224
843.479	24205
843.616	24281
843.752	23889
843.889	23916
844.025	24136
844.162	23912
844.298	24114
844.435	24060
844.571	23950
844.708	24057
844.844	24068
844.98	24106
845.117	23939
845.253	23901
845.389	23897
845.525	23821
845.661	23851
845.798	23836
845.934	23756
846.07	23745
846.206	23790
846.342	23809
846.478	23771
846.614	23501
846.75	23391
846.886	23436
847.022	23467
847.158	23402
847.294	23429
847.429	23467
847.565	23391
847.701	23600
847.837	23258
847.972	23170
848.108	23151
848.244	23185
848.379	23136
848.515	22923
848.65	22938
848.786	23010
848.921	23064
849.057	23143
849.192	23075
849.328	23185
849.463	22995
849.598	22927
849.734	22809
849.869	22942
850.004	22820
850.14	22736
850.275	22801
850.41	22672
850.545	22702
850.68	22733
850.815	22793
850.95	22759
851.085	23006
851.22	22889
851.355	22790
851.49	22706
851.625	22710
851.76	22790
851.895	22694
852.03	22679
852.165	22710
852.299	22908
852.434	22877
852.569	22672
852.703	22877
852.838	22831
852.973	22877
853.107	22866
853.242	22774
853.376	22656
853.511	22474
853.645	22645
853.78	22748
853.914	22592
854.048	22603
854.183	22527
854.317	22706
854.451	22710
854.585	22611
854.72	22691
854.854	22523
854.988	22493
855.122	22577
855.256	22409
855.39	22721
855.524	22656
855.658	22622
855.792	22618
855.926	22664
856.06	22550
856.194	22694
856.327	22577
856.461	22516
856.595	22485
856.729	22637
856.862	22618
856.996	22592
857.13	22664
857.263	22637
857.397	22675
857.53	22668
857.664	22569
857.797	22596
857.931	22656
858.064	22615
858.197	22672
858.331	22630
858.464	22565
858.597	22550
858.731	22740
858.864	22497
858.997	22577
859.13	22691
859.263	22569
859.396	22733
859.529	22512
859.662	22531
859.795	22519
859.928	22542
860.061	22698
860.194	22896
860.327	22679
860.46	22611
860.592	22816
860.725	22733
860.858	22691
860.99	22694
861.123	22451
861.256	22630
861.388	22519
861.521	23318
861.653	22557
861.786	22447
861.918	22382
862.05	22565
862.183	22394
862.315	22527
862.447	22603
862.58	22440
862.712	22344
862.844	22207
862.976	22329
863.108	22489
863.24	22850
863.372	22356
863.504	22242
863.636	22215
863.768	22280
863.9	22310
864.032	22303
864.164	22253
864.296	22405
864.428	22405
864.559	22344
864.691	22188
864.823	22287
864.954	22352
865.086	22226
865.217	22299
865.349	22048
865.48	22219
865.612	22356
865.743	22295
865.875	22185
866.006	22238
866.137	22257
866.269	22181
866.4	22211
866.531	22139
866.662	22051
866.793	22070
866.924	22162
867.055	22067
867.186	22135
867.317	22105
867.448	21983
867.579	21972
867.71	22055
867.841	22131
867.972	22101
868.103	22090
868.233	21983
868.364	22162
868.495	22238
868.625	22310
868.756	22432
868.886	22276
869.017	22287
869.147	22394
869.278	22497
869.408	22455
869.539	22390
869.669	22409
869.799	22493
869.929	22557
870.06	22500
870.19	22561
870.32	22603
870.45	22702
870.58	22752
870.71	22858
870.84	22801
870.97	22618
871.1	22649
871.23	22892
871.36	22949
871.489	22850
871.619	22843
871.749	22957
871.879	22831
872.008	23094
872.138	22896
872.267	22999
872.397	22847
872.526	22835
872.656	22645
872.785	22812
872.915	22953
873.044	23132
873.173	22923
873.303	23083
873.432	23014
873.561	23086
873.69	23018
873.819	22965
873.948	23044
874.077	22919
874.206	22927
874.335	22847
874.464	22942
874.593	23147
874.722	23109
874.851	23239
874.979	23086
875.108	23197
875.237	23159
875.365	22991
875.494	23064
875.623	23181
875.751	23147
875.88	23220
876.008	23273
876.136	23140
876.265	23608
876.393	23649
876.521	23592
876.65	23531
876.778	23562
876.906	23360
877.034	23520
877.162	23455
877.29	23528
877.418	23459
877.546	23486
877.674	23406
877.802	23478
877.93	23471
878.058	23524
878.185	23391
878.313	23433
878.441	23387
878.568	23197
878.696	23334
878.824	23452
878.951	23657
879.079	23566
879.206	23771
879.333	23687
879.461	23436
879.588	23596
879.715	23699
879.842	23783
879.97	23604
880.097	23273
880.224	23311
880.351	23398
880.478	23459
880.605	23261
880.732	23341
880.859	23467
880.986	23364
881.112	23334
881.239	23254
881.366	22999
881.493	22980
881.619	22991
881.746	22904
881.872	22919
881.999	22790
882.125	22824
882.252	22915
882.378	22873
882.505	22904
882.631	22744
882.757	22653
882.883	22561
883.01	22557
883.136	22527
883.262	22382
883.388	22314
883.514	22561
883.64	22649
883.766	22493
883.892	22371
884.018	22371
884.143	22421
884.269	22512
884.395	22249
884.52	22177
884.646	22280
884.772	22116
884.897	22040
885.023	22044
885.148	22246
885.274	22318
885.399	22322
885.524	22082
885.65	22040
885.775	22257
885.9	22120
886.025	22322
886.15	22253
886.275	22044
886.4	22097
886.525	22097
886.65	22124
886.775	22097
886.9	22242
887.025	22352
887.149	22150
887.274	21987
887.399	21945
887.523	21846
887.648	21819
887.773	21774
887.897	22036
888.021	21873
888.146	21968
888.27	21994
888.395	22010
888.519	22055
888.643	21968
888.767	21899
888.891	21899
889.015	21812
889.139	21766
889.263	21618
889.387	21838
889.511	21884
889.635	21838
889.759	21701
889.883	21781
890.006	21705
890.13	21865
890.254	21682
890.377	21717
890.501	21397
890.624	21450
890.748	21469
890.871	21382
890.995	21268
891.118	21382
891.241	21211
891.364	21355
891.488	21336
891.611	21203
891.734	21325
891.857	21378
891.98	21405
892.103	21321
892.226	21241
892.349	21245
892.471	21051
892.594	21226
892.717	21252
892.839	21207
892.962	21123
893.085	21207
893.207	21112
893.33	21081
893.452	21154
893.575	21116
893.697	21081
893.819	21287
893.941	21389
894.064	21203
894.186	21074
894.308	20941
894.43	21184
894.552	21359
894.674	21184
894.796	21066
894.918	21150
895.04	21074
895.161	21237
895.283	21070
895.405	21017
895.526	21142
895.648	21074
895.769	21180
895.891	21138
896.012	21188
896.134	21199
896.255	21108
896.376	21100
896.498	21066
896.619	21226
896.74	21169
896.861	21165
896.982	21469
897.103	21591
897.224	21507
897.345	21351
897.466	21283
897.587	21405
897.708	21477
897.828	21336
897.949	21241
898.07	21123
898.19	21203
898.311	21348
898.431	21214
898.552	21344
898.672	21416
898.792	21435
898.913	21302
899.033	21146
899.153	21028
899.273	21020
899.393	21077
899.513	21077
899.633	21081
899.753	21241
899.873	21195
899.993	21074
900.113	20982
900.232	21043
900.352	20918
900.472	20899
900.591	20731
900.711	20823
900.83	20785
900.95	20895
901.069	20857
901.189	20682
901.308	20549
901.427	20434
901.546	20320
901.665	20427
901.784	20324
901.904	20324
902.023	20244
902.141	19967
902.26	19970
902.379	20005
902.498	19925
902.617	19814
902.735	19974
902.854	19799
902.973	19738
903.091	19590
903.21	19590
903.328	19537
903.446	19506
903.565	19293
903.683	19392
903.801	19270
903.919	19282
904.038	19339
904.156	19129
904.274	19255
904.392	19129
904.51	19050
904.627	19050
904.745	19042
904.863	19175
904.981	18916
905.098	18856
905.216	18681
905.334	18837
905.451	18837
905.569	18741
905.686	18711
905.803	18882
905.921	18498
906.038	18646
906.155	18601
906.272	18494
906.389	18445
906.506	18323
906.623	18319
906.74	18239
906.857	18247
906.974	18232
907.091	18338
907.208	18403
907.324	18323
907.441	18224
907.557	17980
907.674	17988
907.79	18011
907.907	17904
908.023	17973
908.139	18026
908.256	17980
908.372	17828
908.488	17870
908.604	17733
908.72	17798
908.836	17592
908.952	17767
909.068	17748
909.184	17821
909.3	17771
909.415	17756
909.531	17767
909.647	17547
909.762	17425
909.878	17391
909.993	17448
910.108	17436
910.224	17395
910.339	17376
910.454	17128
910.57	17178
910.685	17174
910.8	17376
910.915	17421
911.03	17117
911.145	16984
911.259	17029
911.374	17014
911.489	16942
911.604	16915
911.718	16755
911.833	16797
911.947	16588
912.062	16538
912.176	16755
912.291	16797
912.405	16767
912.519	16889
912.633	16949
912.748	16752
912.862	16660
912.976	16554
913.09	16398
913.204	16519
913.318	16542
913.431	16687
913.545	16615
913.659	16694
913.772	16432
913.886	16352
914	16303
914.113	16455
914.226	16382
914.34	16390
914.453	16238
914.566	16310
914.68	16242
914.793	16181
914.906	16074
915.019	15991
915.132	15865
915.245	15857
915.358	15983
915.47	15956
915.583	15998
915.696	15960
915.809	16036
915.921	15975
916.034	15838
916.146	15778
916.259	15774
916.371	15964
916.483	15755
916.595	15713
916.708	15709
916.82	15797
916.932	15610
917.044	15717
917.156	15660
917.268	15568
917.38	15530
917.491	15488
917.603	15534
917.715	15557
917.826	15762
917.938	15473
918.049	15359
918.161	15466
918.272	15648
918.384	15466
918.495	15477
918.606	15241
918.717	15313
918.828	15272
918.939	15332
919.05	15176
919.161	15241
919.272	15047
919.383	15074
919.494	15264
919.604	15439
919.715	15283
919.826	15180
919.936	15188
920.047	15302
920.157	15313
920.267	15310
920.378	15245
920.488	15176
920.598	15363
920.708	15591
920.818	15389
920.928	15355
921.038	15496
921.148	15378
921.258	15112
921.368	15013
921.477	15093
921.587	14975
921.697	14819
921.806	14918
921.916	14845
922.025	14667
922.134	14575
922.244	14587
922.353	14712
922.462	14412
922.571	14393
922.68	14275
922.789	14263
922.898	14233
923.007	14221
923.116	14202
923.224	14244
923.333	14145
923.442	14058
923.55	14008
923.659	14027
923.767	14103
923.876	13974
923.984	14046
924.092	13978
924.201	13932
924.309	13879
924.417	13932
924.525	13906
924.633	13925
924.741	14678
924.849	13521
924.956	13772
925.064	13727
925.172	13605
925.279	13575
925.387	13609
925.494	13537
925.602	13742
925.709	13548
925.816	13529
925.924	13438
926.031	13552
926.138	13533
926.245	13537
926.352	13445
926.459	13521
926.566	13552
926.673	13483
926.779	13346
926.886	13285
926.993	13190
927.099	13126
927.206	13015
927.312	13053
927.419	13168
927.525	13110
927.631	13103
927.737	12973
927.843	12954
927.95	12954
928.056	13042
928.162	12970
928.267	12989
928.373	13567
928.479	13038
928.585	12814
928.69	12932
928.796	12871
928.901	12798
929.007	12692
929.112	12802
929.218	12776
929.323	12703
929.428	12722
929.533	12817
929.638	12566
929.743	12597
929.848	12642
929.953	12498
930.058	12414
930.163	12262
930.267	12342
930.372	12460
930.477	12205
930.581	12525
930.685	12384
930.79	12178
930.894	12216
930.998	12148
931.103	12399
931.207	11946
931.311	11847
931.415	11863
931.519	11634
931.623	11425
