Data from test_V78500241_3050.txt Node
Date: Fri Mar 25 16:02:55 CST 2022
User: usil
Spectrometer: V785-0024
Trigger mode: 0
Integration Time (sec): 4.000000E-1
Scans to average: 1
Nonlinearity correction enabled: false
Boxcar width: 0
Storing dark spectrum: false
XAxis mode: Wavelengths
Number of Pixels in Spectrum: 1024
>>>>>Begin Spectral Data<<<<<
801.071	28379
801.214	28341
801.356	28006
801.499	27934
801.641	27911
801.783	27880
801.926	27979
802.068	27892
802.211	27747
802.353	27751
802.496	27622
802.638	27477
802.78	27534
802.923	27435
803.065	27389
803.208	27405
803.35	27564
803.492	27641
803.635	27857
803.777	27622
803.919	27835
804.061	28166
804.204	27892
804.346	27690
804.488	27564
804.63	27720
804.773	27534
804.915	27884
805.057	27831
805.199	27793
805.341	27838
805.483	28021
805.626	27941
805.768	27857
805.91	27918
806.052	28067
806.194	27895
806.336	28143
806.478	28112
806.62	27876
806.762	28070
806.904	28341
807.046	28394
807.188	28238
807.33	28299
807.472	28432
807.614	28333
807.756	28253
807.898	28124
808.04	28093
808.182	28112
808.324	28105
808.465	28173
808.607	28337
808.749	28599
808.891	28660
809.033	28698
809.174	28546
809.316	28542
809.458	28740
809.6	28500
809.741	28717
809.883	28675
810.025	28987
810.166	28946
810.308	28748
810.45	28915
810.591	28736
810.733	28694
810.875	28569
811.016	28428
811.158	28497
811.299	28622
811.441	28740
811.582	28824
811.724	28767
811.865	28611
812.007	28561
812.148	28596
812.29	28675
812.431	28809
812.573	28919
812.714	28896
812.855	29048
812.997	29242
813.138	29345
813.279	29223
813.421	29109
813.562	29033
813.703	28919
813.845	28748
813.986	28500
814.127	28394
814.268	28367
814.41	28360
814.551	28322
814.692	28291
814.833	28310
814.974	28154
815.115	28356
815.256	28166
815.397	28051
815.539	28185
815.68	28040
815.821	27979
815.962	28124
816.103	28105
816.244	27956
816.385	27983
816.526	27884
816.666	27698
816.807	27545
816.948	27675
817.089	27561
817.23	27686
817.371	27557
817.512	27682
817.653	27530
817.793	27500
817.934	27466
818.075	27675
818.216	27549
818.356	27477
818.497	27351
818.638	27298
818.778	27302
818.919	27298
819.06	27310
819.2	27545
819.341	27534
819.481	27496
819.622	27747
819.762	28074
819.903	27808
820.043	27736
820.184	27759
820.324	27667
820.465	27838
820.605	27690
820.746	27656
820.886	27587
821.026	27739
821.167	27682
821.307	27850
821.447	27557
821.588	27526
821.728	27355
821.868	27176
822.008	27207
822.149	27112
822.289	27047
822.429	26765
822.569	26777
822.709	26545
822.849	26678
822.99	26545
823.13	26549
823.27	26541
823.41	26450
823.55	26298
823.69	26358
823.83	26298
823.97	26180
824.11	26259
824.25	26065
824.389	26229
824.529	26389
824.669	26195
824.809	26332
824.949	26172
825.089	26278
825.228	26199
825.368	26043
825.508	26073
825.648	26187
825.787	26157
825.927	26168
826.067	26092
826.206	26244
826.346	26134
826.485	26130
826.625	26145
826.765	26252
826.904	26103
827.044	25868
827.183	25837
827.323	25818
827.462	25780
827.601	25928
827.741	25944
827.88	25875
828.02	25647
828.159	25803
828.298	25746
828.437	25940
828.577	25822
828.716	26001
828.855	25719
828.994	25403
829.134	25510
829.273	25681
829.412	25491
829.551	25362
829.69	25495
829.829	25567
829.968	25430
830.107	25590
830.246	25457
830.385	25594
830.524	25415
830.663	25259
830.802	25171
830.941	25065
831.08	25053
831.219	25148
831.357	25126
831.496	25354
831.635	25091
831.774	25072
831.913	24939
832.051	24951
832.19	24909
832.329	24920
832.467	24897
832.606	24711
832.744	24749
832.883	24764
833.022	24677
833.16	24753
833.299	24768
833.437	24787
833.576	24768
833.714	24878
833.852	24837
833.991	24882
834.129	24928
834.267	24935
834.406	24814
834.544	24863
834.682	24741
834.821	24848
834.959	24981
835.097	24768
835.235	24863
835.373	24920
835.511	24795
835.65	24620
835.788	24673
835.926	24517
836.064	24532
836.202	24532
836.34	24631
836.478	24825
836.615	24715
836.753	24696
836.891	24810
837.029	24563
837.167	24650
837.305	24650
837.443	24563
837.58	24490
837.718	24604
837.856	24467
837.993	24517
838.131	24555
838.269	24418
838.406	24384
838.544	24289
838.681	24114
838.819	24106
838.956	23999
839.094	24053
839.231	24140
839.369	24136
839.506	24232
839.643	24243
839.781	24003
839.918	23923
840.055	24022
840.193	23908
840.33	23836
840.467	23916
840.604	23885
840.742	24155
840.879	23786
841.016	23676
841.153	23794
841.29	23969
841.427	23885
841.564	23927
841.701	23779
841.838	23912
841.975	23737
842.112	23729
842.249	23710
842.385	23714
842.522	23870
842.659	23634
842.796	23672
842.933	23543
843.069	23547
843.206	23455
843.343	23684
843.479	23551
843.616	23722
843.752	23402
843.889	23376
844.025	23600
844.162	23360
844.298	23524
844.435	23337
844.571	23391
844.708	23368
844.844	23638
844.98	23490
845.117	23501
845.253	23330
845.389	23280
845.525	23261
845.661	23425
845.798	23197
845.934	23208
846.07	23124
846.206	23216
846.342	23349
846.478	23140
846.614	22831
846.75	22828
846.886	22972
847.022	22889
847.158	22869
847.294	22805
847.429	22839
847.565	22786
847.701	23090
847.837	22740
847.972	22447
848.108	22683
848.244	22698
848.379	22508
848.515	22424
848.65	22386
848.786	22531
848.921	22451
849.057	22485
849.192	22538
849.328	22523
849.463	22375
849.598	22409
849.734	22291
849.869	22409
850.004	22192
850.14	22272
850.275	22291
850.41	22116
850.545	22204
850.68	22124
850.815	22265
850.95	22219
851.085	22386
851.22	22291
851.355	22223
851.49	22128
851.625	22173
851.76	22070
851.895	22109
852.03	22143
852.165	22188
852.299	22310
852.434	22188
852.569	22272
852.703	22272
852.838	22329
852.973	22253
853.107	22363
853.242	22303
853.376	22097
853.511	21854
853.645	21998
853.78	22036
853.914	22017
854.048	21918
854.183	22067
854.317	21998
854.451	22265
854.585	22048
854.72	21994
854.854	22116
854.988	21998
855.122	22067
855.256	21945
855.39	22105
855.524	22097
855.658	21960
855.792	22124
855.926	21945
856.06	22173
856.194	22063
856.327	22044
856.461	21895
856.595	21941
856.729	21979
856.862	22150
856.996	22143
857.13	22120
857.263	22207
857.397	22162
857.53	22036
857.664	22124
857.797	22158
857.931	22162
858.064	21998
858.197	22185
858.331	21968
858.464	21953
858.597	21869
858.731	22010
858.864	22082
858.997	22013
859.13	22048
859.263	22147
859.396	22097
859.529	22048
859.662	21987
859.795	22021
859.928	22048
860.061	22238
860.194	22287
860.327	22116
860.46	22120
860.592	22097
860.725	22291
860.858	22230
860.99	22040
861.123	21884
861.256	22025
861.388	22048
861.521	22672
861.653	21907
861.786	21884
861.918	21743
862.05	22029
862.183	22029
862.315	21968
862.447	22070
862.58	22090
862.712	21797
862.844	21800
862.976	21800
863.108	21778
863.24	22154
863.372	21637
863.504	21720
863.636	21747
863.768	21762
863.9	21629
864.032	21778
864.164	21705
864.296	21812
864.428	21850
864.559	21861
864.691	21850
864.823	21732
864.954	21781
865.086	21644
865.217	21667
865.349	21660
865.48	21610
865.612	21606
865.743	21747
865.875	21625
866.006	21663
866.137	21641
866.269	21485
866.4	21587
866.531	21507
866.662	21462
866.793	21622
866.924	21641
867.055	21637
867.186	21545
867.317	21485
867.448	21564
867.579	21587
867.71	21450
867.841	21439
867.972	21610
868.103	21485
868.233	21542
868.364	21523
868.495	21686
868.625	21789
868.756	21911
868.886	21728
869.017	21774
869.147	21751
869.278	21930
869.408	22021
869.539	21743
869.669	22013
869.799	21892
869.929	21819
870.06	21926
870.19	22086
870.32	22093
870.45	21975
870.58	22284
870.71	22348
870.84	22337
870.97	22280
871.1	22109
871.23	22535
871.36	22390
871.489	22325
871.619	22440
871.749	22322
871.879	22417
872.008	22451
872.138	22447
872.267	22333
872.397	22211
872.526	22249
872.656	22261
872.785	22070
872.915	22538
873.044	22405
873.173	22554
873.303	22489
873.432	22527
873.561	22428
873.69	22382
873.819	22436
873.948	22497
874.077	22405
874.206	22462
874.335	22402
874.464	22462
874.593	22653
874.722	22630
874.851	22668
874.979	22694
875.108	22588
875.237	22584
875.365	22512
875.494	22637
875.623	22805
875.751	22660
875.88	22729
876.008	22835
876.136	22752
876.265	22984
876.393	23216
876.521	23071
876.65	23037
876.778	23006
876.906	22927
877.034	22908
877.162	23044
877.29	22881
877.418	23022
877.546	22904
877.674	22991
877.802	22949
877.93	22877
878.058	22957
878.185	22915
878.313	22957
878.441	22900
878.568	22934
878.696	22934
878.824	23105
878.951	23105
879.079	23117
879.206	23258
879.333	23075
879.461	22953
879.588	23033
879.715	23128
879.842	23265
879.97	23083
880.097	22740
880.224	22828
880.351	22862
880.478	22786
880.605	22869
880.732	22892
880.859	23018
880.986	22759
881.112	22744
881.239	22755
881.366	22630
881.493	22493
881.619	22402
881.746	22375
881.872	22409
881.999	22284
882.125	22249
882.252	22413
882.378	22329
882.505	22538
882.631	22166
882.757	22090
882.883	22032
883.01	21972
883.136	22063
883.262	21922
883.388	21888
883.514	22070
883.64	22158
883.766	22036
883.892	21873
884.018	21941
884.143	22013
884.269	22032
884.395	21743
884.52	21686
884.646	21705
884.772	21580
884.897	21557
885.023	21644
885.148	21766
885.274	21770
885.399	21880
885.524	21648
885.65	21892
885.775	21751
885.9	21625
886.025	21816
886.15	21819
886.275	21625
886.4	21648
886.525	21538
886.65	21610
886.775	21576
886.9	21755
887.025	21857
887.149	21701
887.274	21389
887.399	21382
887.523	21519
887.648	21549
887.773	21374
887.897	21545
888.021	21485
888.146	21382
888.27	21412
888.395	21564
888.519	21397
888.643	21397
888.767	21568
888.891	21329
889.015	21348
889.139	21367
889.263	21161
889.387	21386
889.511	21477
889.635	21466
889.759	21245
889.883	21142
890.006	21279
890.13	21374
890.254	21165
890.377	21119
890.501	21093
890.624	20998
890.748	21066
890.871	20872
890.995	20796
891.118	20750
891.241	20823
891.364	20705
891.488	20952
891.611	20785
891.734	20716
891.857	20842
891.98	20845
892.103	20800
892.226	20773
892.349	20708
892.471	20629
892.594	20731
892.717	20731
892.839	20830
892.962	20788
893.085	20834
893.207	20682
893.33	20651
893.452	20579
893.575	20735
893.697	20625
893.819	20811
893.941	20899
894.064	20899
894.186	20651
894.308	20606
894.43	20663
894.552	20727
894.674	20807
894.796	20564
894.918	20670
895.04	20594
895.161	20777
895.283	20674
895.405	20492
895.526	20667
895.648	20609
895.769	20617
895.891	20598
896.012	20743
896.134	20663
896.255	20815
896.376	20648
896.498	20609
896.619	20659
896.74	20682
896.861	20693
896.982	21009
897.103	21112
897.224	20948
897.345	20857
897.466	20883
897.587	20864
897.708	21195
897.828	20941
897.949	20887
898.07	20712
898.19	20743
898.311	21009
898.431	20804
898.552	20781
898.672	21009
898.792	20963
898.913	20830
899.033	20800
899.153	20670
899.273	20511
899.393	20678
899.513	20651
899.633	20743
899.753	20667
899.873	20560
899.993	20678
900.113	20549
900.232	20575
900.352	20640
900.472	20609
900.591	20442
900.711	20423
900.83	20324
900.95	20522
901.069	20446
901.189	20298
901.308	20153
901.427	19879
901.546	20050
901.665	19928
901.784	20092
901.904	19925
902.023	19784
902.141	19529
902.26	19537
902.379	19594
902.498	19491
902.617	19354
902.735	19453
902.854	19495
902.973	19377
903.091	19206
903.21	19133
903.328	19099
903.446	19000
903.565	18932
903.683	18954
903.801	18741
903.919	18962
904.038	18905
904.156	18730
904.274	18840
904.392	18722
904.51	18696
904.627	18760
904.745	18886
904.863	18821
904.981	18517
905.098	18437
905.216	18471
905.334	18429
905.451	18433
905.569	18365
905.686	18399
905.803	18418
905.921	18102
906.038	18292
906.155	18148
906.272	18224
906.389	18190
906.506	17961
906.623	17870
906.74	17908
906.857	17897
906.974	17805
907.091	17931
907.208	18117
907.324	17805
907.441	17771
907.557	17672
907.674	17691
907.79	17604
907.907	17516
908.023	17642
908.139	17760
908.256	17547
908.372	17543
908.488	17505
908.604	17429
908.72	17242
908.836	17379
908.952	17231
909.068	17387
909.184	17524
909.3	17421
909.415	17364
909.531	17345
909.647	17102
909.762	17094
909.878	17056
909.993	17067
910.108	17029
910.224	16980
910.339	16999
910.454	16904
910.57	16725
910.685	16778
910.8	17003
910.915	16961
911.03	16839
911.145	16660
911.259	16774
911.374	16523
911.489	16622
911.604	16546
911.718	16375
911.833	16363
911.947	16276
912.062	16284
912.176	16382
912.291	16443
912.405	16424
912.519	16584
912.633	16569
912.748	16531
912.862	16379
912.976	16162
913.09	16074
913.204	16116
913.318	16154
913.431	16192
913.545	16120
913.659	16352
913.772	16036
913.886	16135
914	15975
914.113	16067
914.226	16090
914.34	15998
914.453	15838
914.566	16002
914.68	15808
914.793	15774
914.906	15675
915.019	15545
915.132	15545
915.245	15603
915.358	15663
915.47	15564
915.583	15561
915.696	15671
915.809	15633
915.921	15644
916.034	15458
916.146	15492
916.259	15405
916.371	15526
916.483	15553
916.595	15481
916.708	15458
916.82	15310
916.932	15412
917.044	15370
917.156	15306
917.268	15138
917.38	15237
917.491	15226
917.603	15256
917.715	15211
917.826	15294
917.938	15157
918.049	15097
918.161	15104
918.272	15218
918.384	15268
918.495	15184
918.606	14887
918.717	14834
918.828	15032
918.939	14975
919.05	14910
919.161	14956
919.272	14701
919.383	14842
919.494	14937
919.604	15100
919.715	14876
919.826	14849
919.936	14826
920.047	14899
920.157	14895
920.267	15119
920.378	14982
920.488	14864
920.598	15081
920.708	15268
920.818	14994
920.928	15039
921.038	15279
921.148	15154
921.258	14842
921.368	14758
921.477	14632
921.587	14651
921.697	14461
921.806	14625
921.916	14446
922.025	14225
922.134	14195
922.244	14339
922.353	14305
922.462	14218
922.571	14119
922.68	13947
922.789	13902
922.898	13906
923.007	13906
923.116	13947
923.224	13868
923.333	13833
923.442	13795
923.55	13719
923.659	13723
923.767	13746
923.876	13780
923.984	13830
924.092	13628
924.201	13715
924.309	13685
924.417	13666
924.525	13510
924.633	13544
924.741	14385
924.849	13384
924.956	13384
925.064	13327
925.172	13312
925.279	13274
925.387	13209
925.494	13274
925.602	13480
925.709	13289
925.816	13244
925.924	13270
926.031	13327
926.138	13251
926.245	13270
926.352	13228
926.459	13320
926.566	13339
926.673	13160
926.779	13069
926.886	12973
926.993	12943
927.099	12871
927.206	12829
927.312	12730
927.419	12901
927.525	12840
927.631	12928
927.737	12776
927.843	12707
927.95	12642
928.056	12776
928.162	12749
928.267	12760
928.373	13194
928.479	12795
928.585	12509
928.69	12639
928.796	12654
928.901	12544
929.007	12346
929.112	12426
929.218	12544
929.323	12311
929.428	12410
929.533	12494
929.638	12315
929.743	12281
929.848	12384
929.953	12410
930.058	12232
930.163	12091
930.267	12114
930.372	12213
930.477	12003
930.581	12319
930.685	12133
930.79	11935
930.894	11961
930.998	11870
931.103	12087
931.207	11684
931.311	11623
931.415	11516
931.519	11303
931.623	11223
