Data from test_V78500241_2457.txt Node
Date: Fri Mar 25 15:58:49 CST 2022
User: usil
Spectrometer: V785-0024
Trigger mode: 0
Integration Time (sec): 4.000000E-1
Scans to average: 1
Nonlinearity correction enabled: false
Boxcar width: 0
Storing dark spectrum: false
XAxis mode: Wavelengths
Number of Pixels in Spectrum: 1024
>>>>>Begin Spectral Data<<<<<
801.071	29109
801.214	29162
801.356	28801
801.499	28752
801.641	28790
801.783	28733
801.926	28603
802.068	28721
802.211	28561
802.353	28584
802.496	28371
802.638	28500
802.78	28352
802.923	28207
803.065	28333
803.208	28360
803.35	28268
803.492	28550
803.635	28535
803.777	28550
803.919	28622
804.061	28965
804.204	28733
804.346	28706
804.488	28512
804.63	28554
804.773	28516
804.915	28736
805.057	28866
805.199	28672
805.341	28725
805.483	28793
805.626	28763
805.768	28588
805.91	28729
806.052	28774
806.194	28584
806.336	29025
806.478	28767
806.62	28717
806.762	28965
806.904	29204
807.046	29414
807.188	29375
807.33	29197
807.472	29364
807.614	29147
807.756	29197
807.898	29117
808.04	29117
808.182	29033
808.324	29098
808.465	29307
808.607	29315
808.749	29551
808.891	29520
809.033	29562
809.174	29516
809.316	29471
809.458	29581
809.6	29387
809.741	29596
809.883	29767
810.025	29771
810.166	29790
810.308	29661
810.45	29824
810.591	29600
810.733	29661
810.875	29455
811.016	29589
811.158	29482
811.299	29646
811.441	29699
811.582	29653
811.724	29615
811.865	29501
812.007	29490
812.148	29638
812.29	29436
812.431	29733
812.573	29889
812.714	29901
812.855	30034
812.997	30034
813.138	30254
813.279	30045
813.421	30007
813.562	29942
813.703	29901
813.845	29676
813.986	29528
814.127	29303
814.268	29235
814.41	29395
814.551	29231
814.692	29193
814.833	29113
814.974	29204
815.115	29284
815.256	29140
815.397	29117
815.539	29105
815.68	29124
815.821	29147
815.962	29018
816.103	29075
816.244	29041
816.385	28824
816.526	28767
816.666	28805
816.807	28675
816.948	28691
817.089	28710
817.23	28634
817.371	28451
817.512	28596
817.653	28573
817.793	28512
817.934	28592
818.075	28584
818.216	28664
818.356	28573
818.497	28401
818.638	28295
818.778	28390
818.919	28341
819.06	28455
819.2	28474
819.341	28649
819.481	28626
819.622	28778
819.762	28976
819.903	28656
820.043	28736
820.184	28687
820.324	28736
820.465	28763
820.605	28755
820.746	28717
820.886	28550
821.026	28634
821.167	28687
821.307	28748
821.447	28413
821.588	28512
821.728	28519
821.868	28249
822.008	28128
822.149	28078
822.289	28124
822.429	27854
822.569	27728
822.709	27903
822.849	27580
822.99	27595
823.13	27625
823.27	27568
823.41	27405
823.55	27348
823.69	27249
823.83	27268
823.97	27260
824.11	27218
824.25	27195
824.389	27230
824.529	27180
824.669	27241
824.809	27302
824.949	27233
825.089	27310
825.228	27317
825.368	27138
825.508	27066
825.648	27070
825.787	27112
825.927	27203
826.067	27051
826.206	27135
826.346	27047
826.485	27146
826.625	27180
826.765	27195
826.904	27096
827.044	26967
827.183	27055
827.323	26750
827.462	26944
827.601	26762
827.741	26754
827.88	26823
828.02	26727
828.159	26720
828.298	26739
828.437	26868
828.577	26929
828.716	26902
828.855	26655
828.994	26514
829.134	26625
829.273	26522
829.412	26549
829.551	26492
829.69	26526
829.829	26526
829.968	26594
830.107	26568
830.246	26522
830.385	26431
830.524	26419
830.663	26301
830.802	26309
830.941	26054
831.08	26077
831.219	26202
831.357	26119
831.496	26370
831.635	26221
831.774	26069
831.913	26115
832.051	25955
832.19	25932
832.329	25906
832.467	25700
832.606	25772
832.744	25639
832.883	25776
833.022	25700
833.16	25765
833.299	25780
833.437	25902
833.576	25864
833.714	25868
833.852	25997
833.991	25864
834.129	25894
834.267	25947
834.406	25795
834.544	25879
834.682	25784
834.821	25803
834.959	25902
835.097	25814
835.235	25883
835.373	25845
835.511	25989
835.65	25700
835.788	25696
835.926	25476
836.064	25616
836.202	25457
836.34	25495
836.478	25769
836.615	25594
836.753	25719
836.891	25594
837.029	25738
837.167	25514
837.305	25601
837.443	25578
837.58	25460
837.718	25643
837.856	25567
837.993	25495
838.131	25369
838.269	25460
838.406	25411
838.544	25228
838.681	25171
838.819	25148
838.956	24973
839.094	24973
839.231	25004
839.369	25069
839.506	25384
839.643	25266
839.781	24981
839.918	24783
840.055	25034
840.193	24981
840.33	24764
840.467	24985
840.604	24989
840.742	25057
840.879	24673
841.016	24722
841.153	24787
841.29	24989
841.427	24719
841.564	24844
841.701	24856
841.838	24749
841.975	24707
842.112	24795
842.249	24688
842.385	24555
842.522	24753
842.659	24646
842.796	24673
842.933	24570
843.069	24582
843.206	24582
843.343	24608
843.479	24570
843.616	24661
843.752	24330
843.889	24483
844.025	24448
844.162	24460
844.298	24494
844.435	24509
844.571	24361
844.708	24319
844.844	24490
844.98	24422
845.117	24460
845.253	24224
845.389	24258
845.525	24232
845.661	24174
845.798	24015
845.934	24087
846.07	24114
846.206	24140
846.342	24262
846.478	24083
846.614	23859
846.75	23760
846.886	23813
847.022	23859
847.158	23889
847.294	23882
847.429	23821
847.565	23680
847.701	24041
847.837	23585
847.972	23649
848.108	23684
848.244	23615
848.379	23573
848.515	23429
848.65	23280
848.786	23455
848.921	23467
849.057	23539
849.192	23524
849.328	23478
849.463	23387
849.598	23311
849.734	23345
849.869	23288
850.004	23143
850.14	23254
850.275	23242
850.41	23231
850.545	23075
850.68	23174
850.815	23220
850.95	23189
851.085	23326
851.22	23292
851.355	23128
851.49	23052
851.625	23235
851.76	23273
851.895	23075
852.03	23098
852.165	23204
852.299	23200
852.434	23284
852.569	23189
852.703	23181
852.838	23162
852.973	23337
853.107	23303
853.242	23113
853.376	23086
853.511	22877
853.645	22854
853.78	23064
853.914	22957
854.048	22911
854.183	22961
854.317	23098
854.451	23200
854.585	22930
854.72	22904
854.854	23140
854.988	22881
855.122	22919
855.256	22900
855.39	22987
855.524	23136
855.658	23204
855.792	22999
855.926	23029
856.06	23109
856.194	23006
856.327	22946
856.461	22927
856.595	23014
856.729	22820
856.862	23014
856.996	22999
857.13	23223
857.263	23102
857.397	23086
857.53	23003
857.664	22965
857.797	23048
857.931	23155
858.064	22923
858.197	23086
858.331	22923
858.464	22976
858.597	22831
858.731	22942
858.864	22938
858.997	22946
859.13	23006
859.263	23060
859.396	23052
859.529	22953
859.662	22934
859.795	22850
859.928	22900
860.061	23242
860.194	23159
860.327	23018
860.46	22957
860.592	23220
860.725	23113
860.858	23121
860.99	23079
861.123	22953
861.256	22896
861.388	22965
861.521	23714
861.653	22755
861.786	22698
861.918	22835
862.05	22930
862.183	22889
862.315	22797
862.447	23022
862.58	22847
862.712	22850
862.844	22675
862.976	22710
863.108	22793
863.24	22991
863.372	22618
863.504	22660
863.636	22679
863.768	22641
863.9	22759
864.032	22679
864.164	22561
864.296	22649
864.428	22717
864.559	22668
864.691	22774
864.823	22672
864.954	22710
865.086	22679
865.217	22603
865.349	22390
865.48	22596
865.612	22546
865.743	22713
865.875	22687
866.006	22337
866.137	22565
866.269	22478
866.4	22569
866.531	22447
866.662	22485
866.793	22481
866.924	22538
867.055	22550
867.186	22432
867.317	22512
867.448	22363
867.579	22493
867.71	22466
867.841	22363
867.972	22516
868.103	22485
868.233	22538
868.364	22443
868.495	22584
868.625	22698
868.756	22809
868.886	22580
869.017	22721
869.147	22816
869.278	22824
869.408	22774
869.539	22637
869.669	22786
869.799	22782
869.929	22820
870.06	22858
870.19	23010
870.32	22987
870.45	23170
870.58	23143
870.71	23128
870.84	23227
870.97	23140
871.1	23185
871.23	23330
871.36	23318
871.489	23261
871.619	23349
871.749	23429
871.879	23402
872.008	23387
872.138	23337
872.267	23322
872.397	23242
872.526	23113
872.656	23094
872.785	23147
872.915	23349
873.044	23414
873.173	23402
873.303	23406
873.432	23322
873.561	23482
873.69	23254
873.819	23296
873.948	23379
874.077	23292
874.206	23216
874.335	23368
874.464	23459
874.593	23516
874.722	23566
874.851	23486
874.979	23448
875.108	23490
875.237	23459
875.365	23410
875.494	23573
875.623	23665
875.751	23501
875.88	23493
876.008	23619
876.136	23726
876.265	23855
876.393	23973
876.521	24011
876.65	24057
876.778	24011
876.906	23889
877.034	23805
877.162	23771
877.29	23805
877.418	23942
877.546	23878
877.674	23931
877.802	23817
877.93	23824
878.058	23946
878.185	23794
878.313	23843
878.441	23748
878.568	23619
878.696	23866
878.824	23916
878.951	24053
879.079	23950
879.206	24091
879.333	23992
879.461	23878
879.588	24068
879.715	24053
879.842	24194
879.97	23893
880.097	23642
880.224	23672
880.351	23878
880.478	23619
880.605	23638
880.732	23767
880.859	23931
880.986	23691
881.112	23687
881.239	23547
881.366	23383
881.493	23372
881.619	23303
881.746	23322
881.872	23250
881.999	23181
882.125	23181
882.252	23284
882.378	23136
882.505	23387
882.631	23124
882.757	22961
882.883	22999
883.01	22934
883.136	22797
883.262	22771
883.388	22729
883.514	22965
883.64	22885
883.766	22885
883.892	22679
884.018	22607
884.143	22736
884.269	22961
884.395	22634
884.52	22599
884.646	22675
884.772	22573
884.897	22382
885.023	22584
885.148	22615
885.274	22645
885.399	22653
885.524	22554
885.65	22512
885.775	22489
885.9	22531
886.025	22565
886.15	22622
886.275	22489
886.4	22440
886.525	22447
886.65	22451
886.775	22390
886.9	22649
887.025	22752
887.149	22550
887.274	22291
887.399	22306
887.523	22428
887.648	22303
887.773	22200
887.897	22523
888.021	22382
888.146	22200
888.27	22531
888.395	22386
888.519	22295
888.643	22318
888.767	22390
888.891	22192
889.015	22063
889.139	22078
889.263	22032
889.387	22226
889.511	22348
889.635	22303
889.759	22059
889.883	21934
890.006	22067
890.13	22109
890.254	22032
890.377	21994
890.501	21827
890.624	21739
890.748	21804
890.871	21736
890.995	21614
891.118	21591
891.241	21660
891.364	21587
891.488	21751
891.611	21682
891.734	21576
891.857	21587
891.98	21587
892.103	21648
892.226	21564
892.349	21545
892.471	21416
892.594	21564
892.717	21542
892.839	21454
892.962	21534
893.085	21401
893.207	21431
893.33	21439
893.452	21447
893.575	21629
893.697	21629
893.819	21648
893.941	21789
894.064	21648
894.186	21382
894.308	21359
894.43	21622
894.552	21599
894.674	21515
894.796	21298
894.918	21542
895.04	21439
895.161	21485
895.283	21545
895.405	21477
895.526	21557
895.648	21515
895.769	21431
895.891	21625
896.012	21526
896.134	21534
896.255	21728
896.376	21534
896.498	21568
896.619	21496
896.74	21564
896.861	21545
896.982	21812
897.103	21907
897.224	21804
897.345	21690
897.466	21599
897.587	21724
897.708	21762
897.828	21717
897.949	21618
898.07	21545
898.19	21656
898.311	21816
898.431	21720
898.552	21663
898.672	21720
898.792	21660
898.913	21724
899.033	21534
899.153	21481
899.273	21264
899.393	21344
899.513	21492
899.633	21329
899.753	21401
899.873	21283
899.993	21313
900.113	21370
900.232	21408
900.352	21256
900.472	21241
900.591	21081
900.711	21093
900.83	21123
900.95	21142
901.069	21260
901.189	21055
901.308	20800
901.427	20792
901.546	20670
901.665	20682
901.784	20804
901.904	20579
902.023	20438
902.141	20328
902.26	20267
902.379	20438
902.498	20362
902.617	20096
902.735	20195
902.854	20218
902.973	20084
903.091	19845
903.21	19955
903.328	19788
903.446	19833
903.565	19685
903.683	19605
903.801	19540
903.919	19616
904.038	19483
904.156	19396
904.274	19514
904.392	19457
904.51	19388
904.627	19335
904.745	19377
904.863	19537
904.981	19164
905.098	19107
905.216	19088
905.334	19206
905.451	19080
905.569	18947
905.686	19103
905.803	19145
905.921	18833
906.038	18954
906.155	18859
906.272	18776
906.389	18776
906.506	18585
906.623	18601
906.74	18616
906.857	18513
906.974	18498
907.091	18536
907.208	18696
907.324	18665
907.441	18555
907.557	18342
907.674	18289
907.79	18235
907.907	18300
908.023	18338
908.139	18289
908.256	18205
908.372	18102
908.488	18171
908.604	18102
908.72	17973
908.836	18041
908.952	17988
909.068	18011
909.184	18095
909.3	17999
909.415	18140
909.531	17885
909.647	17611
909.762	17684
909.878	17775
909.993	17813
910.108	17661
910.224	17672
910.339	17554
910.454	17558
910.57	17509
910.685	17391
910.8	17710
910.915	17646
911.03	17471
911.145	17296
911.259	17220
911.374	17356
911.489	17079
911.604	17124
911.718	17037
911.833	16961
911.947	16911
912.062	16744
912.176	17025
912.291	17140
912.405	17147
912.519	17235
912.633	17197
912.748	17029
912.862	16961
912.976	16869
913.09	16759
913.204	16790
913.318	16839
913.431	16942
913.545	16809
913.659	16889
913.772	16797
913.886	16645
914	16611
914.113	16675
914.226	16729
914.34	16748
914.453	16443
914.566	16599
914.68	16489
914.793	16424
914.906	16246
915.019	16257
915.132	16044
915.245	16253
915.358	16310
915.47	16188
915.583	16173
915.696	16223
915.809	16348
915.921	16200
916.034	16158
916.146	16086
916.259	16044
916.371	16215
916.483	16025
916.595	15918
916.708	16105
916.82	15922
916.932	15918
917.044	15918
917.156	15941
917.268	15838
917.38	15838
917.491	15713
917.603	15812
917.715	15808
917.826	15823
917.938	15663
918.049	15618
918.161	15762
918.272	15934
918.384	15949
918.495	15622
918.606	15576
918.717	15538
918.828	15553
918.939	15603
919.05	15504
919.161	15492
919.272	15283
919.383	15420
919.494	15515
919.604	15698
919.715	15500
919.826	15420
919.936	15435
920.047	15561
920.157	15393
920.267	15584
920.378	15439
920.488	15405
920.598	15713
920.708	15679
920.818	15606
920.928	15603
921.038	15812
921.148	15728
921.258	15469
921.368	15336
921.477	15275
921.587	15131
921.697	15127
921.806	15146
921.916	14990
922.025	14967
922.134	14864
922.244	14804
922.353	14868
922.462	14773
922.571	14533
922.68	14533
922.789	14465
922.898	14347
923.007	14450
923.116	14533
923.224	14480
923.333	14408
923.442	14355
923.55	14328
923.659	14408
923.767	14370
923.876	14187
923.984	14271
924.092	14187
924.201	14206
924.309	14202
924.417	14115
924.525	14069
924.633	14103
924.741	14952
924.849	13883
924.956	14012
925.064	13841
925.172	13788
925.279	13772
925.387	13807
925.494	13864
925.602	13993
925.709	13837
925.816	13681
925.924	13753
926.031	13791
926.138	13715
926.245	13769
926.352	13636
926.459	13742
926.566	13837
926.673	13689
926.779	13552
926.886	13495
926.993	13445
927.099	13358
927.206	13384
927.312	13247
927.419	13316
927.525	13350
927.631	13354
927.737	13316
927.843	13221
927.95	13042
928.056	13194
928.162	13179
928.267	13152
928.373	13769
928.479	13175
928.585	12966
928.69	13069
928.796	13095
928.901	12970
929.007	12905
929.112	13008
929.218	12897
929.323	12962
929.428	12829
929.533	13114
929.638	12837
929.743	12791
929.848	12871
929.953	12848
930.058	12711
930.163	12483
930.267	12601
930.372	12658
930.477	12422
930.581	12692
930.685	12544
930.79	12372
930.894	12437
930.998	12376
931.103	12578
931.207	12121
931.311	12148
931.415	11999
931.519	11813
931.623	11745
