Data from test_V78500241_2258.txt Node
Date: Fri Mar 25 15:57:26 CST 2022
User: usil
Spectrometer: V785-0024
Trigger mode: 0
Integration Time (sec): 4.000000E-1
Scans to average: 1
Nonlinearity correction enabled: false
Boxcar width: 0
Storing dark spectrum: false
XAxis mode: Wavelengths
Number of Pixels in Spectrum: 1024
>>>>>Begin Spectral Data<<<<<
801.071	29075
801.214	29121
801.356	28809
801.499	28888
801.641	28725
801.783	28786
801.926	28820
802.068	28771
802.211	28748
802.353	28717
802.496	28485
802.638	28337
802.78	28485
802.923	28295
803.065	28337
803.208	28322
803.35	28519
803.492	28489
803.635	28630
803.777	28554
803.919	28713
804.061	28877
804.204	28923
804.346	28519
804.488	28656
804.63	28622
804.773	28778
804.915	28755
805.057	28862
805.199	28805
805.341	28923
805.483	28759
805.626	28881
805.768	28672
805.91	28976
806.052	28896
806.194	28725
806.336	28980
806.478	28938
806.62	28904
806.762	29090
806.904	29216
807.046	29414
807.188	29208
807.33	29296
807.472	29459
807.614	29197
807.756	29375
807.898	29200
808.04	29044
808.182	29109
808.324	29296
808.465	29254
808.607	29425
808.749	29687
808.891	29634
809.033	29901
809.174	29703
809.316	29695
809.458	29554
809.6	29402
809.741	29817
809.883	29592
810.025	29885
810.166	30068
810.308	30022
810.45	29805
810.591	29775
810.733	29638
810.875	29733
811.016	29630
811.158	29558
811.299	29707
811.441	29687
811.582	29627
811.724	29531
811.865	29478
812.007	29531
812.148	29551
812.29	29646
812.431	29840
812.573	30003
812.714	29999
812.855	30171
812.997	30201
813.138	30407
813.279	30247
813.421	30106
813.562	30015
813.703	30057
813.845	29824
813.986	29573
814.127	29539
814.268	29239
814.41	29280
814.551	29235
814.692	29303
814.833	29216
814.974	29345
815.115	29360
815.256	29258
815.397	29250
815.539	29178
815.68	29273
815.821	29071
815.962	29185
816.103	29151
816.244	29079
816.385	28908
816.526	28923
816.666	28866
816.807	28607
816.948	28645
817.089	28683
817.23	28729
817.371	28782
817.512	28702
817.653	28584
817.793	28645
817.934	28668
818.075	28618
818.216	28805
818.356	28641
818.497	28687
818.638	28459
818.778	28508
818.919	28466
819.06	28538
819.2	28405
819.341	28603
819.481	28596
819.622	28942
819.762	28984
819.903	28957
820.043	28965
820.184	28725
820.324	28778
820.465	28869
820.605	28854
820.746	28828
820.886	28599
821.026	28866
821.167	28573
821.307	28888
821.447	28645
821.588	28710
821.728	28459
821.868	28257
822.008	28188
822.149	28150
822.289	28048
822.429	27937
822.569	27778
822.709	27846
822.849	27625
822.99	27724
823.13	27671
823.27	27572
823.41	27534
823.55	27367
823.69	27370
823.83	27492
823.97	27443
824.11	27275
824.25	27374
824.389	27408
824.529	27374
824.669	27363
824.809	27485
824.949	27420
825.089	27374
825.228	27386
825.368	27230
825.508	27169
825.648	27275
825.787	27321
825.927	27100
826.067	27066
826.206	27161
826.346	27325
826.485	27287
826.625	27275
826.765	27351
826.904	27340
827.044	27020
827.183	26948
827.323	26830
827.462	27001
827.601	26929
827.741	26937
827.88	26990
828.02	26823
828.159	27089
828.298	26868
828.437	26975
828.577	26925
828.716	26960
828.855	26823
828.994	26526
829.134	26682
829.273	26701
829.412	26625
829.551	26602
829.69	26640
829.829	26655
829.968	26636
830.107	26716
830.246	26686
830.385	26594
830.524	26488
830.663	26434
830.802	26480
830.941	26176
831.08	26180
831.219	26393
831.357	26336
831.496	26370
831.635	26210
831.774	26149
831.913	26248
832.051	26088
832.19	26012
832.329	26077
832.467	25868
832.606	25894
832.744	25947
832.883	26088
833.022	25955
833.16	25978
833.299	26062
833.437	25906
833.576	25993
833.714	26024
833.852	25966
833.991	25932
834.129	26035
834.267	26050
834.406	25902
834.544	26138
834.682	25936
834.821	25913
834.959	26008
835.097	25993
835.235	25955
835.373	25902
835.511	25978
835.65	25909
835.788	25799
835.926	25647
836.064	25727
836.202	25769
836.34	25795
836.478	25944
836.615	25769
836.753	25822
836.891	25772
837.029	25864
837.167	25700
837.305	25769
837.443	25605
837.58	25620
837.718	25605
837.856	25670
837.993	25518
838.131	25571
838.269	25506
838.406	25502
838.544	25506
838.681	25270
838.819	25251
838.956	24981
839.094	24951
839.231	25179
839.369	25217
839.506	25438
839.643	25312
839.781	24897
839.918	25008
840.055	25061
840.193	24996
840.33	25023
840.467	25084
840.604	25008
840.742	25084
840.879	24882
841.016	24859
841.153	24814
841.29	24943
841.427	25038
841.564	25084
841.701	24913
841.838	24867
841.975	24943
842.112	24890
842.249	24817
842.385	24700
842.522	24924
842.659	24753
842.796	24734
842.933	24601
843.069	24639
843.206	24661
843.343	24658
843.479	24654
843.616	24738
843.752	24578
843.889	24532
844.025	24589
844.162	24502
844.298	24570
844.435	24467
844.571	24582
844.708	24486
844.844	24646
844.98	24658
845.117	24627
845.253	24410
845.389	24376
845.525	24441
845.661	24372
845.798	24258
845.934	24308
846.07	24182
846.206	24110
846.342	24441
846.478	24114
846.614	24041
846.75	23859
846.886	23992
847.022	23977
847.158	24022
847.294	24026
847.429	24034
847.565	23977
847.701	24098
847.837	23581
847.972	23691
848.108	23798
848.244	23828
848.379	23661
848.515	23581
848.65	23585
848.786	23535
848.921	23554
849.057	23623
849.192	23596
849.328	23729
849.463	23478
849.598	23520
849.734	23345
849.869	23311
850.004	23269
850.14	23345
850.275	23223
850.41	23151
850.545	23121
850.68	23185
850.815	23212
850.95	23265
851.085	23490
851.22	23242
851.355	23288
851.49	23277
851.625	23239
851.76	23231
851.895	23189
852.03	23250
852.165	23360
852.299	23387
852.434	23284
852.569	23299
852.703	23326
852.838	23261
852.973	23356
853.107	23471
853.242	23208
853.376	23159
853.511	22991
853.645	23079
853.78	23303
853.914	23246
854.048	23155
854.183	23098
854.317	23037
854.451	23322
854.585	23075
854.72	23083
854.854	23239
854.988	23048
855.122	23265
855.256	22995
855.39	23033
855.524	23212
855.658	23132
855.792	23090
855.926	23113
856.06	23044
856.194	23162
856.327	23113
856.461	23079
856.595	23029
856.729	23098
856.862	23200
856.996	23117
857.13	23318
857.263	23292
857.397	23166
857.53	23132
857.664	23231
857.797	23128
857.931	23280
858.064	23162
858.197	23242
858.331	23006
858.464	22987
858.597	22953
858.731	23022
858.864	23052
858.997	23018
859.13	23041
859.263	23018
859.396	23189
859.529	22972
859.662	22965
859.795	23075
859.928	23155
860.061	23288
860.194	23223
860.327	23124
860.46	23193
860.592	23273
860.725	23296
860.858	23341
860.99	23113
861.123	23086
861.256	22976
861.388	23067
861.521	23764
861.653	23105
861.786	22915
861.918	22934
862.05	23025
862.183	22919
862.315	23018
862.447	23090
862.58	22995
862.712	22782
862.844	22725
862.976	22862
863.108	22915
863.24	23299
863.372	22778
863.504	22717
863.636	22748
863.768	22820
863.9	22740
864.032	22763
864.164	22831
864.296	22892
864.428	22930
864.559	22930
864.691	22881
864.823	22748
864.954	22801
865.086	22675
865.217	22694
865.349	22630
865.48	22611
865.612	22634
865.743	22656
865.875	22778
866.006	22611
866.137	22599
866.269	22835
866.4	22573
866.531	22596
866.662	22618
866.793	22557
866.924	22504
867.055	22519
867.186	22512
867.317	22519
867.448	22725
867.579	22565
867.71	22592
867.841	22424
867.972	22561
868.103	22542
868.233	22531
868.364	22626
868.495	22778
868.625	22702
868.756	22854
868.886	22733
869.017	22736
869.147	22919
869.278	22915
869.408	22934
869.539	22801
869.669	22991
869.799	22850
869.929	22930
870.06	22927
870.19	23094
870.32	23151
870.45	23235
870.58	23098
870.71	23273
870.84	23360
870.97	23242
871.1	23193
871.23	23398
871.36	23341
871.489	23379
871.619	23349
871.749	23284
871.879	23364
872.008	23531
872.138	23467
872.267	23398
872.397	23330
872.526	23261
872.656	23216
872.785	23261
872.915	23353
873.044	23512
873.173	23554
873.303	23547
873.432	23440
873.561	23646
873.69	23421
873.819	23433
873.948	23478
874.077	23554
874.206	23372
874.335	23433
874.464	23577
874.593	23516
874.722	23528
874.851	23653
874.979	23623
875.108	23779
875.237	23665
875.365	23505
875.494	23547
875.623	23771
875.751	23558
875.88	23672
876.008	23726
876.136	23882
876.265	24045
876.393	24159
876.521	24083
876.65	24011
876.778	23977
876.906	23996
877.034	23984
877.162	23965
877.29	23916
877.418	23958
877.546	24003
877.674	23893
877.802	24121
877.93	24045
878.058	23931
878.185	23783
878.313	24026
878.441	23836
878.568	23707
878.696	23908
878.824	23958
878.951	24102
879.079	24136
879.206	24068
879.333	24136
879.461	23973
879.588	24117
879.715	24087
879.842	24159
879.97	23908
880.097	23866
880.224	23843
880.351	23805
880.478	23783
880.605	23786
880.732	23756
880.859	24057
880.986	23790
881.112	23745
881.239	23657
881.366	23573
881.493	23360
881.619	23474
881.746	23493
881.872	23364
881.999	23311
882.125	23303
882.252	23512
882.378	23303
882.505	23455
882.631	23132
882.757	23098
882.883	23121
883.01	23143
883.136	23010
883.262	22896
883.388	22835
883.514	22946
883.64	23189
883.766	22900
883.892	22892
884.018	22748
884.143	22911
884.269	23014
884.395	22736
884.52	22675
884.646	22611
884.772	22653
884.897	22626
885.023	22809
885.148	22698
885.274	22774
885.399	22778
885.524	22634
885.65	22641
885.775	22584
885.9	22615
886.025	22698
886.15	22698
886.275	22538
886.4	22489
886.525	22569
886.65	22580
886.775	22504
886.9	22687
887.025	22991
887.149	22577
887.274	22428
887.399	22382
887.523	22352
887.648	22352
887.773	22219
887.897	22493
888.021	22390
888.146	22291
888.27	22447
888.395	22428
888.519	22386
888.643	22325
888.767	22432
888.891	22337
889.015	22192
889.139	22234
889.263	22188
889.387	22131
889.511	22352
889.635	22390
889.759	22131
889.883	22143
890.006	22226
890.13	22230
890.254	22078
890.377	22147
890.501	22048
890.624	21857
890.748	21975
890.871	21778
890.995	21785
891.118	21663
891.241	21861
891.364	21808
891.488	21835
891.611	21778
891.734	21720
891.857	21682
891.98	21876
892.103	21633
892.226	21808
892.349	21679
892.471	21572
892.594	21667
892.717	21614
892.839	21553
892.962	21618
893.085	21660
893.207	21549
893.33	21473
893.452	21450
893.575	21709
893.697	21568
893.819	21694
893.941	21739
894.064	21625
894.186	21530
894.308	21614
894.43	21641
894.552	21667
894.674	21644
894.796	21496
894.918	21595
895.04	21545
895.161	21656
895.283	21591
895.405	21564
895.526	21561
895.648	21507
895.769	21629
895.891	21637
896.012	21595
896.134	21500
896.255	21660
896.376	21477
896.498	21469
896.619	21603
896.74	21511
896.861	21675
896.982	21899
897.103	22109
897.224	21736
897.345	21812
897.466	21724
897.587	21728
897.708	21831
897.828	21778
897.949	21755
898.07	21637
898.19	21736
898.311	21831
898.431	21701
898.552	21736
898.672	21781
898.792	21739
898.913	21774
899.033	21679
899.153	21583
899.273	21431
899.393	21618
899.513	21511
899.633	21405
899.753	21511
899.873	21492
899.993	21408
900.113	21310
900.232	21382
900.352	21386
900.472	21325
900.591	21203
900.711	21237
900.83	21230
900.95	21245
901.069	21382
901.189	21085
901.308	20941
901.427	20762
901.546	20838
901.665	20773
901.784	20861
901.904	20663
902.023	20499
902.141	20400
902.26	20404
902.379	20396
902.498	20301
902.617	20263
902.735	20244
902.854	20259
902.973	20164
903.091	20024
903.21	19951
903.328	19932
903.446	19791
903.565	19731
903.683	19662
903.801	19708
903.919	19750
904.038	19723
904.156	19487
904.274	19487
904.392	19472
904.51	19369
904.627	19597
904.745	19495
904.863	19533
904.981	19278
905.098	19209
905.216	19148
905.334	19240
905.451	19160
905.569	19141
905.686	19168
905.803	19179
905.921	18848
906.038	19065
906.155	19061
906.272	18810
906.389	18852
906.506	18635
906.623	18726
906.74	18719
906.857	18441
906.974	18631
907.091	18764
907.208	18837
907.324	18753
907.441	18483
907.557	18490
907.674	18410
907.79	18342
907.907	18315
908.023	18433
908.139	18399
908.256	18357
908.372	18254
908.488	18292
908.604	18098
908.72	18076
908.836	18133
908.952	18026
909.068	18148
909.184	18171
909.3	18155
909.415	18106
909.531	18060
909.647	17863
909.762	17836
909.878	17760
909.993	17752
910.108	17813
910.224	17668
910.339	17695
910.454	17680
910.57	17577
910.685	17520
910.8	17748
910.915	17760
911.03	17539
911.145	17459
911.259	17330
911.374	17410
911.489	17299
911.604	17261
911.718	17060
911.833	16987
911.947	17064
912.062	16991
912.176	17086
912.291	17174
912.405	17064
912.519	17349
912.633	17296
912.748	17159
912.862	17105
912.976	16968
913.09	16828
913.204	16774
913.318	17003
913.431	16953
913.545	16927
913.659	16930
913.772	16854
913.886	16748
914	16771
914.113	16793
914.226	16790
914.34	16759
914.453	16523
914.566	16733
914.68	16592
914.793	16485
914.906	16417
915.019	16356
915.132	16257
915.245	16276
915.358	16276
915.47	16249
915.583	16238
915.696	16242
915.809	16310
915.921	16299
916.034	16188
916.146	16177
916.259	16173
916.371	16188
916.483	16173
916.595	16040
916.708	16120
916.82	16010
916.932	16032
917.044	15918
917.156	15911
917.268	15781
917.38	15899
917.491	15827
917.603	15865
917.715	15983
917.826	15945
917.938	15800
918.049	15622
918.161	15766
918.272	15846
918.384	15918
918.495	15850
918.606	15667
918.717	15553
918.828	15652
918.939	15694
919.05	15507
919.161	15492
919.272	15321
919.383	15496
919.494	15538
919.604	15789
919.715	15572
919.826	15477
919.936	15443
920.047	15553
920.157	15587
920.267	15667
920.378	15511
920.488	15511
920.598	15713
920.708	15869
920.818	15625
920.928	15698
921.038	15823
921.148	15667
921.258	15466
921.368	15462
921.477	15176
921.587	15302
921.697	15100
921.806	15310
921.916	15047
922.025	15032
922.134	14914
922.244	14811
922.353	14902
922.462	14731
922.571	14640
922.68	14545
922.789	14621
922.898	14549
923.007	14434
923.116	14545
923.224	14568
923.333	14503
923.442	14400
923.55	14324
923.659	14400
923.767	14404
923.876	14244
923.984	14290
924.092	14298
924.201	14218
924.309	14267
924.417	14275
924.525	14172
924.633	14111
924.741	14952
924.849	13993
924.956	14084
925.064	13906
925.172	13871
925.279	13845
925.387	13845
925.494	13868
925.602	13955
925.709	13879
925.816	13765
925.924	13765
926.031	13921
926.138	13814
926.245	13750
926.352	13742
926.459	13757
926.566	13837
926.673	13746
926.779	13613
926.886	13594
926.993	13426
927.099	13388
927.206	13324
927.312	13354
927.419	13487
927.525	13411
927.631	13339
927.737	13301
927.843	13179
927.95	13061
928.056	13217
928.162	13213
928.267	13232
928.373	13841
928.479	13278
928.585	13152
928.69	13137
928.796	13236
928.901	13034
929.007	12996
929.112	13053
929.218	12958
929.323	12962
929.428	12943
929.533	13046
929.638	12829
929.743	12848
929.848	12935
929.953	12753
930.058	12806
930.163	12486
930.267	12582
930.372	12719
930.477	12502
930.581	12715
930.685	12616
930.79	12456
930.894	12513
930.998	12384
931.103	12623
931.207	12167
931.311	12079
931.415	12038
931.519	11729
931.623	11843
