Data from test_V78500241_28.txt Node
Date: Fri Mar 25 15:41:59 CST 2022
User: usil
Spectrometer: V785-0024
Trigger mode: 0
Integration Time (sec): 4.000000E-1
Scans to average: 1
Nonlinearity correction enabled: false
Boxcar width: 0
Storing dark spectrum: false
XAxis mode: Wavelengths
Number of Pixels in Spectrum: 1024
>>>>>Begin Spectral Data<<<<<
801.071	27466
801.214	27272
801.356	27062
801.499	27036
801.641	26826
801.783	26788
801.926	26963
802.068	26792
802.211	26815
802.353	26629
802.496	26537
802.638	26476
802.78	26400
802.923	26282
803.065	26233
803.208	26324
803.35	26374
803.492	26362
803.635	26434
803.777	26240
803.919	26400
804.061	26644
804.204	26393
804.346	26271
804.488	26237
804.63	26187
804.773	26244
804.915	26320
805.057	26511
805.199	26301
805.341	26366
805.483	26476
805.626	26328
805.768	26313
805.91	26366
806.052	26495
806.194	26317
806.336	26648
806.478	26469
806.62	26415
806.762	26564
806.904	26492
807.046	26857
807.188	26697
807.33	26781
807.472	26796
807.614	26594
807.756	26689
807.898	26507
808.04	26412
808.182	26461
808.324	26450
808.465	26374
808.607	26765
808.749	26811
808.891	26853
809.033	26986
809.174	26899
809.316	26754
809.458	26807
809.6	26800
809.741	26956
809.883	26849
810.025	27119
810.166	26979
810.308	27203
810.45	26921
810.591	26998
810.733	26773
810.875	26609
811.016	26640
811.158	26446
811.299	26815
811.441	26746
811.582	26826
811.724	26754
811.865	26617
812.007	26682
812.148	26716
812.29	26727
812.431	26815
812.573	26975
812.714	27222
812.855	27260
812.997	27249
813.138	27450
813.279	27302
813.421	27218
813.562	27051
813.703	26899
813.845	26758
813.986	26587
814.127	26374
814.268	26214
814.41	26138
814.551	26248
814.692	26377
814.833	26084
814.974	26050
815.115	26088
815.256	25986
815.397	25966
815.539	26077
815.68	25849
815.821	25852
815.962	25925
816.103	25875
816.244	25700
816.385	25674
816.526	25632
816.666	25396
816.807	25339
816.948	25285
817.089	25289
817.23	25255
817.371	25259
817.512	25221
817.653	25202
817.793	25061
817.934	25228
818.075	25217
818.216	25206
818.356	25129
818.497	25164
818.638	24863
818.778	24909
818.919	24817
819.06	24909
819.2	25046
819.341	25034
819.481	25053
819.622	25225
819.762	25354
819.903	25373
820.043	25270
820.184	25263
820.324	25202
820.465	25179
820.605	25198
820.746	25213
820.886	24916
821.026	25240
821.167	25095
821.307	25095
821.447	25061
821.588	24890
821.728	24760
821.868	24760
822.008	24585
822.149	24547
822.289	24426
822.429	24254
822.569	24194
822.709	24083
822.849	23885
822.99	24060
823.13	23946
823.27	23885
823.41	23714
823.55	23680
823.69	23840
823.83	23805
823.97	23771
824.11	23463
824.25	23455
824.389	23505
824.529	23642
824.669	23516
824.809	23570
824.949	23566
825.089	23627
825.228	23516
825.368	23406
825.508	23277
825.648	23307
825.787	23326
825.927	23425
826.067	23353
826.206	23239
826.346	23410
826.485	23337
826.625	23311
826.765	23360
826.904	23383
827.044	23071
827.183	23060
827.323	22919
827.462	23140
827.601	23041
827.741	22904
827.88	22919
828.02	22755
828.159	22839
828.298	23006
828.437	22915
828.577	22873
828.716	23018
828.855	22809
828.994	22683
829.134	22752
829.273	22603
829.412	22561
829.551	22470
829.69	22691
829.829	22706
829.968	22828
830.107	22577
830.246	22771
830.385	22618
830.524	22523
830.663	22299
830.802	22246
830.941	22063
831.08	22265
831.219	22128
831.357	22150
831.496	22379
831.635	22181
831.774	22055
831.913	21964
832.051	21994
832.19	21991
832.329	21918
832.467	21934
832.606	21610
832.744	21800
832.883	21838
833.022	21785
833.16	21838
833.299	21838
833.437	21766
833.576	21930
833.714	21720
833.852	21876
833.991	21888
834.129	21911
834.267	21838
834.406	21865
834.544	21846
834.682	21793
834.821	21622
834.959	22021
835.097	21561
835.235	21861
835.373	21797
835.511	21850
835.65	21679
835.788	21564
835.926	21587
836.064	21355
836.202	21382
836.34	21580
836.478	21686
836.615	21618
836.753	21603
836.891	21701
837.029	21660
837.167	21606
837.305	21488
837.443	21481
837.58	21454
837.718	21496
837.856	21458
837.993	21458
838.131	21576
838.269	21260
838.406	21329
838.544	21203
838.681	21169
838.819	21116
838.956	20986
839.094	20963
839.231	20902
839.369	20952
839.506	21298
839.643	21142
839.781	20918
839.918	20819
840.055	20819
840.193	20895
840.33	20876
840.467	20834
840.604	20975
840.742	21005
840.879	20720
841.016	20735
841.153	20575
841.29	20910
841.427	20876
841.564	20834
841.701	20788
841.838	20754
841.975	20625
842.112	20640
842.249	20606
842.385	20499
842.522	20686
842.659	20648
842.796	20484
842.933	20461
843.069	20469
843.206	20454
843.343	20454
843.479	20533
843.616	20632
843.752	20256
843.889	20328
844.025	20248
844.162	20115
844.298	20339
844.435	20229
844.571	20214
844.708	20199
844.844	20317
844.98	20438
845.117	20271
845.253	20122
845.389	20050
845.525	20043
845.661	19997
845.798	19860
845.934	20005
846.07	19875
846.206	19936
846.342	20031
846.478	19944
846.614	19712
846.75	19628
846.886	19689
847.022	19765
847.158	19662
847.294	19662
847.429	19731
847.565	19677
847.701	19826
847.837	19476
847.972	19335
848.108	19373
848.244	19590
848.379	19327
848.515	19148
848.65	19247
848.786	19282
848.921	19152
849.057	19339
849.192	19293
849.328	19282
849.463	19129
849.598	19228
849.734	19122
849.869	19099
850.004	19080
850.14	19023
850.275	18973
850.41	18890
850.545	18977
850.68	18966
850.815	18966
850.95	18962
851.085	19206
851.22	19012
851.355	18962
851.49	18920
851.625	18837
851.76	18901
851.895	18848
852.03	18939
852.165	18954
852.299	18985
852.434	18928
852.569	18882
852.703	18981
852.838	19019
852.973	19038
853.107	19042
853.242	18920
853.376	18654
853.511	18631
853.645	18806
853.78	18833
853.914	18696
854.048	18776
854.183	18726
854.317	18806
854.451	19061
854.585	18795
854.72	18639
854.854	18878
854.988	18719
855.122	18757
855.256	18525
855.39	18703
855.524	18757
855.658	18719
855.792	18749
855.926	18703
856.06	18840
856.194	18837
856.327	18760
856.461	18711
856.595	18772
856.729	18654
856.862	18875
856.996	18745
857.13	18802
857.263	18871
857.397	18772
857.53	18741
857.664	18810
857.797	18772
857.931	18882
858.064	18745
858.197	18916
858.331	18620
858.464	18692
858.597	18608
858.731	18597
858.864	18703
858.997	18601
859.13	18692
859.263	18658
859.396	18677
859.529	18692
859.662	18642
859.795	18559
859.928	18707
860.061	18772
860.194	18791
860.327	18806
860.46	18738
860.592	18741
860.725	18749
860.858	18719
860.99	18551
861.123	18555
861.256	18593
861.388	18654
861.521	19187
861.653	18528
861.786	18517
861.918	18566
862.05	18631
862.183	18734
862.315	18738
862.447	18715
862.58	18604
862.712	18517
862.844	18304
862.976	18429
863.108	18467
863.24	18745
863.372	18330
863.504	18292
863.636	18437
863.768	18467
863.9	18365
864.032	18289
864.164	18292
864.296	18353
864.428	18456
864.559	18357
864.691	18410
864.823	18372
864.954	18376
865.086	18304
865.217	18334
865.349	18224
865.48	18346
865.612	18300
865.743	18456
865.875	18235
866.006	18262
866.137	18273
866.269	18426
866.4	18334
866.531	18262
866.662	18308
866.793	18270
866.924	18311
867.055	18201
867.186	18334
867.317	18190
867.448	18121
867.579	18262
867.71	18057
867.841	18167
867.972	18205
868.103	18258
868.233	18304
868.364	18171
868.495	18327
868.625	18361
868.756	18471
868.886	18426
869.017	18452
869.147	18566
869.278	18490
869.408	18456
869.539	18452
869.669	18563
869.799	18467
869.929	18517
870.06	18551
870.19	18848
870.32	18726
870.45	18760
870.58	18783
870.71	18985
870.84	18966
870.97	18829
871.1	18871
871.23	19008
871.36	18996
871.489	18958
871.619	18958
871.749	19042
871.879	19118
872.008	19236
872.138	18970
872.267	19152
872.397	19008
872.526	18943
872.656	18878
872.785	19000
872.915	19091
873.044	19072
873.173	19042
873.303	19194
873.432	19152
873.561	19183
873.69	19080
873.819	19099
873.948	19156
874.077	19110
874.206	19129
874.335	19042
874.464	19293
874.593	19369
874.722	19270
874.851	19537
874.979	19373
875.108	19540
875.237	19289
875.365	19377
875.494	19476
875.623	19445
875.751	19236
875.88	19506
876.008	19460
876.136	19666
876.265	19788
876.393	19887
876.521	19833
876.65	19894
876.778	19833
876.906	19693
877.034	19700
877.162	19655
877.29	19647
877.418	19742
877.546	19738
877.674	19689
877.802	19708
877.93	19795
878.058	19757
878.185	19677
878.313	19757
878.441	19765
878.568	19597
878.696	19734
878.824	19700
878.951	19807
879.079	19936
879.206	20103
879.333	19913
879.461	19890
879.588	19887
879.715	19921
879.842	20077
879.97	19845
880.097	19605
880.224	19464
880.351	19731
880.478	19567
880.605	19480
880.732	19575
880.859	19788
880.986	19670
881.112	19651
881.239	19525
881.366	19419
881.493	19327
881.619	19103
881.746	19183
881.872	19339
881.999	19301
882.125	19225
882.252	19282
882.378	19118
882.505	19377
882.631	19156
882.757	19091
882.883	19103
883.01	19114
883.136	18905
883.262	18852
883.388	18802
883.514	18993
883.64	19053
883.766	18985
883.892	18821
884.018	18863
884.143	18901
884.269	19038
884.395	18692
884.52	18623
884.646	18601
884.772	18597
884.897	18513
885.023	18635
885.148	18810
885.274	18783
885.399	18753
885.524	18639
885.65	18741
885.775	18661
885.9	18741
886.025	18719
886.15	18661
886.275	18532
886.4	18509
886.525	18486
886.65	18551
886.775	18544
886.9	18806
887.025	18814
887.149	18646
887.274	18369
887.399	18353
887.523	18388
887.648	18399
887.773	18330
887.897	18490
888.021	18395
888.146	18338
888.27	18532
888.395	18525
888.519	18479
888.643	18467
888.767	18490
888.891	18247
889.015	18213
889.139	18216
889.263	18300
889.387	18308
889.511	18369
889.635	18391
889.759	18243
889.883	18182
890.006	18159
890.13	18205
890.254	18144
890.377	18110
890.501	17988
890.624	17897
890.748	18060
890.871	17980
890.995	17790
891.118	17707
891.241	17851
891.364	17863
891.488	17821
891.611	17901
891.734	17843
891.857	17885
891.98	17802
892.103	17851
892.226	17893
892.349	17805
892.471	17695
892.594	17809
892.717	17726
892.839	17726
892.962	17836
893.085	17859
893.207	17786
893.33	17714
893.452	17710
893.575	17771
893.697	17729
893.819	17950
893.941	18072
894.064	17821
894.186	17767
894.308	17695
894.43	17863
894.552	17889
894.674	17923
894.796	17687
894.918	17802
895.04	17843
895.161	17771
895.283	17794
895.405	17840
895.526	17779
895.648	17798
895.769	17863
895.891	17866
896.012	17927
896.134	17958
896.255	17840
896.376	17832
896.498	17908
896.619	17752
896.74	17870
896.861	17999
896.982	18163
897.103	18391
897.224	18213
897.345	18110
897.466	18098
897.587	18125
897.708	18228
897.828	18144
897.949	18102
898.07	17935
898.19	17980
898.311	18209
898.431	18110
898.552	18076
898.672	18224
898.792	18197
898.913	18136
899.033	17973
899.153	17817
899.273	17889
899.393	17809
899.513	17870
899.633	17748
899.753	17847
899.873	17771
899.993	17878
900.113	17722
900.232	17908
900.352	17760
900.472	17703
900.591	17638
900.711	17729
900.83	17642
900.95	17771
901.069	17680
901.189	17665
901.308	17433
901.427	17292
901.546	17322
901.665	17334
901.784	17307
901.904	17124
902.023	17071
902.141	17022
902.26	16885
902.379	16923
902.498	16816
902.617	16809
902.735	16908
902.854	16805
902.973	16782
903.091	16531
903.21	16481
903.328	16394
903.446	16337
903.565	16428
903.683	16303
903.801	16287
903.919	16371
904.038	16284
904.156	16150
904.274	16169
904.392	16082
904.51	16169
904.627	16074
904.745	16204
904.863	16135
904.981	15865
905.098	15739
905.216	15739
905.334	15827
905.451	15770
905.569	15720
905.686	15850
905.803	15797
905.921	15625
906.038	15648
906.155	15679
906.272	15458
906.389	15393
906.506	15443
906.623	15321
906.74	15306
906.857	15230
906.974	15169
907.091	15317
907.208	15492
907.324	15298
907.441	15268
907.557	15131
907.674	15055
907.79	15024
907.907	14963
908.023	15077
908.139	15039
908.256	15043
908.372	14994
908.488	14883
908.604	14769
908.72	14754
908.836	14762
908.952	14743
909.068	14743
909.184	14826
909.3	14720
909.415	14724
909.531	14792
909.647	14522
909.762	14438
909.878	14355
909.993	14480
910.108	14457
910.224	14412
910.339	14442
910.454	14366
910.57	14183
910.685	14244
910.8	14552
910.915	14473
911.03	14282
911.145	14214
911.259	14043
911.374	14001
911.489	14039
911.604	14088
911.718	13837
911.833	13951
911.947	13807
912.062	13734
912.176	13909
912.291	13902
912.405	13849
912.519	14084
912.633	14012
912.748	13837
912.862	13841
912.976	13597
913.09	13514
913.204	13575
913.318	13655
913.431	13727
913.545	13746
913.659	13700
913.772	13586
913.886	13540
914	13407
914.113	13567
914.226	13662
914.34	13655
914.453	13400
914.566	13578
914.68	13396
914.793	13449
914.906	13225
915.019	13156
915.132	13141
915.245	13099
915.358	13202
915.47	13202
915.583	13179
915.696	13274
915.809	13247
915.921	13327
916.034	13137
916.146	13072
916.259	13091
916.371	13152
916.483	13122
916.595	13038
916.708	13057
916.82	13015
916.932	13034
917.044	13061
917.156	12951
917.268	12867
917.38	12996
917.491	12852
917.603	12878
917.715	12970
917.826	12989
917.938	12878
918.049	12848
918.161	12875
918.272	12913
918.384	13023
918.495	12913
918.606	12753
918.717	12646
918.828	12696
918.939	12722
919.05	12623
919.161	12658
919.272	12452
919.383	12467
919.494	12711
919.604	12856
919.715	12658
919.826	12506
919.936	12525
920.047	12646
920.157	12707
920.267	12875
920.378	12677
920.488	12563
920.598	12810
920.708	12939
920.818	12829
920.928	12863
921.038	13046
921.148	12867
921.258	12570
921.368	12574
921.477	12441
921.587	12327
921.697	12262
921.806	12372
921.916	12254
922.025	12152
922.134	12079
922.244	12060
922.353	12129
922.462	11973
922.571	11851
922.68	11752
922.789	11699
922.898	11783
923.007	11634
923.116	11745
923.224	11790
923.333	11676
923.442	11638
923.55	11604
923.659	11600
923.767	11600
923.876	11554
923.984	11551
924.092	11474
924.201	11608
924.309	11463
924.417	11467
924.525	11448
924.633	11528
924.741	12445
924.849	11220
924.956	11444
925.064	11318
925.172	11189
925.279	11166
925.387	11261
925.494	11227
925.602	11391
925.709	11372
925.816	11136
925.924	11174
926.031	11273
926.138	11212
926.245	11231
926.352	11140
926.459	11292
926.566	11330
926.673	11197
926.779	11086
926.886	11083
926.993	10911
927.099	10809
927.206	10858
927.312	10767
927.419	10942
927.525	10889
927.631	10976
927.737	10736
927.843	10862
927.95	10653
928.056	10721
928.162	10782
928.267	10702
928.373	11387
928.479	10778
928.585	10592
928.69	10691
928.796	10801
928.901	10611
929.007	10538
929.112	10607
929.218	10592
929.323	10440
929.428	10500
929.533	10599
929.638	10443
929.743	10462
929.848	10409
929.953	10474
930.058	10337
930.163	10219
930.267	10227
930.372	10363
930.477	10207
930.581	10295
930.685	10207
930.79	10006
930.894	10086
930.998	10067
931.103	10192
931.207	9835
931.311	9819
931.415	9736
931.519	9496
931.623	9488
