Data from test_V78500241_873.txt Node
Date: Fri Mar 25 15:47:50 CST 2022
User: usil
Spectrometer: V785-0024
Trigger mode: 0
Integration Time (sec): 4.000000E-1
Scans to average: 1
Nonlinearity correction enabled: false
Boxcar width: 0
Storing dark spectrum: false
XAxis mode: Wavelengths
Number of Pixels in Spectrum: 1024
>>>>>Begin Spectral Data<<<<<
801.071	27865
801.214	27778
801.356	27545
801.499	27439
801.641	27469
801.783	27389
801.926	27473
802.068	27374
802.211	27272
802.353	27184
802.496	26994
802.638	27017
802.78	27081
802.923	27043
803.065	26842
803.208	26876
803.35	27001
803.492	27135
803.635	27302
803.777	26933
803.919	27203
804.061	27397
804.204	27275
804.346	27173
804.488	27013
804.63	27093
804.773	26971
804.915	27245
805.057	27355
805.199	27188
805.341	27169
805.483	27389
805.626	27283
805.768	27184
805.91	27302
806.052	27226
806.194	27294
806.336	27561
806.478	27313
806.62	27370
806.762	27424
806.904	27485
807.046	27846
807.188	27793
807.33	27713
807.472	27808
807.614	27682
807.756	27789
807.898	27500
808.04	27549
808.182	27507
808.324	27705
808.465	27595
808.607	27945
808.749	27804
808.891	28070
809.033	28223
809.174	28070
809.316	27960
809.458	27880
809.6	27945
809.741	28207
809.883	28143
810.025	28424
810.166	28325
810.308	28306
810.45	28257
810.591	28181
810.733	28002
810.875	27987
811.016	27899
811.158	27907
811.299	28158
811.441	28154
811.582	28154
811.724	28059
811.865	27922
812.007	27953
812.148	27899
812.29	28086
812.431	28177
812.573	28386
812.714	28253
812.855	28603
812.997	28656
813.138	28675
813.279	28797
813.421	28645
813.562	28561
813.703	28299
813.845	28215
813.986	28036
814.127	27789
814.268	27652
814.41	27648
814.551	27656
814.692	27720
814.833	27618
814.974	27671
815.115	27622
815.256	27389
815.397	27492
815.539	27496
815.68	27477
815.821	27485
815.962	27454
816.103	27526
816.244	27344
816.385	27363
816.526	27207
816.666	27108
816.807	26990
816.948	27047
817.089	27165
817.23	27150
817.371	26918
817.512	26979
817.653	26979
817.793	26940
817.934	26933
818.075	26887
818.216	26910
818.356	26861
818.497	26807
818.638	26617
818.778	26735
818.919	26678
819.06	26750
819.2	26769
819.341	26849
819.481	26849
819.622	27005
819.762	27264
819.903	27157
820.043	27154
820.184	27127
820.324	27020
820.465	27264
820.605	27051
820.746	27058
820.886	27032
821.026	27112
821.167	27116
821.307	27116
821.447	26971
821.588	26929
821.728	26773
821.868	26575
822.008	26476
822.149	26385
822.289	26320
822.429	26096
822.569	26062
822.709	26176
822.849	26035
822.99	25982
823.13	25868
823.27	25875
823.41	25837
823.55	25818
823.69	25727
823.83	25601
823.97	25719
824.11	25620
824.25	25563
824.389	25578
824.529	25795
824.669	25674
824.809	25670
824.949	25734
825.089	25822
825.228	25575
825.368	25495
825.508	25362
825.648	25552
825.787	25521
825.927	25613
826.067	25582
826.206	25430
826.346	25449
826.485	25533
826.625	25495
826.765	25590
826.904	25586
827.044	25183
827.183	25255
827.323	25168
827.462	25312
827.601	25240
827.741	25164
827.88	25240
828.02	25076
828.159	25225
828.298	25187
828.437	25175
828.577	25156
828.716	25179
828.855	25137
828.994	24970
829.134	24913
829.273	24901
829.412	24764
829.551	24882
829.69	24916
829.829	24905
829.968	24939
830.107	24856
830.246	24951
830.385	24886
830.524	24829
830.663	24734
830.802	24498
830.941	24475
831.08	24479
831.219	24509
831.357	24635
831.496	24726
831.635	24517
831.774	24410
831.913	24490
832.051	24350
832.19	24380
832.329	24342
832.467	24205
832.606	24163
832.744	24220
832.883	24152
833.022	24125
833.16	24133
833.299	24350
833.437	24251
833.576	24258
833.714	24224
833.852	24152
833.991	24365
834.129	24388
834.267	24433
834.406	24273
834.544	24292
834.682	24148
834.821	24182
834.959	24357
835.097	24224
835.235	24365
835.373	24194
835.511	24144
835.65	24011
835.788	24129
835.926	24079
836.064	23996
836.202	23958
836.34	24133
836.478	24209
836.615	23999
836.753	24083
836.891	24216
837.029	24220
837.167	24114
837.305	24003
837.443	23916
837.58	23840
837.718	23908
837.856	24007
837.993	23737
838.131	23870
838.269	23802
838.406	23805
838.544	23710
838.681	23566
838.819	23627
838.956	23387
839.094	23429
839.231	23277
839.369	23417
839.506	23813
839.643	23634
839.781	23349
839.918	23376
840.055	23398
840.193	23284
840.33	23296
840.467	23406
840.604	23372
840.742	23562
840.879	23231
841.016	23220
841.153	23223
841.29	23372
841.427	23326
841.564	23395
841.701	23277
841.838	23280
841.975	23220
842.112	23124
842.249	23136
842.385	23033
842.522	23235
842.659	23159
842.796	22991
842.933	23064
843.069	22976
843.206	22984
843.343	23143
843.479	23075
843.616	23109
843.752	22812
843.889	22748
844.025	22847
844.162	22733
844.298	22889
844.435	22839
844.571	22790
844.708	22854
844.844	22934
844.98	23037
845.117	22873
845.253	22759
845.389	22713
845.525	22904
845.661	22702
845.798	22615
845.934	22622
846.07	22459
846.206	22527
846.342	22725
846.478	22531
846.614	22348
846.75	22169
846.886	22303
847.022	22371
847.158	22215
847.294	22219
847.429	22386
847.565	22257
847.701	22569
847.837	22139
847.972	21953
848.108	22219
848.244	22093
848.379	21964
848.515	21865
848.65	21937
848.786	21838
848.921	21835
849.057	21934
849.192	22086
849.328	21865
849.463	21926
849.598	21854
849.734	21747
849.869	21808
850.004	21667
850.14	21671
850.275	21778
850.41	21576
850.545	21587
850.68	21637
850.815	21629
850.95	21667
851.085	21831
851.22	21743
851.355	21644
851.49	21698
851.625	21545
851.76	21515
851.895	21576
852.03	21622
852.165	21644
852.299	21587
852.434	21663
852.569	21663
852.703	21694
852.838	21736
852.973	21895
853.107	21682
853.242	21572
853.376	21511
853.511	21367
853.645	21477
853.78	21629
853.914	21477
854.048	21363
854.183	21557
854.317	21481
854.451	21679
854.585	21447
854.72	21545
854.854	21545
854.988	21370
855.122	21462
855.256	21424
855.39	21424
855.524	21595
855.658	21507
855.792	21477
855.926	21386
856.06	21469
856.194	21523
856.327	21511
856.461	21431
856.595	21492
856.729	21408
856.862	21469
856.996	21599
857.13	21530
857.263	21462
857.397	21580
857.53	21526
857.664	21420
857.797	21591
857.931	21667
858.064	21485
858.197	21496
858.331	21405
858.464	21397
858.597	21424
858.731	21325
858.864	21481
858.997	21462
859.13	21500
859.263	21504
859.396	21553
859.529	21397
859.662	21397
859.795	21310
859.928	21542
860.061	21675
860.194	21625
860.327	21561
860.46	21496
860.592	21576
860.725	21580
860.858	21629
860.99	21534
861.123	21447
861.256	21370
861.388	21401
861.521	22139
861.653	21428
861.786	21222
861.918	21279
862.05	21321
862.183	21428
862.315	21351
862.447	21538
862.58	21447
862.712	21222
862.844	21127
862.976	21214
863.108	21214
863.24	21568
863.372	21157
863.504	21184
863.636	21131
863.768	21294
863.9	21116
864.032	21180
864.164	21055
864.296	21173
864.428	21249
864.559	21310
864.691	21256
864.823	21211
864.954	21081
865.086	21256
865.217	21165
865.349	21150
865.48	21070
865.612	21116
865.743	21188
865.875	21089
866.006	21077
866.137	21074
866.269	21028
866.4	21051
866.531	20971
866.662	20971
866.793	21058
866.924	20937
867.055	21036
867.186	20963
867.317	21009
867.448	20937
867.579	21017
867.71	20853
867.841	21009
867.972	20979
868.103	21043
868.233	21058
868.364	21077
868.495	21131
868.625	21275
868.756	21344
868.886	21237
869.017	21222
869.147	21374
869.278	21348
869.408	21313
869.539	21279
869.669	21233
869.799	21070
869.929	21363
870.06	21336
870.19	21557
870.32	21523
870.45	21644
870.58	21610
870.71	21705
870.84	21606
870.97	21701
871.1	21656
871.23	21762
871.36	21831
871.489	21694
871.619	21770
871.749	21865
871.879	21793
872.008	21945
872.138	21804
872.267	21842
872.397	21663
872.526	21720
872.656	21751
872.785	21705
872.915	21743
873.044	21972
873.173	21934
873.303	21922
873.432	21972
873.561	21972
873.69	21876
873.819	21880
873.948	21941
874.077	21861
874.206	21846
874.335	21937
874.464	22013
874.593	22131
874.722	22025
874.851	22154
874.979	22124
875.108	22116
875.237	22063
875.365	21865
875.494	22051
875.623	22162
875.751	21987
875.88	22150
876.008	22135
876.136	22272
876.265	22436
876.393	22634
876.521	22478
876.65	22561
876.778	22402
876.906	22508
877.034	22303
877.162	22382
877.29	22303
877.418	22546
877.546	22527
877.674	22478
877.802	22557
877.93	22459
878.058	22333
878.185	22276
878.313	22455
878.441	22394
878.568	22147
878.696	22337
878.824	22508
878.951	22565
879.079	22710
879.206	22786
879.333	22607
879.461	22405
879.588	22512
879.715	22634
879.842	22744
879.97	22493
880.097	22306
880.224	22211
880.351	22299
880.478	22394
880.605	22181
880.732	22196
880.859	22466
880.986	22211
881.112	22287
881.239	22204
881.366	21937
881.493	21922
881.619	21823
881.746	21888
881.872	21800
881.999	21774
882.125	21812
882.252	21797
882.378	21808
882.505	21949
882.631	21656
882.757	21507
882.883	21473
883.01	21538
883.136	21488
883.262	21336
883.388	21458
883.514	21492
883.64	21591
883.766	21405
883.892	21389
884.018	21256
884.143	21466
884.269	21534
884.395	21230
884.52	21127
884.646	21203
884.772	21077
884.897	21043
885.023	21176
885.148	21355
885.274	21359
885.399	21237
885.524	21020
885.65	21268
885.775	21116
885.9	21119
886.025	21203
886.15	21241
886.275	21089
886.4	21188
886.525	21104
886.65	21100
886.775	21055
886.9	21184
887.025	21351
887.149	21135
887.274	20925
887.399	20944
887.523	21017
887.648	20880
887.773	20887
887.897	21108
888.021	20986
888.146	20864
888.27	21039
888.395	21032
888.519	21001
888.643	20960
888.767	20929
888.891	20918
889.015	20731
889.139	20800
889.263	20724
889.387	20785
889.511	20895
889.635	20880
889.759	20724
889.883	20792
890.006	20689
890.13	20838
890.254	20648
890.377	20701
890.501	20537
890.624	20427
890.748	20560
890.871	20332
890.995	20347
891.118	20225
891.241	20244
891.364	20301
891.488	20370
891.611	20343
891.734	20332
891.857	20358
891.98	20282
892.103	20298
892.226	20252
892.349	20183
892.471	20062
892.594	20267
892.717	20298
892.839	20221
892.962	20256
893.085	20275
893.207	20301
893.33	20077
893.452	20119
893.575	20301
893.697	20092
893.819	20400
893.941	20374
894.064	20294
894.186	20157
894.308	20157
894.43	20267
894.552	20351
894.674	20317
894.796	20043
894.918	20046
895.04	20187
895.161	20248
895.283	20256
895.405	20229
895.526	20103
895.648	20214
895.769	20240
895.891	20229
896.012	20214
896.134	20233
896.255	20237
896.376	20149
896.498	20164
896.619	20164
896.74	20206
896.861	20278
896.982	20575
897.103	20659
897.224	20598
897.345	20366
897.466	20370
897.587	20636
897.708	20575
897.828	20396
897.949	20434
898.07	20267
898.19	20355
898.311	20450
898.431	20400
898.552	20454
898.672	20495
898.792	20533
898.913	20480
899.033	20377
899.153	20259
899.273	20202
899.393	20214
899.513	20294
899.633	20176
899.753	20161
899.873	20107
899.993	20138
900.113	20020
900.232	20088
900.352	20229
900.472	19967
900.591	19791
900.711	19986
900.83	19864
900.95	20050
901.069	20062
901.189	19655
901.308	19632
901.427	19601
901.546	19525
901.665	19563
901.784	19506
901.904	19419
902.023	19411
902.141	19019
902.26	18947
902.379	19114
902.498	19095
902.617	18954
902.735	19080
902.854	19038
902.973	18947
903.091	18776
903.21	18738
903.328	18707
903.446	18620
903.565	18441
903.683	18506
903.801	18361
903.919	18445
904.038	18407
904.156	18330
904.274	18433
904.392	18247
904.51	18205
904.627	18327
904.745	18254
904.863	18414
904.981	18030
905.098	17999
905.216	17908
905.334	17973
905.451	17942
905.569	17954
905.686	17973
905.803	17946
905.921	17805
906.038	17950
906.155	17866
906.272	17653
906.389	17733
906.506	17501
906.623	17467
906.74	17516
906.857	17364
906.974	17353
907.091	17505
907.208	17611
907.324	17551
907.441	17406
907.557	17311
907.674	17162
907.79	17090
907.907	17189
908.023	17258
908.139	17193
908.256	17185
908.372	17083
908.488	17060
908.604	17006
908.72	16919
908.836	16892
908.952	16809
909.068	16953
909.184	17003
909.3	16908
909.415	16911
909.531	16965
909.647	16744
909.762	16679
909.878	16599
909.993	16542
910.108	16691
910.224	16656
910.339	16634
910.454	16527
910.57	16424
910.685	16280
910.8	16656
910.915	16523
911.03	16481
911.145	16265
911.259	16143
911.374	16204
911.489	16280
911.604	16093
911.718	15911
911.833	15998
911.947	15903
912.062	15926
912.176	15949
912.291	16029
912.405	15983
912.519	16002
912.633	16101
912.748	16036
912.862	15842
912.976	15880
913.09	15686
913.204	15720
913.318	15709
913.431	15937
913.545	15827
913.659	15884
913.772	15743
913.886	15641
914	15591
914.113	15660
914.226	15633
914.34	15679
914.453	15481
914.566	15572
914.68	15431
914.793	15450
914.906	15279
915.019	15161
915.132	15188
915.245	15142
915.358	15154
915.47	15093
915.583	15173
915.696	15154
915.809	15256
915.921	15367
916.034	15112
916.146	15100
916.259	15089
916.371	15211
916.483	15032
916.595	14963
916.708	14948
916.82	15032
916.932	15009
917.044	14895
917.156	14857
917.268	14815
917.38	14826
917.491	14899
917.603	14842
917.715	14929
917.826	14929
917.938	14826
918.049	14712
918.161	14815
918.272	14842
918.384	14975
918.495	14758
918.606	14568
918.717	14526
918.828	14651
918.939	14621
919.05	14530
919.161	14552
919.272	14377
919.383	14377
919.494	14629
919.604	14743
919.715	14541
919.826	14526
919.936	14522
920.047	14629
920.157	14625
920.267	14785
920.378	14571
920.488	14488
920.598	14686
920.708	14804
920.818	14712
920.928	14686
921.038	14853
921.148	14785
921.258	14473
921.368	14431
921.477	14347
921.587	14256
921.697	14225
921.806	14294
921.916	14172
922.025	14130
922.134	13887
922.244	13902
922.353	13997
922.462	13871
922.571	13784
922.68	13571
922.789	13556
922.898	13518
923.007	13506
923.116	13590
923.224	13548
923.333	13559
923.442	13403
923.55	13327
923.659	13419
923.767	13540
923.876	13419
923.984	13487
924.092	13365
924.201	13438
924.309	13297
924.417	13312
924.525	13244
924.633	13282
924.741	14138
924.849	13156
924.956	13183
925.064	13088
925.172	12966
925.279	12958
925.387	13107
925.494	13084
925.602	13072
925.709	13088
925.816	12924
925.924	12981
926.031	12932
926.138	12928
926.245	13065
926.352	12817
926.459	12856
926.566	12939
926.673	12897
926.779	12722
926.886	12783
926.993	12601
927.099	12551
927.206	12536
927.312	12559
927.419	12566
927.525	12540
927.631	12620
927.737	12376
927.843	12399
927.95	12270
928.056	12414
928.162	12376
928.267	12403
928.373	13031
928.479	12490
928.585	12209
928.69	12346
928.796	12338
928.901	12270
929.007	12155
929.112	12167
929.218	12216
929.323	12133
929.428	12045
929.533	12258
929.638	12060
929.743	12030
929.848	12140
929.953	12076
930.058	11950
930.163	11752
930.267	11790
930.372	11950
930.477	11790
930.581	11912
930.685	11840
930.79	11619
930.894	11691
930.998	11623
931.103	11836
931.207	11387
931.311	11364
931.415	11246
931.519	11079
931.623	11064
