Data from test_V78500241_2813.txt Node
Date: Fri Mar 25 16:01:17 CST 2022
User: usil
Spectrometer: V785-0024
Trigger mode: 0
Integration Time (sec): 4.000000E-1
Scans to average: 1
Nonlinearity correction enabled: false
Boxcar width: 0
Storing dark spectrum: false
XAxis mode: Wavelengths
Number of Pixels in Spectrum: 1024
>>>>>Begin Spectral Data<<<<<
801.071	29166
801.214	29041
801.356	28645
801.499	28603
801.641	28634
801.783	28588
801.926	28653
802.068	28679
802.211	28550
802.353	28550
802.496	28390
802.638	28329
802.78	28344
802.923	28310
803.065	28246
803.208	28363
803.35	28253
803.492	28329
803.635	28504
803.777	28440
803.919	28542
804.061	28946
804.204	28565
804.346	28497
804.488	28474
804.63	28538
804.773	28443
804.915	28717
805.057	28615
805.199	28569
805.341	28641
805.483	28790
805.626	28698
805.768	28599
805.91	28744
806.052	28896
806.194	28618
806.336	29086
806.478	28835
806.62	28786
806.762	28927
806.904	29155
807.046	29288
807.188	29273
807.33	29170
807.472	29307
807.614	29178
807.756	29273
807.898	29018
808.04	29102
808.182	29003
808.324	29041
808.465	29147
808.607	29185
808.749	29516
808.891	29497
809.033	29577
809.174	29478
809.316	29596
809.458	29440
809.6	29414
809.741	29444
809.883	29596
810.025	29813
810.166	29802
810.308	29718
810.45	29684
810.591	29531
810.733	29543
810.875	29497
811.016	29353
811.158	29395
811.299	29627
811.441	29570
811.582	29707
811.724	29501
811.865	29395
812.007	29345
812.148	29425
812.29	29444
812.431	29672
812.573	29786
812.714	29809
812.855	29984
812.997	30098
813.138	30281
813.279	30167
813.421	29939
813.562	29927
813.703	29790
813.845	29931
813.986	29562
814.127	29322
814.268	29124
814.41	29189
814.551	29166
814.692	29235
814.833	29185
814.974	29098
815.115	29147
815.256	29094
815.397	29155
815.539	29037
815.68	29204
815.821	28934
815.962	29060
816.103	29014
816.244	28835
816.385	28919
816.526	28942
816.666	28649
816.807	28531
816.948	28603
817.089	28645
817.23	28405
817.371	28592
817.512	28470
817.653	28462
817.793	28413
817.934	28459
818.075	28455
818.216	28561
818.356	28516
818.497	28196
818.638	28306
818.778	28257
818.919	28287
819.06	28379
819.2	28386
819.341	28596
819.481	28516
819.622	28596
819.762	28938
819.903	28831
820.043	28691
820.184	28599
820.324	28485
820.465	28850
820.605	28698
820.746	28710
820.886	28497
821.026	28729
821.167	28744
821.307	28596
821.447	28565
821.588	28527
821.728	28322
821.868	28169
822.008	28120
822.149	28059
822.289	28036
822.429	27637
822.569	27728
822.709	27656
822.849	27424
822.99	27553
823.13	27389
823.27	27466
823.41	27321
823.55	27214
823.69	27287
823.83	27340
823.97	27154
824.11	27218
824.25	27214
824.389	27150
824.529	27294
824.669	27317
824.809	27150
824.949	27344
825.089	27310
825.228	27268
825.368	27024
825.508	26994
825.648	27135
825.787	27085
825.927	27173
826.067	26998
826.206	27077
826.346	27013
826.485	27135
826.625	27051
826.765	27169
826.904	27165
827.044	26853
827.183	26868
827.323	26769
827.462	26731
827.601	26834
827.741	26975
827.88	26689
828.02	26583
828.159	26826
828.298	26807
828.437	26758
828.577	26655
828.716	26708
828.855	26708
828.994	26556
829.134	26503
829.273	26488
829.412	26663
829.551	26499
829.69	26473
829.829	26450
829.968	26564
830.107	26499
830.246	26438
830.385	26522
830.524	26396
830.663	26286
830.802	26286
830.941	26126
831.08	26035
831.219	26271
831.357	26119
831.496	26248
831.635	26012
831.774	26012
831.913	25997
832.051	25784
832.19	25795
832.329	25928
832.467	25708
832.606	25734
832.744	25685
832.883	25704
833.022	25803
833.16	25693
833.299	25799
833.437	25761
833.576	25814
833.714	25894
833.852	25803
833.991	25906
834.129	25887
834.267	25921
834.406	25849
834.544	25852
834.682	25746
834.821	25761
834.959	25868
835.097	25643
835.235	25864
835.373	25784
835.511	25814
835.65	25563
835.788	25723
835.926	25426
836.064	25533
836.202	25377
836.34	25753
836.478	25677
836.615	25670
836.753	25597
836.891	25734
837.029	25639
837.167	25491
837.305	25491
837.443	25331
837.58	25438
837.718	25514
837.856	25430
837.993	25491
838.131	25506
838.269	25240
838.406	25438
838.544	25209
838.681	25198
838.819	25034
838.956	24954
839.094	24909
839.231	24989
839.369	25027
839.506	25362
839.643	25118
839.781	24958
839.918	24852
840.055	24951
840.193	24791
840.33	24894
840.467	24749
840.604	24825
840.742	25095
840.879	24741
841.016	24673
841.153	24658
841.29	24901
841.427	24760
841.564	24825
841.701	24856
841.838	24669
841.975	24650
842.112	24749
842.249	24540
842.385	24612
842.522	24810
842.659	24658
842.796	24502
842.933	24528
843.069	24483
843.206	24448
843.343	24403
843.479	24471
843.616	24502
843.752	24311
843.889	24273
844.025	24494
844.162	24296
844.298	24395
844.435	24391
844.571	24262
844.708	24372
844.844	24486
844.98	24384
845.117	24460
845.253	24342
845.389	24216
845.525	24342
845.661	24155
845.798	24064
845.934	24083
846.07	24186
846.206	24060
846.342	24190
846.478	23908
846.614	23950
846.75	23752
846.886	23691
847.022	23950
847.158	23745
847.294	23901
847.429	23874
847.565	23752
847.701	24072
847.837	23440
847.972	23547
848.108	23668
848.244	23623
848.379	23303
848.515	23269
848.65	23330
848.786	23288
848.921	23440
849.057	23429
849.192	23573
849.328	23395
849.463	23524
849.598	23299
849.734	23299
849.869	23223
850.004	23311
850.14	23239
850.275	23242
850.41	23014
850.545	23075
850.68	23178
850.815	23162
850.95	23136
851.085	23349
851.22	23269
851.355	23140
851.49	23102
851.625	23212
851.76	23086
851.895	23223
852.03	23029
852.165	23083
852.299	23121
852.434	23250
852.569	23220
852.703	23113
852.838	23231
852.973	23193
853.107	23254
853.242	23159
853.376	22911
853.511	22672
853.645	22919
853.78	22923
853.914	23006
854.048	22999
854.183	22957
854.317	22949
854.451	23208
854.585	22919
854.72	23098
854.854	22946
854.988	22908
855.122	23140
855.256	22858
855.39	22965
855.524	23117
855.658	23113
855.792	22976
855.926	22900
856.06	23098
856.194	23128
856.327	22946
856.461	22816
856.595	22942
856.729	22999
856.862	23136
856.996	23022
857.13	22930
857.263	23044
857.397	23052
857.53	22869
857.664	22991
857.797	23067
857.931	22999
858.064	23025
858.197	23181
858.331	22984
858.464	22881
858.597	22873
858.731	22866
858.864	22866
858.997	22930
859.13	23075
859.263	22976
859.396	23132
859.529	22927
859.662	22889
859.795	22972
859.928	22862
860.061	23170
860.194	23174
860.327	22877
860.46	23064
860.592	23075
860.725	23086
860.858	23155
860.99	23025
861.123	22923
861.256	22968
861.388	23037
861.521	23653
861.653	22854
861.786	22683
861.918	22805
862.05	22946
862.183	22927
862.315	23044
862.447	23033
862.58	22965
862.712	22763
862.844	22592
862.976	22664
863.108	22679
863.24	23090
863.372	22660
863.504	22596
863.636	22679
863.768	22801
863.9	22557
864.032	22618
864.164	22691
864.296	22588
864.428	22786
864.559	22782
864.691	22793
864.823	22687
864.954	22752
865.086	22603
865.217	22561
865.349	22436
865.48	22542
865.612	22569
865.743	22634
865.875	22622
866.006	22497
866.137	22630
866.269	22603
866.4	22565
866.531	22493
866.662	22519
866.793	22443
866.924	22424
867.055	22447
867.186	22508
867.317	22436
867.448	22489
867.579	22394
867.71	22375
867.841	22459
867.972	22523
868.103	22379
868.233	22474
868.364	22497
868.495	22656
868.625	22744
868.756	22854
868.886	22596
869.017	22736
869.147	22843
869.278	22885
869.408	22854
869.539	22626
869.669	22797
869.799	22805
869.929	22915
870.06	22896
870.19	23025
870.32	22869
870.45	23067
870.58	23025
870.71	23220
870.84	23197
870.97	23258
871.1	23003
871.23	23208
871.36	23250
871.489	23261
871.619	23212
871.749	23376
871.879	23395
872.008	23444
872.138	23474
872.267	23368
872.397	23273
872.526	23109
872.656	23178
872.785	23140
872.915	23330
873.044	23410
873.173	23235
873.303	23353
873.432	23353
873.561	23433
873.69	23516
873.819	23410
873.948	23452
874.077	23231
874.206	23250
874.335	23379
874.464	23398
874.593	23539
874.722	23558
874.851	23589
874.979	23581
875.108	23573
875.237	23486
875.365	23539
875.494	23474
875.623	23539
875.751	23402
875.88	23592
876.008	23707
876.136	23714
876.265	23916
876.393	23988
876.521	24007
876.65	23965
876.778	23961
876.906	23733
877.034	23878
877.162	23927
877.29	23843
877.418	23980
877.546	23790
877.674	23893
877.802	23996
877.93	23802
878.058	23802
878.185	23798
878.313	23832
878.441	23832
878.568	23661
878.696	23901
878.824	23920
878.951	23958
879.079	24083
879.206	24239
879.333	24034
879.461	23904
879.588	23996
879.715	24026
879.842	24087
879.97	23973
880.097	23809
880.224	23741
880.351	23703
880.478	23798
880.605	23604
880.732	23646
880.859	23779
880.986	23748
881.112	23722
881.239	23589
881.366	23356
881.493	23273
881.619	23330
881.746	23200
881.872	23269
881.999	23246
882.125	23098
882.252	23269
882.378	23246
882.505	23265
882.631	23147
882.757	22938
882.883	23147
883.01	22862
883.136	22984
883.262	22839
883.388	22847
883.514	22949
883.64	22965
883.766	22877
883.892	22664
884.018	22710
884.143	22847
884.269	22854
884.395	22611
884.52	22405
884.646	22443
884.772	22546
884.897	22459
885.023	22554
885.148	22649
885.274	22577
885.399	22653
885.524	22561
885.65	22668
885.775	22527
885.9	22447
886.025	22668
886.15	22615
886.275	22516
886.4	22466
886.525	22413
886.65	22493
886.775	22382
886.9	22615
887.025	22744
887.149	22413
887.274	22329
887.399	22314
887.523	22306
887.648	22226
887.773	22234
887.897	22341
888.021	22314
888.146	22257
888.27	22432
888.395	22432
888.519	22333
888.643	22322
888.767	22356
888.891	22276
889.015	22067
889.139	22166
889.263	22120
889.387	22325
889.511	22272
889.635	22280
889.759	22017
889.883	22048
890.006	22067
890.13	22238
890.254	22048
890.377	22048
890.501	21816
890.624	21808
890.748	21873
890.871	21774
890.995	21667
891.118	21614
891.241	21720
891.364	21686
891.488	21739
891.611	21652
891.734	21637
891.857	21610
891.98	21633
892.103	21641
892.226	21686
892.349	21523
892.471	21359
892.594	21557
892.717	21485
892.839	21447
892.962	21591
893.085	21511
893.207	21583
893.33	21564
893.452	21386
893.575	21466
893.697	21477
893.819	21686
893.941	21747
894.064	21568
894.186	21462
894.308	21378
894.43	21583
894.552	21625
894.674	21488
894.796	21420
894.918	21469
895.04	21428
895.161	21515
895.283	21504
895.405	21504
895.526	21424
895.648	21519
895.769	21610
895.891	21412
896.012	21496
896.134	21614
896.255	21408
896.376	21515
896.498	21481
896.619	21504
896.74	21549
896.861	21515
896.982	21747
897.103	21873
897.224	21755
897.345	21652
897.466	21603
897.587	21576
897.708	21808
897.828	21751
897.949	21656
898.07	21481
898.19	21637
898.311	21800
898.431	21530
898.552	21709
898.672	21808
898.792	21736
898.913	21701
899.033	21572
899.153	21416
899.273	21348
899.393	21386
899.513	21310
899.633	21500
899.753	21405
899.873	21252
899.993	21302
900.113	21348
900.232	21260
900.352	21340
900.472	21214
900.591	21100
900.711	21123
900.83	21096
900.95	21260
901.069	21249
901.189	21036
901.308	20785
901.427	20682
901.546	20777
901.665	20682
901.784	20811
901.904	20651
902.023	20461
902.141	20195
902.26	20149
902.379	20358
902.498	20244
902.617	20199
902.735	20206
902.854	20240
902.973	20096
903.091	19799
903.21	19894
903.328	19921
903.446	19738
903.565	19727
903.683	19616
903.801	19514
903.919	19639
904.038	19620
904.156	19445
904.274	19480
904.392	19373
904.51	19422
904.627	19460
904.745	19407
904.863	19540
904.981	19236
905.098	19038
905.216	19053
905.334	19076
905.451	19038
905.569	19076
905.686	19122
905.803	19148
905.921	18905
906.038	19015
906.155	18897
906.272	18840
906.389	18852
906.506	18547
906.623	18673
906.74	18692
906.857	18517
906.974	18403
907.091	18661
907.208	18681
907.324	18616
907.441	18399
907.557	18388
907.674	18350
907.79	18258
907.907	18426
908.023	18357
908.139	18338
908.256	18197
908.372	18125
908.488	18205
908.604	18007
908.72	18034
908.836	18053
908.952	17942
909.068	17980
909.184	18064
909.3	18026
909.415	17988
909.531	18038
909.647	17794
909.762	17695
909.878	17699
909.993	17703
910.108	17592
910.224	17649
910.339	17668
910.454	17596
910.57	17547
910.685	17463
910.8	17535
910.915	17634
911.03	17379
911.145	17391
911.259	17277
911.374	17269
911.489	17155
911.604	17052
911.718	17064
911.833	17006
911.947	17018
912.062	16881
912.176	17033
912.291	17037
912.405	17037
912.519	17239
912.633	17193
912.748	16976
912.862	17018
912.976	16938
913.09	16717
913.204	16862
913.318	16774
913.431	16984
913.545	16908
913.659	16896
913.772	16759
913.886	16675
914	16664
914.113	16752
914.226	16801
914.34	16713
914.453	16512
914.566	16733
914.68	16485
914.793	16451
914.906	16268
915.019	16192
915.132	16185
915.245	16154
915.358	16181
915.47	16158
915.583	16143
915.696	16223
915.809	16219
915.921	16204
916.034	16063
916.146	16025
916.259	16002
916.371	16135
916.483	16147
916.595	16055
916.708	15972
916.82	15937
916.932	15964
917.044	15937
917.156	15907
917.268	15816
917.38	15835
917.491	15694
917.603	15816
917.715	15861
917.826	15793
917.938	15660
918.049	15576
918.161	15774
918.272	15861
918.384	15823
918.495	15682
918.606	15599
918.717	15481
918.828	15530
918.939	15633
919.05	15416
919.161	15504
919.272	15378
919.383	15367
919.494	15492
919.604	15660
919.715	15481
919.826	15477
919.936	15496
920.047	15481
920.157	15549
920.267	15660
920.378	15561
920.488	15443
920.598	15629
920.708	15736
920.818	15656
920.928	15523
921.038	15789
921.148	15694
921.258	15477
921.368	15298
921.477	15211
921.587	15169
921.697	15039
921.806	15222
921.916	15055
922.025	14861
922.134	14864
922.244	14781
922.353	14800
922.462	14708
922.571	14644
922.68	14610
922.789	14419
922.898	14469
923.007	14415
923.116	14415
923.224	14389
923.333	14370
923.442	14294
923.55	14206
923.659	14282
923.767	14343
923.876	14240
923.984	14286
924.092	14111
924.201	14275
924.309	14142
924.417	14199
924.525	14103
924.633	14103
924.741	14994
924.849	13928
924.956	14016
925.064	13909
925.172	13822
925.279	13860
925.387	13875
925.494	13833
925.602	13917
925.709	13883
925.816	13746
925.924	13757
926.031	13830
926.138	13818
926.245	13727
926.352	13655
926.459	13738
926.566	13784
926.673	13666
926.779	13548
926.886	13540
926.993	13396
927.099	13415
927.206	13240
927.312	13312
927.419	13426
927.525	13377
927.631	13343
927.737	13156
927.843	13183
927.95	13027
928.056	13133
928.162	13187
928.267	13202
928.373	13704
928.479	13206
928.585	13046
928.69	13129
928.796	13141
928.901	13050
929.007	12844
929.112	13061
929.218	13000
929.323	12821
929.428	12878
929.533	13015
929.638	12772
929.743	12772
929.848	12837
929.953	12719
930.058	12738
930.163	12612
930.267	12498
930.372	12642
930.477	12498
930.581	12707
930.685	12517
930.79	12433
930.894	12490
930.998	12334
931.103	12448
931.207	12194
931.311	11980
931.415	11973
931.519	11802
931.623	11794
