Data from test_V78500241_535.txt Node
Date: Fri Mar 25 15:45:30 CST 2022
User: usil
Spectrometer: V785-0024
Trigger mode: 0
Integration Time (sec): 4.000000E-1
Scans to average: 1
Nonlinearity correction enabled: false
Boxcar width: 0
Storing dark spectrum: false
XAxis mode: Wavelengths
Number of Pixels in Spectrum: 1024
>>>>>Begin Spectral Data<<<<<
801.071	28002
801.214	27861
801.356	27622
801.499	27667
801.641	27458
801.783	27481
801.926	27549
802.068	27492
802.211	27298
802.353	27176
802.496	27066
802.638	27058
802.78	27043
802.923	27055
803.065	26902
803.208	27131
803.35	27100
803.492	27138
803.635	27351
803.777	27108
803.919	27272
804.061	27580
804.204	27241
804.346	27211
804.488	27089
804.63	27207
804.773	27207
804.915	27313
805.057	27401
805.199	27237
805.341	27321
805.483	27283
805.626	27443
805.768	27275
805.91	27291
806.052	27435
806.194	27329
806.336	27538
806.478	27504
806.62	27382
806.762	27622
806.904	27686
807.046	27892
807.188	27827
807.33	27766
807.472	27842
807.614	27694
807.756	27755
807.898	27660
808.04	27610
808.182	27675
808.324	27633
808.465	27759
808.607	27808
808.749	28101
808.891	28200
809.033	28249
809.174	28112
809.316	28070
809.458	28017
809.6	28048
809.741	28226
809.883	28280
810.025	28242
810.166	28314
810.308	28261
810.45	28303
810.591	28223
810.733	28040
810.875	27975
811.016	28074
811.158	28032
811.299	28147
811.441	28299
811.582	28086
811.724	28036
811.865	28090
812.007	28078
812.148	28116
812.29	28131
812.431	28158
812.573	28382
812.714	28485
812.855	28599
812.997	28675
813.138	28797
813.279	28687
813.421	28664
813.562	28546
813.703	28455
813.845	28356
813.986	28051
814.127	27816
814.268	27709
814.41	27679
814.551	27709
814.692	27797
814.833	27637
814.974	27644
815.115	27713
815.256	27644
815.397	27732
815.539	27618
815.68	27458
815.821	27431
815.962	27572
816.103	27580
816.244	27393
816.385	27199
816.526	27355
816.666	27070
816.807	26979
816.948	26944
817.089	27089
817.23	26990
817.371	26967
817.512	27024
817.653	27062
817.793	26937
817.934	26937
818.075	27066
818.216	27055
818.356	26906
818.497	26853
818.638	26746
818.778	26743
818.919	26834
819.06	26762
819.2	26842
819.341	26861
819.481	26956
819.622	27108
819.762	27367
819.903	27264
820.043	27154
820.184	27062
820.324	27055
820.465	27180
820.605	27165
820.746	27070
820.886	26960
821.026	27138
821.167	27020
821.307	27157
821.447	27055
821.588	26819
821.728	26785
821.868	26648
822.008	26511
822.149	26488
822.289	26442
822.429	26164
822.569	26081
822.709	26130
822.849	26031
822.99	25932
823.13	25860
823.27	25974
823.41	25868
823.55	25544
823.69	25830
823.83	25894
823.97	25727
824.11	25616
824.25	25563
824.389	25620
824.529	25689
824.669	25689
824.809	25833
824.949	25700
825.089	25833
825.228	25681
825.368	25472
825.508	25479
825.648	25609
825.787	25472
825.927	25567
826.067	25411
826.206	25506
826.346	25613
826.485	25460
826.625	25476
826.765	25613
826.904	25571
827.044	25346
827.183	25266
827.323	25228
827.462	25187
827.601	25198
827.741	25198
827.88	25198
828.02	25099
828.159	25110
828.298	25187
828.437	25202
828.577	25156
828.716	25179
828.855	25099
828.994	24947
829.134	25057
829.273	24886
829.412	24707
829.551	24825
829.69	24810
829.829	24901
829.968	24981
830.107	24966
830.246	24935
830.385	24859
830.524	24856
830.663	24726
830.802	24673
830.941	24547
831.08	24357
831.219	24616
831.357	24467
831.496	24681
831.635	24502
831.774	24369
831.913	24388
832.051	24251
832.19	24311
832.329	24194
832.467	24133
832.606	24155
832.744	24228
832.883	24243
833.022	24034
833.16	24136
833.299	24216
833.437	24228
833.576	24300
833.714	24289
833.852	24232
833.991	24277
834.129	24224
834.267	24095
834.406	24232
834.544	24155
834.682	24209
834.821	24102
834.959	24323
835.097	24178
835.235	24315
835.373	24079
835.511	24251
835.65	24114
835.788	24060
835.926	24026
836.064	23802
836.202	23855
836.34	24114
836.478	24060
836.615	23969
836.753	23973
836.891	24163
837.029	24068
837.167	23946
837.305	23958
837.443	23855
837.58	23798
837.718	23927
837.856	23893
837.993	23863
838.131	23783
838.269	23748
838.406	23691
838.544	23722
838.681	23459
838.819	23444
838.956	23239
839.094	23193
839.231	23391
839.369	23691
839.506	23783
839.643	23604
839.781	23414
839.918	23273
840.055	23349
840.193	23220
840.33	23235
840.467	23353
840.604	23368
840.742	23520
840.879	23189
841.016	23254
841.153	23254
841.29	23273
841.427	23250
841.564	23337
841.701	23178
841.838	23223
841.975	23151
842.112	23227
842.249	23079
842.385	23037
842.522	23204
842.659	22953
842.796	22915
842.933	23071
843.069	22938
843.206	23010
843.343	23181
843.479	23003
843.616	23098
843.752	22786
843.889	22668
844.025	22839
844.162	22740
844.298	22866
844.435	22858
844.571	22729
844.708	22702
844.844	22904
844.98	22843
845.117	22999
845.253	22672
845.389	22740
845.525	22748
845.661	22717
845.798	22592
845.934	22592
846.07	22508
846.206	22535
846.342	22599
846.478	22485
846.614	22215
846.75	22185
846.886	22246
847.022	22325
847.158	22192
847.294	22322
847.429	22287
847.565	22143
847.701	22481
847.837	21953
847.972	21819
848.108	21983
848.244	22082
848.379	21876
848.515	21899
848.65	21778
848.786	21770
848.921	21804
849.057	21873
849.192	21899
849.328	21808
849.463	21911
849.598	21846
849.734	21667
849.869	21583
850.004	21568
850.14	21667
850.275	21660
850.41	21515
850.545	21622
850.68	21530
850.815	21641
850.95	21656
851.085	21804
851.22	21576
851.355	21652
851.49	21515
851.625	21473
851.76	21545
851.895	21420
852.03	21618
852.165	21587
852.299	21526
852.434	21595
852.569	21568
852.703	21618
852.838	21679
852.973	21690
853.107	21633
853.242	21591
853.376	21412
853.511	21245
853.645	21363
853.78	21572
853.914	21477
854.048	21325
854.183	21389
854.317	21500
854.451	21545
854.585	21321
854.72	21378
854.854	21428
854.988	21336
855.122	21454
855.256	21207
855.39	21439
855.524	21450
855.658	21439
855.792	21477
855.926	21488
856.06	21431
856.194	21492
856.327	21313
856.461	21420
856.595	21344
856.729	21428
856.862	21633
856.996	21492
857.13	21397
857.263	21564
857.397	21500
857.53	21477
857.664	21530
857.797	21431
857.931	21580
858.064	21389
858.197	21462
858.331	21336
858.464	21222
858.597	21291
858.731	21389
858.864	21344
858.997	21408
859.13	21355
859.263	21496
859.396	21492
859.529	21382
859.662	21382
859.795	21313
859.928	21382
860.061	21603
860.194	21663
860.327	21473
860.46	21507
860.592	21507
860.725	21549
860.858	21561
860.99	21382
861.123	21428
861.256	21382
861.388	21378
861.521	22090
861.653	21222
861.786	21192
861.918	21268
862.05	21256
862.183	21325
862.315	21485
862.447	21420
862.58	21325
862.712	21150
862.844	21127
862.976	21287
863.108	21195
863.24	21500
863.372	21081
863.504	21192
863.636	21131
863.768	21195
863.9	21070
864.032	21036
864.164	21001
864.296	21203
864.428	21226
864.559	21161
864.691	21230
864.823	21036
864.954	21017
865.086	21237
865.217	21051
865.349	20902
865.48	21043
865.612	20994
865.743	21081
865.875	20975
866.006	20994
866.137	20902
866.269	20929
866.4	20975
866.531	20921
866.662	20899
866.793	20883
866.924	20937
867.055	20864
867.186	20883
867.317	20967
867.448	20906
867.579	20864
867.71	20838
867.841	20948
867.972	21070
868.103	20975
868.233	20845
868.364	20941
868.495	20994
868.625	21222
868.756	21260
868.886	21074
869.017	21119
869.147	21268
869.278	21348
869.408	21146
869.539	21093
869.669	21340
869.799	21203
869.929	21291
870.06	21272
870.19	21538
870.32	21443
870.45	21572
870.58	21580
870.71	21656
870.84	21610
870.97	21515
871.1	21641
871.23	21732
871.36	21835
871.489	21762
871.619	21641
871.749	21743
871.879	21804
872.008	21937
872.138	21778
872.267	21869
872.397	21648
872.526	21496
872.656	21564
872.785	21496
872.915	21766
873.044	21869
873.173	21808
873.303	21876
873.432	21835
873.561	21850
873.69	21949
873.819	21698
873.948	21899
874.077	21873
874.206	21766
874.335	21785
874.464	21869
874.593	22097
874.722	21903
874.851	21987
874.979	22036
875.108	22025
875.237	22029
875.365	21819
875.494	21998
875.623	22059
875.751	22040
875.88	21983
876.008	22093
876.136	22246
876.265	22333
876.393	22531
876.521	22428
876.65	22508
876.778	22512
876.906	22352
877.034	22386
877.162	22276
877.29	22379
877.418	22375
877.546	22375
877.674	22333
877.802	22287
877.93	22390
878.058	22356
878.185	22295
878.313	22329
878.441	22504
878.568	22188
878.696	22276
878.824	22341
878.951	22516
879.079	22592
879.206	22554
879.333	22630
879.461	22519
879.588	22455
879.715	22615
879.842	22630
879.97	22459
880.097	22181
880.224	22261
880.351	22230
880.478	22082
880.605	22124
880.732	22105
880.859	22322
880.986	22196
881.112	22280
881.239	22006
881.366	21941
881.493	21884
881.619	21797
881.746	21705
881.872	21892
881.999	21739
882.125	21709
882.252	21766
882.378	21793
882.505	21854
882.631	21660
882.757	21477
882.883	21428
883.01	21439
883.136	21496
883.262	21195
883.388	21252
883.514	21405
883.64	21401
883.766	21389
883.892	21252
884.018	21279
884.143	21401
884.269	21557
884.395	21165
884.52	20971
884.646	21222
884.772	21112
884.897	21062
885.023	21123
885.148	21161
885.274	21241
885.399	21180
885.524	21051
885.65	21047
885.775	21154
885.9	20990
886.025	21173
886.15	21138
886.275	21127
886.4	20960
886.525	20899
886.65	21043
886.775	21047
886.9	21184
887.025	21256
887.149	21066
887.274	20883
887.399	20876
887.523	20929
887.648	20781
887.773	20823
887.897	20925
888.021	20891
888.146	20788
888.27	20929
888.395	20902
888.519	20876
888.643	20914
888.767	20834
888.891	20746
889.015	20697
889.139	20792
889.263	20659
889.387	20773
889.511	20944
889.635	20754
889.759	20765
889.883	20606
890.006	20636
890.13	20716
890.254	20651
890.377	20556
890.501	20442
890.624	20290
890.748	20499
890.871	20278
890.995	20256
891.118	20191
891.241	20275
891.364	20298
891.488	20328
891.611	20423
891.734	20332
891.857	20305
891.98	20328
892.103	20206
892.226	20282
892.349	20168
892.471	19974
892.594	20176
892.717	20248
892.839	20187
892.962	20233
893.085	20176
893.207	20206
893.33	20107
893.452	20096
893.575	20259
893.697	20020
893.819	20328
893.941	20381
894.064	20328
894.186	20088
894.308	20062
894.43	20206
894.552	20259
894.674	20267
894.796	20138
894.918	20191
895.04	20126
895.161	20233
895.283	20237
895.405	20077
895.526	20092
895.648	20130
895.769	20206
895.891	20168
896.012	20183
896.134	20324
896.255	20145
896.376	20081
896.498	20183
896.619	20180
896.74	20115
896.861	20339
896.982	20560
897.103	20602
897.224	20339
897.345	20282
897.466	20385
897.587	20298
897.708	20522
897.828	20431
897.949	20377
898.07	20275
898.19	20370
898.311	20469
898.431	20145
898.552	20385
898.672	20427
898.792	20393
898.913	20423
899.033	20244
899.153	20180
899.273	20035
899.393	20130
899.513	20054
899.633	20149
899.753	20119
899.873	20069
899.993	20149
900.113	20016
900.232	20122
900.352	19989
900.472	19883
900.591	19845
900.711	19928
900.83	19811
900.95	20020
901.069	19967
901.189	19879
901.308	19514
901.427	19407
901.546	19445
901.665	19430
901.784	19502
901.904	19407
902.023	19289
902.141	19114
902.26	18996
902.379	19076
902.498	18981
902.617	18970
902.735	18954
902.854	19012
902.973	18943
903.091	18772
903.21	18620
903.328	18681
903.446	18551
903.565	18475
903.683	18525
903.801	18300
903.919	18414
904.038	18414
904.156	18346
904.274	18292
904.392	18167
904.51	18201
904.627	18197
904.745	18262
904.863	18232
904.981	17961
905.098	17958
905.216	17863
905.334	18011
905.451	17885
905.569	17733
905.686	17889
905.803	17836
905.921	17684
906.038	17729
906.155	17748
906.272	17608
906.389	17680
906.506	17436
906.623	17471
906.74	17452
906.857	17444
906.974	17318
907.091	17509
907.208	17608
907.324	17516
907.441	17292
907.557	17155
907.674	17178
907.79	17124
907.907	17052
908.023	17174
908.139	17254
908.256	17143
908.372	17060
908.488	17033
908.604	16889
908.72	16801
908.836	16908
908.952	16820
909.068	16797
909.184	17033
909.3	16767
909.415	16957
909.531	16850
909.647	16615
909.762	16580
909.878	16531
909.993	16641
910.108	16565
910.224	16542
910.339	16569
910.454	16394
910.57	16318
910.685	16390
910.8	16615
910.915	16489
911.03	16329
911.145	16249
911.259	16234
911.374	16154
911.489	16093
911.604	16090
911.718	15964
911.833	15880
911.947	15922
912.062	15739
912.176	15907
912.291	15915
912.405	15857
912.519	16150
912.633	16139
912.748	15979
912.862	15911
912.976	15774
913.09	15705
913.204	15591
913.318	15755
913.431	15728
913.545	15861
913.659	15842
913.772	15656
913.886	15549
914	15450
914.113	15618
914.226	15580
914.34	15545
914.453	15424
914.566	15625
914.68	15405
914.793	15378
914.906	15222
915.019	15154
915.132	15028
915.245	15199
915.358	15097
915.47	15085
915.583	15169
915.696	15249
915.809	15298
915.921	15294
916.034	15116
916.146	15074
916.259	14963
916.371	15154
916.483	15062
916.595	14864
916.708	15074
916.82	15036
916.932	14861
917.044	14910
917.156	14910
917.268	14842
917.38	14773
917.491	14804
917.603	14834
917.715	14918
917.826	14910
917.938	14777
918.049	14644
918.161	14807
918.272	14842
918.384	14823
918.495	14720
918.606	14568
918.717	14434
918.828	14678
918.939	14625
919.05	14495
919.161	14533
919.272	14454
919.383	14476
919.494	14533
919.604	14758
919.715	14575
919.826	14465
919.936	14431
920.047	14518
920.157	14530
920.267	14648
920.378	14602
920.488	14503
920.598	14731
920.708	14811
920.818	14632
920.928	14762
921.038	14758
921.148	14769
921.258	14442
921.368	14511
921.477	14294
921.587	14229
921.697	14103
921.806	14244
921.916	14176
922.025	13955
922.134	13906
922.244	13799
922.353	13871
922.462	13776
922.571	13708
922.68	13643
922.789	13613
922.898	13571
923.007	13499
923.116	13537
923.224	13468
923.333	13537
923.442	13278
923.55	13339
923.659	13362
923.767	13407
923.876	13285
923.984	13335
924.092	13213
924.201	13282
924.309	13278
924.417	13278
924.525	13190
924.633	13160
924.741	13963
924.849	12939
924.956	13141
925.064	13061
925.172	12852
925.279	12932
925.387	12954
925.494	12913
925.602	13160
925.709	13050
925.816	12844
925.924	13000
926.031	13046
926.138	12897
926.245	12882
926.352	12791
926.459	12939
926.566	13065
926.673	12734
926.779	12741
926.886	12684
926.993	12506
927.099	12566
927.206	12429
927.312	12498
927.419	12525
927.525	12551
927.631	12566
927.737	12399
927.843	12426
927.95	12285
928.056	12292
928.162	12418
928.267	12391
928.373	13034
928.479	12418
928.585	12213
928.69	12338
928.796	12380
928.901	12136
929.007	12076
929.112	12281
929.218	12175
929.323	12159
929.428	12038
929.533	12239
929.638	11939
929.743	11973
929.848	12091
929.953	11988
930.058	11931
930.163	11745
930.267	11661
930.372	11999
930.477	11741
930.581	12087
930.685	11783
930.79	11657
930.894	11611
930.998	11608
931.103	11729
931.207	11448
931.311	11299
931.415	11235
931.519	11048
931.623	10987
