Data from test_V78500241_1158.txt Node
Date: Fri Mar 25 15:49:49 CST 2022
User: usil
Spectrometer: V785-0024
Trigger mode: 0
Integration Time (sec): 4.000000E-1
Scans to average: 1
Nonlinearity correction enabled: false
Boxcar width: 0
Storing dark spectrum: false
XAxis mode: Wavelengths
Number of Pixels in Spectrum: 1024
>>>>>Begin Spectral Data<<<<<
801.071	28531
801.214	28276
801.356	28181
801.499	28101
801.641	28006
801.783	27937
801.926	27998
802.068	27991
802.211	27994
802.353	27922
802.496	27701
802.638	27583
802.78	27675
802.923	27519
803.065	27618
803.208	27652
803.35	27701
803.492	27846
803.635	27918
803.777	27797
803.919	27930
804.061	28196
804.204	27998
804.346	27934
804.488	27827
804.63	27972
804.773	27766
804.915	27861
805.057	28086
805.199	27911
805.341	27983
805.483	28006
805.626	27934
805.768	27838
805.91	28112
806.052	28078
806.194	28006
806.336	28306
806.478	28147
806.62	28200
806.762	28253
806.904	28379
807.046	28622
807.188	28615
807.33	28504
807.472	28660
807.614	28531
807.756	28599
807.898	28299
808.04	28382
808.182	28447
808.324	28485
808.465	28390
808.607	28573
808.749	28763
808.891	28869
809.033	28896
809.174	28706
809.316	28740
809.458	28622
809.6	28729
809.741	28957
809.883	29086
810.025	29060
810.166	28987
810.308	29044
810.45	28984
810.591	28995
810.733	28911
810.875	28702
811.016	28672
811.158	28668
811.299	28752
811.441	28965
811.582	28980
811.724	28797
811.865	28797
812.007	28702
812.148	28786
812.29	28702
812.431	29033
812.573	28942
812.714	29227
812.855	29273
812.997	29406
813.138	29668
813.279	29337
813.421	29482
813.562	29387
813.703	29193
813.845	29033
813.986	28790
814.127	28615
814.268	28474
814.41	28470
814.551	28603
814.692	28550
814.833	28409
814.974	28413
815.115	28459
815.256	28295
815.397	28242
815.539	28386
815.68	28360
815.821	28363
815.962	28333
816.103	28379
816.244	28135
816.385	28246
816.526	28051
816.666	27861
816.807	27736
816.948	27949
817.089	27922
817.23	27762
817.371	27831
817.512	27823
817.653	27873
817.793	27690
817.934	27762
818.075	27842
818.216	27778
818.356	27751
818.497	27732
818.638	27545
818.778	27477
818.919	27561
819.06	27572
819.2	27797
819.341	27747
819.481	27804
819.622	27945
819.762	28207
819.903	28044
820.043	28002
820.184	28010
820.324	27907
820.465	27972
820.605	27895
820.746	27861
820.886	27804
821.026	28010
821.167	27823
821.307	27804
821.447	27926
821.588	27694
821.728	27648
821.868	27435
822.008	27359
822.149	27291
822.289	27222
822.429	27077
822.569	27074
822.709	27089
822.849	26727
822.99	26838
823.13	26857
823.27	26754
823.41	26701
823.55	26590
823.69	26724
823.83	26575
823.97	26632
824.11	26434
824.25	26461
824.389	26389
824.529	26541
824.669	26400
824.809	26575
824.949	26492
825.089	26617
825.228	26518
825.368	26271
825.508	26278
825.648	26465
825.787	26301
825.927	26522
826.067	26248
826.206	26305
826.346	26469
826.485	26282
826.625	26339
826.765	26336
826.904	26336
827.044	26119
827.183	26012
827.323	26016
827.462	25982
827.601	26107
827.741	26058
827.88	26081
828.02	25845
828.159	26020
828.298	26088
828.437	26092
828.577	25951
828.716	26077
828.855	25849
828.994	25784
829.134	25727
829.273	25651
829.412	25731
829.551	25681
829.69	25845
829.829	25811
829.968	25837
830.107	25803
830.246	25715
830.385	25746
830.524	25609
830.663	25506
830.802	25479
830.941	25415
831.08	25411
831.219	25312
831.357	25400
831.496	25567
831.635	25392
831.774	25110
831.913	25190
832.051	25168
832.19	25118
832.329	25012
832.467	25008
832.606	25057
832.744	25027
832.883	24966
833.022	24977
833.16	25027
833.299	25000
833.437	25156
833.576	25053
833.714	25004
833.852	25183
833.991	25133
834.129	25308
834.267	25126
834.406	25171
834.544	24981
834.682	25031
834.821	25042
834.959	25198
835.097	25004
835.235	25179
835.373	24989
835.511	25103
835.65	24787
835.788	24890
835.926	24951
836.064	24711
836.202	24764
836.34	24890
836.478	25023
836.615	24700
836.753	24840
836.891	24882
837.029	24897
837.167	24802
837.305	24764
837.443	24802
837.58	24734
837.718	24726
837.856	24757
837.993	24616
838.131	24726
838.269	24574
838.406	24642
838.544	24517
838.681	24399
838.819	24391
838.956	24304
839.094	24285
839.231	24285
839.369	24254
839.506	24517
839.643	24407
839.781	24209
839.918	24026
840.055	24167
840.193	24258
840.33	24254
840.467	24068
840.604	24224
840.742	24330
840.879	24049
841.016	24022
841.153	24102
841.29	24117
841.427	24083
841.564	24011
841.701	24102
841.838	24114
841.975	23893
842.112	23901
842.249	23958
842.385	23802
842.522	24007
842.659	24003
842.796	23847
842.933	23718
843.069	23840
843.206	23764
843.343	23950
843.479	23843
843.616	23958
843.752	23733
843.889	23554
844.025	23779
844.162	23642
844.298	23615
844.435	23634
844.571	23676
844.708	23642
844.844	23779
844.98	23687
845.117	23752
845.253	23531
845.389	23482
845.525	23486
845.661	23414
845.798	23395
845.934	23433
846.07	23376
846.206	23356
846.342	23501
846.478	23368
846.614	23185
846.75	23117
846.886	23025
847.022	23204
847.158	22991
847.294	22972
847.429	23086
847.565	23003
847.701	23356
847.837	22778
847.972	22767
848.108	22911
848.244	22858
848.379	22664
848.515	22767
848.65	22782
848.786	22611
848.921	22664
849.057	22774
849.192	22850
849.328	22660
849.463	22710
849.598	22599
849.734	22607
849.869	22493
850.004	22466
850.14	22455
850.275	22382
850.41	22356
850.545	22367
850.68	22413
850.815	22443
850.95	22451
851.085	22694
851.22	22519
851.355	22318
851.49	22462
851.625	22421
851.76	22428
851.895	22268
852.03	22314
852.165	22447
852.299	22485
852.434	22599
852.569	22493
852.703	22500
852.838	22417
852.973	22557
853.107	22565
853.242	22363
853.376	22303
853.511	22150
853.645	22230
853.78	22481
853.914	22257
854.048	22211
854.183	22169
854.317	22249
854.451	22386
854.585	22196
854.72	22265
854.854	22310
854.988	22219
855.122	22234
855.256	22158
855.39	22253
855.524	22344
855.658	22249
855.792	22329
855.926	22120
856.06	22371
856.194	22375
856.327	22246
856.461	22306
856.595	22223
856.729	22158
856.862	22280
856.996	22405
857.13	22356
857.263	22386
857.397	22402
857.53	22196
857.664	22356
857.797	22398
857.931	22394
858.064	22299
858.197	22367
858.331	22242
858.464	22215
858.597	22329
858.731	22268
858.864	22276
858.997	22204
859.13	22352
859.263	22204
859.396	22344
859.529	22276
859.662	22242
859.795	22150
859.928	22169
860.061	22390
860.194	22516
860.327	22303
860.46	22356
860.592	22280
860.725	22417
860.858	22565
860.99	22253
861.123	22230
861.256	22249
861.388	22249
861.521	23041
861.653	22120
861.786	22063
861.918	22131
862.05	22238
862.183	22169
862.315	22150
862.447	22261
862.58	22109
862.712	21945
862.844	21876
862.976	22105
863.108	22032
863.24	22428
863.372	21918
863.504	21949
863.636	22036
863.768	22063
863.9	21956
864.032	21861
864.164	21918
864.296	21930
864.428	22017
864.559	21964
864.691	22006
864.823	21987
864.954	21934
865.086	21930
865.217	21926
865.349	21816
865.48	21876
865.612	21808
865.743	21975
865.875	21895
866.006	21732
866.137	21918
866.269	21865
866.4	21709
866.531	21675
866.662	21755
866.793	21717
866.924	21846
867.055	21793
867.186	21675
867.317	21751
867.448	21774
867.579	21762
867.71	21736
867.841	21682
867.972	21656
868.103	21819
868.233	21762
868.364	21846
868.495	21880
868.625	21945
868.756	22124
868.886	21835
869.017	22063
869.147	22128
869.278	22105
869.408	21949
869.539	21956
869.669	22093
869.799	22036
869.929	22116
870.06	22154
870.19	22356
870.32	22329
870.45	22466
870.58	22390
870.71	22531
870.84	22565
870.97	22428
871.1	22390
871.23	22637
871.36	22599
871.489	22645
871.619	22546
871.749	22523
871.879	22557
872.008	22778
872.138	22626
872.267	22592
872.397	22474
872.526	22405
872.656	22344
872.785	22550
872.915	22713
873.044	22672
873.173	22622
873.303	22653
873.432	22599
873.561	22767
873.69	22630
873.819	22573
873.948	22725
874.077	22588
874.206	22542
874.335	22687
874.464	22668
874.593	22946
874.722	22873
874.851	22881
874.979	22854
875.108	22828
875.237	22778
875.365	22710
875.494	22820
875.623	22889
875.751	22885
875.88	22953
876.008	22930
876.136	23075
876.265	23250
876.393	23216
876.521	23356
876.65	23326
876.778	23242
876.906	23147
877.034	23079
877.162	23227
877.29	23044
877.418	23185
877.546	23322
877.674	23170
877.802	23246
877.93	23132
878.058	23193
878.185	23132
878.313	23189
878.441	23204
878.568	22961
878.696	23147
878.824	23273
878.951	23349
879.079	23444
879.206	23463
879.333	23322
879.461	23185
879.588	23284
879.715	23292
879.842	23482
879.97	23250
880.097	22930
880.224	23033
880.351	23102
880.478	23033
880.605	23014
880.732	22896
880.859	23326
880.986	22881
881.112	23064
881.239	22782
881.366	22793
881.493	22694
881.619	22592
881.746	22634
881.872	22561
881.999	22550
882.125	22424
882.252	22611
882.378	22557
882.505	22649
882.631	22523
882.757	22211
882.883	22295
883.01	22272
883.136	22234
883.262	22215
883.388	22063
883.514	22242
883.64	22337
883.766	22010
883.892	21956
884.018	22010
884.143	22154
884.269	22215
884.395	21918
884.52	21918
884.646	22006
884.772	21793
884.897	21838
885.023	21854
885.148	22025
885.274	22124
885.399	21918
885.524	21915
885.65	21922
885.775	21804
885.9	21876
886.025	21956
886.15	21888
886.275	21892
886.4	21713
886.525	21781
886.65	21743
886.775	21812
886.9	21857
887.025	22101
887.149	21800
887.274	21622
887.399	21599
887.523	21633
887.648	21587
887.773	21481
887.897	21732
888.021	21816
888.146	21462
888.27	21633
888.395	21713
888.519	21660
888.643	21671
888.767	21652
888.891	21542
889.015	21408
889.139	21534
889.263	21420
889.387	21542
889.511	21698
889.635	21526
889.759	21370
889.883	21401
890.006	21447
890.13	21488
890.254	21348
890.377	21348
890.501	21283
890.624	21116
890.748	21279
890.871	21066
890.995	21039
891.118	21005
891.241	21017
891.364	21017
891.488	20986
891.611	20899
891.734	20941
891.857	20971
891.98	21055
892.103	21055
892.226	20937
892.349	20952
892.471	20754
892.594	20895
892.717	20861
892.839	20876
892.962	20876
893.085	21009
893.207	20883
893.33	20762
893.452	20773
893.575	20876
893.697	20910
893.819	21036
893.941	21032
894.064	21104
894.186	20861
894.308	20864
894.43	20902
894.552	21074
894.674	20986
894.796	20864
894.918	20842
895.04	20925
895.161	20891
895.283	20899
895.405	20830
895.526	20853
895.648	20834
895.769	20800
895.891	20944
896.012	20971
896.134	20952
896.255	20842
896.376	20769
896.498	20853
896.619	20895
896.74	20765
896.861	20849
896.982	21260
897.103	21325
897.224	21173
897.345	21150
897.466	21100
897.587	21039
897.708	21249
897.828	21260
897.949	20952
898.07	20883
898.19	20990
898.311	21260
898.431	21051
898.552	21203
898.672	21176
898.792	21169
898.913	21024
899.033	20994
899.153	20746
899.273	20811
899.393	20769
899.513	20823
899.633	20834
899.753	20849
899.873	20659
899.993	20849
900.113	20720
900.232	20807
900.352	20613
900.472	20762
900.591	20473
900.711	20587
900.83	20499
900.95	20629
901.069	20682
901.189	20473
901.308	20244
901.427	20122
901.546	20153
901.665	20225
901.784	20153
901.904	19925
902.023	19887
902.141	19761
902.26	19597
902.379	19723
902.498	19742
902.617	19586
902.735	19681
902.854	19632
902.973	19476
903.091	19403
903.21	19381
903.328	19213
903.446	19194
903.565	19217
903.683	19118
903.801	18993
903.919	18932
904.038	19110
904.156	18958
904.274	18882
904.392	18817
904.51	18935
904.627	18875
904.745	18951
904.863	18875
904.981	18753
905.098	18540
905.216	18525
905.334	18570
905.451	18631
905.569	18582
905.686	18551
905.803	18494
905.921	18319
906.038	18441
906.155	18289
906.272	18247
906.389	18201
906.506	18068
906.623	18129
906.74	17977
906.857	17874
906.974	17942
907.091	18224
907.208	18167
907.324	18041
907.441	18038
907.557	17802
907.674	17748
907.79	17699
907.907	17726
908.023	17817
908.139	17779
908.256	17687
908.372	17684
908.488	17737
908.604	17554
908.72	17436
908.836	17448
908.952	17448
909.068	17467
909.184	17596
909.3	17467
909.415	17486
909.531	17486
909.647	17307
909.762	17208
909.878	17220
909.993	17220
910.108	17121
910.224	17181
910.339	17170
910.454	17083
910.57	16991
910.685	16889
910.8	17113
910.915	17090
911.03	16980
911.145	16809
911.259	16752
911.374	16843
911.489	16687
911.604	16702
911.718	16485
911.833	16580
911.947	16394
912.062	16402
912.176	16550
912.291	16538
912.405	16550
912.519	16717
912.633	16569
912.748	16504
912.862	16402
912.976	16291
913.09	16185
913.204	16352
913.318	16291
913.431	16398
913.545	16261
913.659	16314
913.772	16318
913.886	16128
914	16010
914.113	16211
914.226	16268
914.34	16150
914.453	16048
914.566	16120
914.68	15975
914.793	15991
914.906	15800
915.019	15755
915.132	15675
915.245	15660
915.358	15778
915.47	15743
915.583	15656
915.696	15675
915.809	15899
915.921	15793
916.034	15652
916.146	15580
916.259	15603
916.371	15542
916.483	15545
916.595	15637
916.708	15523
916.82	15504
916.932	15526
917.044	15500
917.156	15428
917.268	15393
917.38	15458
917.491	15428
917.603	15466
917.715	15367
917.826	15397
917.938	15252
918.049	15188
918.161	15332
918.272	15511
918.384	15416
918.495	15230
918.606	15195
918.717	15039
918.828	15077
918.939	15097
919.05	15058
919.161	15085
919.272	14872
919.383	14880
919.494	15123
919.604	15310
919.715	15077
919.826	15062
919.936	15005
920.047	15195
920.157	15039
920.267	15203
920.378	15051
920.488	15146
920.598	15135
920.708	15306
920.818	15325
920.928	15062
921.038	15332
921.148	15279
921.258	14990
921.368	14899
921.477	14769
921.587	14754
921.697	14655
921.806	14701
921.916	14617
922.025	14507
922.134	14412
922.244	14370
922.353	14381
922.462	14282
922.571	14199
922.68	13982
922.789	13997
922.898	14088
923.007	13959
923.116	14008
923.224	13974
923.333	13993
923.442	13894
923.55	13875
923.659	13890
923.767	14005
923.876	13837
923.984	13845
924.092	13723
924.201	13757
924.309	13742
924.417	13674
924.525	13620
924.633	13605
924.741	14480
924.849	13457
924.956	13601
925.064	13460
925.172	13324
925.279	13476
925.387	13521
925.494	13388
925.602	13548
925.709	13453
925.816	13293
925.924	13354
926.031	13438
926.138	13289
926.245	13453
926.352	13285
926.459	13392
926.566	13487
926.673	13377
926.779	13133
926.886	13114
926.993	13046
927.099	13000
927.206	12932
927.312	12871
927.419	13046
927.525	12916
927.631	12996
927.737	12909
927.843	12844
927.95	12734
928.056	12749
928.162	12719
928.267	12871
928.373	13468
928.479	12844
928.585	12604
928.69	12620
928.796	12802
928.901	12627
929.007	12456
929.112	12582
929.218	12563
929.323	12559
929.428	12437
929.533	12658
929.638	12464
929.743	12414
929.848	12448
929.953	12353
930.058	12239
930.163	12213
930.267	12175
930.372	12365
930.477	12095
930.581	12388
930.685	12197
930.79	12068
930.894	12026
930.998	12026
931.103	12224
931.207	11794
931.311	11676
931.415	11764
931.519	11448
931.623	11452
