Data from test_V78500241_1537.txt Node
Date: Fri Mar 25 15:52:26 CST 2022
User: usil
Spectrometer: V785-0024
Trigger mode: 0
Integration Time (sec): 4.000000E-1
Scans to average: 1
Nonlinearity correction enabled: false
Boxcar width: 0
Storing dark spectrum: false
XAxis mode: Wavelengths
Number of Pixels in Spectrum: 1024
>>>>>Begin Spectral Data<<<<<
801.071	28135
801.214	28219
801.356	28029
801.499	27945
801.641	27922
801.783	27831
801.926	27956
802.068	27838
802.211	27808
802.353	27720
802.496	27545
802.638	27542
802.78	27416
802.923	27454
803.065	27458
803.208	27370
803.35	27485
803.492	27580
803.635	27618
803.777	27557
803.919	27747
804.061	28128
804.204	27835
804.346	27614
804.488	27743
804.63	27591
804.773	27614
804.915	27861
805.057	27934
805.199	27690
805.341	27785
805.483	27972
805.626	27991
805.768	27876
805.91	27869
806.052	27964
806.194	27819
806.336	28013
806.478	27899
806.62	27926
806.762	28067
806.904	28291
807.046	28375
807.188	28257
807.33	28344
807.472	28322
807.614	28215
807.756	28333
807.898	28204
808.04	28139
808.182	28105
808.324	28185
808.465	28318
808.607	28451
808.749	28538
808.891	28603
809.033	28607
809.174	28592
809.316	28603
809.458	28531
809.6	28500
809.741	28527
809.883	28839
810.025	28828
810.166	28946
810.308	28812
810.45	28824
810.591	28649
810.733	28565
810.875	28489
811.016	28390
811.158	28550
811.299	28672
811.441	28748
811.582	28660
811.724	28557
811.865	28493
812.007	28622
812.148	28615
812.29	28542
812.431	28702
812.573	28930
812.714	28968
812.855	29151
812.997	29242
813.138	29200
813.279	29109
813.421	29143
813.562	29067
813.703	28869
813.845	28801
813.986	28489
814.127	28375
814.268	28337
814.41	28360
814.551	28246
814.692	28382
814.833	28481
814.974	28337
815.115	28382
815.256	28192
815.397	28025
815.539	28181
815.68	28078
815.821	27903
815.962	28093
816.103	27922
816.244	28048
816.385	27759
816.526	27804
816.666	27652
816.807	27561
816.948	27686
817.089	27644
817.23	27603
817.371	27564
817.512	27481
817.653	27610
817.793	27443
817.934	27427
818.075	27515
818.216	27553
818.356	27420
818.497	27469
818.638	27359
818.778	27329
818.919	27127
819.06	27264
819.2	27431
819.341	27515
819.481	27538
819.622	27652
819.762	27876
819.903	27827
820.043	27694
820.184	27625
820.324	27747
820.465	27694
820.605	27705
820.746	27641
820.886	27553
821.026	27663
821.167	27580
821.307	27717
821.447	27629
821.588	27519
821.728	27340
821.868	27192
822.008	27089
822.149	26990
822.289	26952
822.429	26914
822.569	26735
822.709	26796
822.849	26526
822.99	26423
823.13	26545
823.27	26320
823.41	26351
823.55	26298
823.69	26374
823.83	26465
823.97	26191
824.11	26134
824.25	26084
824.389	26233
824.529	26221
824.669	26164
824.809	26278
824.949	26271
825.089	26286
825.228	26240
825.368	26164
825.508	25982
825.648	26054
825.787	26092
825.927	26229
826.067	25978
826.206	26058
826.346	26062
826.485	26084
826.625	26134
826.765	26115
826.904	26058
827.044	25852
827.183	25871
827.323	25742
827.462	25772
827.601	25738
827.741	25776
827.88	25769
828.02	25753
828.159	25666
828.298	25803
828.437	25807
828.577	25727
828.716	25852
828.855	25578
828.994	25438
829.134	25373
829.273	25491
829.412	25464
829.551	25373
829.69	25483
829.829	25460
829.968	25586
830.107	25453
830.246	25400
830.385	25422
830.524	25388
830.663	25259
830.802	25114
830.941	25095
831.08	24928
831.219	25221
831.357	25088
831.496	25190
831.635	25217
831.774	25061
831.913	25000
832.051	24913
832.19	24913
832.329	24958
832.467	24783
832.606	24745
832.744	24764
832.883	24779
833.022	24578
833.16	24707
833.299	24707
833.437	24749
833.576	24901
833.714	24730
833.852	24909
833.991	24802
834.129	24764
834.267	24867
834.406	24783
834.544	24772
834.682	24681
834.821	24768
834.959	25015
835.097	24829
835.235	24829
835.373	24852
835.511	24798
835.65	24532
835.788	24661
835.926	24475
836.064	24353
836.202	24448
836.34	24696
836.478	24639
836.615	24635
836.753	24688
836.891	24749
837.029	24570
837.167	24521
837.305	24456
837.443	24418
837.58	24555
837.718	24498
837.856	24475
837.993	24395
838.131	24521
838.269	24277
838.406	24376
838.544	24319
838.681	24129
838.819	24136
838.956	23942
839.094	24072
839.231	24034
839.369	24057
839.506	24205
839.643	24098
839.781	23828
839.918	24011
840.055	23927
840.193	23897
840.33	23817
840.467	23809
840.604	23874
840.742	24087
840.879	23627
841.016	23847
841.153	23741
841.29	23836
841.427	23950
841.564	23889
841.701	23805
841.838	23843
841.975	23718
842.112	23767
842.249	23558
842.385	23501
842.522	23779
842.659	23505
842.796	23547
842.933	23585
843.069	23524
843.206	23551
843.343	23718
843.479	23531
843.616	23474
843.752	23421
843.889	23360
844.025	23429
844.162	23406
844.298	23421
844.435	23311
844.571	23231
844.708	23353
844.844	23516
844.98	23501
845.117	23406
845.253	23239
845.389	23227
845.525	23178
845.661	23292
845.798	23075
845.934	23162
846.07	23067
846.206	23166
846.342	23204
846.478	23064
846.614	22908
846.75	22717
846.886	22812
847.022	22858
847.158	22866
847.294	22759
847.429	22896
847.565	22843
847.701	23090
847.837	22481
847.972	22527
848.108	22630
848.244	22660
848.379	22455
848.515	22432
848.65	22356
848.786	22428
848.921	22390
849.057	22565
849.192	22535
849.328	22478
849.463	22405
849.598	22428
849.734	22310
849.869	22246
850.004	22226
850.14	22036
850.275	22169
850.41	22109
850.545	22158
850.68	22204
850.815	22166
850.95	22181
851.085	22379
851.22	22291
851.355	22268
851.49	22158
851.625	22116
851.76	22181
851.895	22021
852.03	22120
852.165	22196
852.299	22090
852.434	22242
852.569	22242
852.703	22109
852.838	22131
852.973	22348
853.107	22314
853.242	22105
853.376	22036
853.511	21979
853.645	21983
853.78	22025
853.914	22044
854.048	21964
854.183	21991
854.317	21884
854.451	22177
854.585	21899
854.72	21964
854.854	22074
854.988	22036
855.122	22010
855.256	21903
855.39	21854
855.524	22067
855.658	22059
855.792	21941
855.926	22051
856.06	21979
856.194	22067
856.327	21953
856.461	21949
856.595	21991
856.729	21972
856.862	22082
856.996	21956
857.13	22040
857.263	22070
857.397	22074
857.53	22010
857.664	22055
857.797	22112
857.931	22097
858.064	21949
858.197	22109
858.331	22010
858.464	21892
858.597	21838
858.731	21915
858.864	21884
858.997	21850
859.13	22086
859.263	22036
859.396	22109
859.529	21880
859.662	21930
859.795	21941
859.928	22017
860.061	22341
860.194	22268
860.327	22078
860.46	21968
860.592	22223
860.725	22204
860.858	22074
860.99	21994
861.123	21831
861.256	22082
861.388	22067
861.521	22565
861.653	21956
861.786	21800
861.918	21785
862.05	21895
862.183	21831
862.315	21915
862.447	21949
862.58	21869
862.712	21530
862.844	21698
862.976	21739
863.108	21679
863.24	22154
863.372	21637
863.504	21679
863.636	21732
863.768	21797
863.9	21701
864.032	21583
864.164	21568
864.296	21759
864.428	21846
864.559	21762
864.691	21778
864.823	21778
864.954	21709
865.086	21682
865.217	21633
865.349	21481
865.48	21656
865.612	21580
865.743	21667
865.875	21625
866.006	21553
866.137	21618
866.269	21511
866.4	21507
866.531	21481
866.662	21412
866.793	21568
866.924	21481
867.055	21553
867.186	21614
867.317	21447
867.448	21389
867.579	21450
867.71	21382
867.841	21416
867.972	21679
868.103	21500
868.233	21462
868.364	21656
868.495	21603
868.625	21709
868.756	21842
868.886	21759
869.017	21686
869.147	21861
869.278	21903
869.408	21819
869.539	21800
869.669	21793
869.799	21850
869.929	21911
870.06	21770
870.19	22173
870.32	22006
870.45	22112
870.58	22192
870.71	22249
870.84	22318
870.97	22074
871.1	22154
871.23	22310
871.36	22230
871.489	22265
871.619	22234
871.749	22265
871.879	22485
872.008	22470
872.138	22363
872.267	22341
872.397	22230
872.526	22158
872.656	22086
872.785	22131
872.915	22375
873.044	22462
873.173	22424
873.303	22394
873.432	22299
873.561	22432
873.69	22447
873.819	22371
873.948	22527
874.077	22405
874.206	22306
874.335	22344
874.464	22489
874.593	22599
874.722	22607
874.851	22573
874.979	22630
875.108	22675
875.237	22611
875.365	22504
875.494	22569
875.623	22793
875.751	22519
875.88	22592
876.008	22713
876.136	22672
876.265	23010
876.393	23185
876.521	23105
876.65	23022
876.778	22984
876.906	22949
877.034	22957
877.162	22896
877.29	22839
877.418	22881
877.546	22942
877.674	22987
877.802	22904
877.93	22946
878.058	22930
878.185	22774
878.313	22778
878.441	22889
878.568	22744
878.696	22908
878.824	22968
878.951	23079
879.079	23197
879.206	23250
879.333	23018
879.461	22942
879.588	23006
879.715	23067
879.842	23227
879.97	22968
880.097	22729
880.224	22736
880.351	22809
880.478	22824
880.605	22733
880.732	22733
880.859	22995
880.986	22835
881.112	22752
881.239	22611
881.366	22424
881.493	22386
881.619	22451
881.746	22314
881.872	22272
881.999	22238
882.125	22177
882.252	22348
882.378	22299
882.505	22337
882.631	22181
882.757	22059
882.883	22097
883.01	22017
883.136	21926
883.262	21930
883.388	21842
883.514	22006
883.64	21983
883.766	21846
883.892	21762
884.018	21789
884.143	21994
884.269	22040
884.395	21686
884.52	21751
884.646	21538
884.772	21652
884.897	21530
885.023	21587
885.148	21739
885.274	21743
885.399	21694
885.524	21762
885.65	21713
885.775	21568
885.9	21675
886.025	21618
886.15	21663
886.275	21751
886.4	21603
886.525	21519
886.65	21686
886.775	21515
886.9	21751
887.025	21861
887.149	21538
887.274	21549
887.399	21397
887.523	21351
887.648	21233
887.773	21241
887.897	21458
888.021	21408
888.146	21336
888.27	21587
888.395	21374
888.519	21530
888.643	21431
888.767	21492
888.891	21374
889.015	21188
889.139	21260
889.263	21070
889.387	21332
889.511	21393
889.635	21298
889.759	21017
889.883	21203
890.006	21157
890.13	21287
890.254	21127
890.377	21096
890.501	21157
890.624	20937
890.748	21058
890.871	20842
890.995	20720
891.118	20708
891.241	20785
891.364	20853
891.488	20849
891.611	20792
891.734	20731
891.857	20819
891.98	20838
892.103	20883
892.226	20785
892.349	20804
892.471	20644
892.594	20720
892.717	20674
892.839	20701
892.962	20674
893.085	20689
893.207	20670
893.33	20457
893.452	20625
893.575	20762
893.697	20609
893.819	20739
893.941	20857
894.064	20796
894.186	20621
894.308	20629
894.43	20746
894.552	20864
894.674	20743
894.796	20503
894.918	20629
895.04	20735
895.161	20708
895.283	20686
895.405	20575
895.526	20682
895.648	20644
895.769	20765
895.891	20667
896.012	20796
896.134	20708
896.255	20678
896.376	20590
896.498	20667
896.619	20735
896.74	20640
896.861	20777
896.982	20998
897.103	21047
897.224	20941
897.345	20785
897.466	20853
897.587	20918
897.708	20937
897.828	20921
897.949	20777
898.07	20754
898.19	20853
898.311	20891
898.431	20773
898.552	20910
898.672	20872
898.792	20979
898.913	20815
899.033	20788
899.153	20632
899.273	20571
899.393	20659
899.513	20564
899.633	20659
899.753	20609
899.873	20541
899.993	20564
900.113	20476
900.232	20609
900.352	20450
900.472	20396
900.591	20267
900.711	20301
900.83	20324
900.95	20473
901.069	20511
901.189	20248
901.308	20096
901.427	19993
901.546	19951
901.665	20024
901.784	19883
901.904	19898
902.023	19655
902.141	19624
902.26	19518
902.379	19605
902.498	19422
902.617	19419
902.735	19434
902.854	19415
902.973	19400
903.091	19187
903.21	19091
903.328	19031
903.446	19008
903.565	18981
903.683	18939
903.801	18722
903.919	18897
904.038	18916
904.156	18681
904.274	18738
904.392	18639
904.51	18635
904.627	18585
904.745	18722
904.863	18730
904.981	18456
905.098	18365
905.216	18437
905.334	18429
905.451	18361
905.569	18270
905.686	18372
905.803	18395
905.921	18171
906.038	18239
906.155	18178
906.272	18060
906.389	18076
906.506	17889
906.623	17863
906.74	17935
906.857	17771
906.974	17809
907.091	18003
907.208	17992
907.324	17851
907.441	17821
907.557	17695
907.674	17642
907.79	17577
907.907	17554
908.023	17615
908.139	17729
908.256	17535
908.372	17455
908.488	17398
908.604	17387
908.72	17250
908.836	17330
908.952	17307
909.068	17235
909.184	17356
909.3	17280
909.415	17337
909.531	17303
909.647	17113
909.762	16923
909.878	16995
909.993	17064
910.108	17022
910.224	16923
910.339	17018
910.454	16900
910.57	16835
910.685	16847
910.8	16987
910.915	16885
911.03	16801
911.145	16561
911.259	16542
911.374	16546
911.489	16554
911.604	16405
911.718	16405
911.833	16352
911.947	16356
912.062	16166
912.176	16348
912.291	16284
912.405	16356
912.519	16478
912.633	16466
912.748	16402
912.862	16261
912.976	16097
913.09	16051
913.204	16097
913.318	16120
913.431	16226
913.545	16173
913.659	16257
913.772	16116
913.886	15960
914	15873
914.113	16097
914.226	16071
914.34	15991
914.453	15831
914.566	16048
914.68	15865
914.793	15812
914.906	15629
915.019	15561
915.132	15473
915.245	15526
915.358	15595
915.47	15549
915.583	15511
915.696	15572
915.809	15618
915.921	15667
916.034	15443
916.146	15393
916.259	15454
916.371	15477
916.483	15447
916.595	15275
916.708	15374
916.82	15359
916.932	15279
917.044	15214
917.156	15275
917.268	15138
917.38	15138
917.491	15264
917.603	15161
917.715	15283
917.826	15351
917.938	15104
918.049	14998
918.161	15100
918.272	15237
918.384	15310
918.495	15028
918.606	14948
918.717	14910
918.828	14918
918.939	14937
919.05	14811
919.161	14880
919.272	14674
919.383	14823
919.494	14876
919.604	15051
919.715	14921
919.826	14754
919.936	14868
920.047	14918
920.157	14845
920.267	15085
920.378	14891
920.488	14785
920.598	15047
920.708	15180
920.818	15032
920.928	14960
921.038	15146
921.148	15104
921.258	14975
921.368	14655
921.477	14617
921.587	14613
921.697	14454
921.806	14526
921.916	14484
922.025	14290
922.134	14328
922.244	14191
922.353	14294
922.462	14054
922.571	14062
922.68	14020
922.789	13833
922.898	14001
923.007	13811
923.116	13902
923.224	13898
923.333	13841
923.442	13784
923.55	13693
923.659	13765
923.767	13864
923.876	13677
923.984	13803
924.092	13636
924.201	13639
924.309	13651
924.417	13658
924.525	13525
924.633	13590
924.741	14408
924.849	13285
924.956	13403
925.064	13301
925.172	13365
925.279	13278
925.387	13369
925.494	13335
925.602	13316
925.709	13282
925.816	13244
925.924	13175
926.031	13407
926.138	13217
926.245	13400
926.352	13103
926.459	13304
926.566	13346
926.673	13069
926.779	13031
926.886	13065
926.993	12837
927.099	12924
927.206	12833
927.312	12795
927.419	12920
927.525	12837
927.631	12859
927.737	12772
927.843	12658
927.95	12616
928.056	12646
928.162	12635
928.267	12707
928.373	13346
928.479	12703
928.585	12437
928.69	12616
928.796	12620
928.901	12517
929.007	12334
929.112	12574
929.218	12536
929.323	12391
929.428	12323
929.533	12509
929.638	12270
929.743	12353
929.848	12308
929.953	12285
930.058	12239
930.163	12026
930.267	12019
930.372	12194
930.477	12022
930.581	12144
930.685	12076
930.79	11950
930.894	11939
930.998	11992
931.103	12030
931.207	11676
931.311	11573
931.415	11482
931.519	11269
931.623	11292
