Data from test_V78500241_3485.txt Node
Date: Fri Mar 25 16:05:56 CST 2022
User: usil
Spectrometer: V785-0024
Trigger mode: 0
Integration Time (sec): 4.000000E-1
Scans to average: 1
Nonlinearity correction enabled: false
Boxcar width: 0
Storing dark spectrum: false
XAxis mode: Wavelengths
Number of Pixels in Spectrum: 1024
>>>>>Begin Spectral Data<<<<<
801.071	29037
801.214	29048
801.356	28809
801.499	28706
801.641	28618
801.783	28508
801.926	28580
802.068	28500
802.211	28500
802.353	28603
802.496	28363
802.638	28287
802.78	28287
802.923	28234
803.065	28169
803.208	28341
803.35	28394
803.492	28333
803.635	28561
803.777	28459
803.919	28512
804.061	28793
804.204	28630
804.346	28485
804.488	28341
804.63	28455
804.773	28618
804.915	28626
805.057	28694
805.199	28660
805.341	28755
805.483	28618
805.626	28805
805.768	28744
805.91	28736
806.052	28812
806.194	28706
806.336	29029
806.478	28736
806.62	28782
806.762	28938
806.904	29086
807.046	29330
807.188	29143
807.33	29140
807.472	29254
807.614	29212
807.756	29162
807.898	29037
808.04	29052
808.182	29128
808.324	29086
808.465	29086
808.607	29387
808.749	29551
808.891	29429
809.033	29722
809.174	29448
809.316	29356
809.458	29436
809.6	29303
809.741	29478
809.883	29554
810.025	29786
810.166	29843
810.308	29714
810.45	29684
810.591	29627
810.733	29562
810.875	29349
811.016	29395
811.158	29337
811.299	29524
811.441	29520
811.582	29657
811.724	29619
811.865	29520
812.007	29410
812.148	29672
812.29	29638
812.431	29737
812.573	29882
812.714	29764
812.855	30026
812.997	29946
813.138	30220
813.279	30159
813.421	30129
813.562	29912
813.703	29836
813.845	29828
813.986	29459
814.127	29273
814.268	29246
814.41	29265
814.551	29223
814.692	29322
814.833	29136
814.974	29181
815.115	29360
815.256	29174
815.397	29113
815.539	29231
815.68	29105
815.821	28885
815.962	29071
816.103	29090
816.244	28923
816.385	28873
816.526	28885
816.666	28630
816.807	28596
816.948	28656
817.089	28527
817.23	28478
817.371	28398
817.512	28500
817.653	28493
817.793	28367
817.934	28485
818.075	28554
818.216	28531
818.356	28531
818.497	28337
818.638	28131
818.778	28401
818.919	28341
819.06	28310
819.2	28497
819.341	28497
819.481	28500
819.622	28790
819.762	28873
819.903	28797
820.043	28679
820.184	28691
820.324	28538
820.465	28733
820.605	28710
820.746	28588
820.886	28649
821.026	28679
821.167	28717
821.307	28717
821.447	28440
821.588	28485
821.728	28367
821.868	28185
822.008	28021
822.149	27987
822.289	27945
822.429	27663
822.569	27561
822.709	27713
822.849	27572
822.99	27690
823.13	27473
823.27	27393
823.41	27275
823.55	27237
823.69	27241
823.83	27332
823.97	27359
824.11	27192
824.25	27195
824.389	27272
824.529	27264
824.669	27047
824.809	27241
824.949	27226
825.089	27260
825.228	27279
825.368	26918
825.508	27058
825.648	27055
825.787	27062
825.927	27195
826.067	26998
826.206	27188
826.346	27119
826.485	27214
826.625	27176
826.765	27108
826.904	27176
827.044	26899
827.183	27001
827.323	26804
827.462	26861
827.601	26785
827.741	26796
827.88	26830
828.02	26613
828.159	26834
828.298	26887
828.437	26804
828.577	26708
828.716	26876
828.855	26762
828.994	26434
829.134	26476
829.273	26594
829.412	26434
829.551	26473
829.69	26453
829.829	26492
829.968	26492
830.107	26552
830.246	26473
830.385	26461
830.524	26469
830.663	26206
830.802	26278
830.941	26111
831.08	26100
831.219	26084
831.357	26016
831.496	26313
831.635	26142
831.774	26100
831.913	26005
832.051	25997
832.19	25826
832.329	25928
832.467	25753
832.606	25685
832.744	25765
832.883	25750
833.022	25738
833.16	25807
833.299	25814
833.437	25868
833.576	25833
833.714	25909
833.852	25932
833.991	25898
834.129	25894
834.267	25826
834.406	25811
834.544	25928
834.682	25826
834.821	25734
834.959	25875
835.097	25704
835.235	25849
835.373	25856
835.511	25780
835.65	25594
835.788	25708
835.926	25449
836.064	25422
836.202	25529
836.34	25685
836.478	25788
836.615	25590
836.753	25510
836.891	25605
837.029	25674
837.167	25441
837.305	25502
837.443	25586
837.58	25533
837.718	25597
837.856	25324
837.993	25369
838.131	25350
838.269	25285
838.406	25441
838.544	25301
838.681	25190
838.819	25152
838.956	24992
839.094	24878
839.231	24996
839.369	25095
839.506	25411
839.643	25122
839.781	24817
839.918	24856
840.055	25046
840.193	24924
840.33	24776
840.467	24882
840.604	24760
840.742	25145
840.879	24627
841.016	24711
841.153	24677
841.29	24890
841.427	24658
841.564	24810
841.701	24715
841.838	24730
841.975	24802
842.112	24700
842.249	24726
842.385	24551
842.522	24909
842.659	24650
842.796	24517
842.933	24620
843.069	24467
843.206	24578
843.343	24574
843.479	24551
843.616	24566
843.752	24452
843.889	24410
844.025	24460
844.162	24475
844.298	24395
844.435	24311
844.571	24239
844.708	24445
844.844	24521
844.98	24445
845.117	24429
845.253	24174
845.389	24209
845.525	24228
845.661	24201
845.798	24102
845.934	24125
846.07	24232
846.206	24148
846.342	24224
846.478	24076
846.614	23817
846.75	23836
846.886	23912
847.022	23851
847.158	23866
847.294	23828
847.429	23882
847.565	23646
847.701	23988
847.837	23520
847.972	23562
848.108	23573
848.244	23642
848.379	23543
848.515	23387
848.65	23303
848.786	23520
848.921	23455
849.057	23414
849.192	23539
849.328	23368
849.463	23387
849.598	23258
849.734	23292
849.869	23288
850.004	23151
850.14	23265
850.275	23212
850.41	23162
850.545	23239
850.68	23185
850.815	23208
850.95	23102
851.085	23337
851.22	23200
851.355	23220
851.49	23193
851.625	23258
851.76	23140
851.895	23143
852.03	23166
852.165	23102
852.299	23246
852.434	23258
852.569	23136
852.703	23121
852.838	23212
852.973	23231
853.107	23311
853.242	23094
853.376	22961
853.511	22953
853.645	22877
853.78	23075
853.914	22942
854.048	22889
854.183	22938
854.317	23086
854.451	23121
854.585	23079
854.72	23071
854.854	23086
854.988	23041
855.122	23033
855.256	22835
855.39	22915
855.524	23018
855.658	22923
855.792	22873
855.926	23029
856.06	23010
856.194	22965
856.327	22976
856.461	22866
856.595	22900
856.729	22965
856.862	23094
856.996	23044
857.13	23098
857.263	23193
857.397	23052
857.53	23041
857.664	22987
857.797	23022
857.931	23128
858.064	23075
858.197	23105
858.331	23003
858.464	22938
858.597	22873
858.731	22984
858.864	22961
858.997	23018
859.13	23064
859.263	22987
859.396	23136
859.529	22946
859.662	22919
859.795	23025
859.928	23098
860.061	23071
860.194	23227
860.327	23075
860.46	23086
860.592	23086
860.725	23193
860.858	23170
860.99	23060
861.123	23033
861.256	22869
861.388	23086
861.521	23752
861.653	22828
861.786	22961
861.918	22843
862.05	22831
862.183	22923
862.315	23048
862.447	22976
862.58	22953
862.712	22828
862.844	22649
862.976	22778
863.108	22744
863.24	23090
863.372	22721
863.504	22812
863.636	22565
863.768	22710
863.9	22786
864.032	22744
864.164	22523
864.296	22744
864.428	22790
864.559	22900
864.691	22812
864.823	22675
864.954	22805
865.086	22721
865.217	22577
865.349	22550
865.48	22512
865.612	22443
865.743	22691
865.875	22630
866.006	22557
866.137	22611
866.269	22493
866.4	22565
866.531	22519
866.662	22428
866.793	22470
866.924	22577
867.055	22580
867.186	22516
867.317	22523
867.448	22333
867.579	22523
867.71	22538
867.841	22398
867.972	22603
868.103	22481
868.233	22451
868.364	22664
868.495	22577
868.625	22691
868.756	22805
868.886	22649
869.017	22759
869.147	22862
869.278	22896
869.408	22828
869.539	22660
869.669	22748
869.799	22790
869.929	22877
870.06	22889
870.19	23033
870.32	23086
870.45	23136
870.58	23098
870.71	23303
870.84	23227
870.97	23079
871.1	23102
871.23	23299
871.36	23360
871.489	23246
871.619	23364
871.749	23235
871.879	23440
872.008	23524
872.138	23311
872.267	23307
872.397	23220
872.526	23250
872.656	23235
872.785	23109
872.915	23474
873.044	23433
873.173	23387
873.303	23509
873.432	23463
873.561	23474
873.69	23345
873.819	23353
873.948	23455
874.077	23391
874.206	23204
874.335	23353
874.464	23455
874.593	23528
874.722	23497
874.851	23531
874.979	23630
875.108	23493
875.237	23531
875.365	23410
875.494	23471
875.623	23649
875.751	23478
875.88	23691
876.008	23623
876.136	23714
876.265	23969
876.393	24026
876.521	24007
876.65	24060
876.778	23897
876.906	24018
877.034	23878
877.162	23912
877.29	23870
877.418	23851
877.546	23859
877.674	23950
877.802	23912
877.93	23828
878.058	23775
878.185	23813
878.313	23783
878.441	23889
878.568	23767
878.696	23684
878.824	23870
878.951	24038
879.079	24034
879.206	24201
879.333	24064
879.461	23885
879.588	23904
879.715	24155
879.842	24159
879.97	24007
880.097	23623
880.224	23672
880.351	23878
880.478	23726
880.605	23710
880.732	23726
880.859	24022
880.986	23798
881.112	23707
881.239	23539
881.366	23505
881.493	23322
881.619	23258
881.746	23402
881.872	23280
881.999	23341
882.125	23242
882.252	23326
882.378	23261
882.505	23395
882.631	23006
882.757	22953
882.883	23025
883.01	22923
883.136	22900
883.262	22877
883.388	22694
883.514	22972
883.64	22869
883.766	22710
883.892	22797
884.018	22839
884.143	22896
884.269	22949
884.395	22691
884.52	22580
884.646	22535
884.772	22557
884.897	22379
885.023	22512
885.148	22653
885.274	22748
885.399	22634
885.524	22618
885.65	22478
885.775	22474
885.9	22470
886.025	22687
886.15	22626
886.275	22436
886.4	22493
886.525	22474
886.65	22440
886.775	22459
886.9	22592
887.025	22790
887.149	22622
887.274	22322
887.399	22337
887.523	22333
887.648	22238
887.773	22333
887.897	22337
888.021	22402
888.146	22337
888.27	22451
888.395	22428
888.519	22299
888.643	22333
888.767	22405
888.891	22226
889.015	22219
889.139	22162
889.263	22329
889.387	22185
889.511	22390
889.635	22249
889.759	22067
889.883	22055
890.006	22223
890.13	22086
890.254	22082
890.377	22067
890.501	21831
890.624	21812
890.748	21941
890.871	21778
890.995	21679
891.118	21614
891.241	21656
891.364	21606
891.488	21690
891.611	21701
891.734	21724
891.857	21679
891.98	21656
892.103	21701
892.226	21568
892.349	21587
892.471	21435
892.594	21519
892.717	21526
892.839	21496
892.962	21637
893.085	21698
893.207	21462
893.33	21424
893.452	21443
893.575	21496
893.697	21431
893.819	21656
893.941	21774
894.064	21591
894.186	21568
894.308	21401
894.43	21686
894.552	21717
894.674	21675
894.796	21469
894.918	21412
895.04	21523
895.161	21606
895.283	21496
895.405	21507
895.526	21447
895.648	21523
895.769	21603
895.891	21599
896.012	21629
896.134	21614
896.255	21561
896.376	21450
896.498	21553
896.619	21439
896.74	21496
896.861	21492
896.982	21827
897.103	21922
897.224	21724
897.345	21728
897.466	21583
897.587	21728
897.708	21789
897.828	21846
897.949	21625
898.07	21477
898.19	21610
898.311	21732
898.431	21603
898.552	21656
898.672	21656
898.792	21667
898.913	21656
899.033	21568
899.153	21610
899.273	21420
899.393	21481
899.513	21515
899.633	21408
899.753	21405
899.873	21294
899.993	21405
900.113	21424
900.232	21378
900.352	21298
900.472	21169
900.591	21085
900.711	21104
900.83	21165
900.95	21260
901.069	21233
901.189	21020
901.308	20838
901.427	20632
901.546	20651
901.665	20712
901.784	20667
901.904	20556
902.023	20507
902.141	20199
902.26	20218
902.379	20282
902.498	20164
902.617	20149
902.735	20328
902.854	20271
902.973	20161
903.091	19875
903.21	19944
903.328	19921
903.446	19845
903.565	19666
903.683	19658
903.801	19624
903.919	19578
904.038	19616
904.156	19514
904.274	19453
904.392	19529
904.51	19377
904.627	19419
904.745	19480
904.863	19533
904.981	19263
905.098	19088
905.216	19076
905.334	19038
905.451	19069
905.569	18985
905.686	19042
905.803	19110
905.921	18943
906.038	18993
906.155	19012
906.272	18703
906.389	18726
906.506	18673
906.623	18696
906.74	18604
906.857	18544
906.974	18566
907.091	18639
907.208	18639
907.324	18650
907.441	18532
907.557	18380
907.674	18266
907.79	18281
907.907	18399
908.023	18308
908.139	18270
908.256	18285
908.372	18235
908.488	18152
908.604	18114
908.72	18011
908.836	18053
908.952	18022
909.068	18038
909.184	18209
909.3	17965
909.415	17958
909.531	17939
909.647	17783
909.762	17691
909.878	17733
909.993	17714
910.108	17684
910.224	17710
910.339	17745
910.454	17558
910.57	17528
910.685	17524
910.8	17779
910.915	17627
911.03	17604
911.145	17356
911.259	17311
911.374	17315
911.489	17235
911.604	17113
911.718	16991
911.833	17052
911.947	16946
912.062	16892
912.176	17033
912.291	17124
912.405	17006
912.519	17208
912.633	17162
912.748	17113
912.862	17037
912.976	16885
913.09	16786
913.204	16793
913.318	16854
913.431	16915
913.545	16934
913.659	17018
913.772	16824
913.886	16694
914	16637
914.113	16748
914.226	16710
914.34	16622
914.453	16459
914.566	16740
914.68	16535
914.793	16436
914.906	16348
915.019	16230
915.132	16204
915.245	16242
915.358	16268
915.47	16242
915.583	16200
915.696	16226
915.809	16348
915.921	16169
916.034	16147
916.146	16109
916.259	16013
916.371	16207
916.483	16147
916.595	16032
916.708	15987
916.82	16013
916.932	15911
917.044	15987
917.156	15937
917.268	15800
917.38	15808
917.491	15846
917.603	15797
917.715	15922
917.826	15915
917.938	15751
918.049	15728
918.161	15808
918.272	15857
918.384	15895
918.495	15766
918.606	15622
918.717	15515
918.828	15530
918.939	15557
919.05	15439
919.161	15386
919.272	15298
919.383	15340
919.494	15526
919.604	15812
919.715	15545
919.826	15378
919.936	15428
920.047	15469
920.157	15485
920.267	15728
920.378	15599
920.488	15507
920.598	15629
920.708	15842
920.818	15523
920.928	15557
921.038	15755
921.148	15690
921.258	15420
921.368	15428
921.477	15211
921.587	15249
921.697	15055
921.806	15298
921.916	15077
922.025	14918
922.134	14849
922.244	14720
922.353	14948
922.462	14796
922.571	14648
922.68	14526
922.789	14461
922.898	14461
923.007	14480
923.116	14560
923.224	14499
923.333	14427
923.442	14324
923.55	14233
923.659	14290
923.767	14358
923.876	14237
923.984	14267
924.092	14199
924.201	14271
924.309	14191
924.417	14191
924.525	14107
924.633	14202
924.741	14830
924.849	13936
924.956	14035
925.064	13909
925.172	13837
925.279	13860
925.387	13887
925.494	13780
925.602	13906
925.709	13879
925.816	13613
925.924	13761
926.031	13811
926.138	13738
926.245	13833
926.352	13613
926.459	13769
926.566	13772
926.673	13742
926.779	13552
926.886	13521
926.993	13312
927.099	13407
927.206	13320
927.312	13240
927.419	13362
927.525	13274
927.631	13354
927.737	13289
927.843	13247
927.95	13084
928.056	13164
928.162	13247
928.267	13274
928.373	13841
928.479	13137
928.585	12996
928.69	13095
928.796	13255
928.901	13080
929.007	12871
929.112	12981
929.218	12916
929.323	12856
929.428	12798
929.533	13023
929.638	12730
929.743	12821
929.848	12840
929.953	12734
930.058	12783
930.163	12540
930.267	12612
930.372	12760
930.477	12464
930.581	12658
930.685	12578
930.79	12380
930.894	12471
930.998	12388
931.103	12506
931.207	12133
931.311	12083
931.415	11954
931.519	11756
931.623	11866
