Data from test_V78500241_2978.txt Node
Date: Fri Mar 25 16:02:25 CST 2022
User: usil
Spectrometer: V785-0024
Trigger mode: 0
Integration Time (sec): 4.000000E-1
Scans to average: 1
Nonlinearity correction enabled: false
Boxcar width: 0
Storing dark spectrum: false
XAxis mode: Wavelengths
Number of Pixels in Spectrum: 1024
>>>>>Begin Spectral Data<<<<<
801.071	28226
801.214	28044
801.356	27842
801.499	27846
801.641	27652
801.783	27545
801.926	27679
802.068	27580
802.211	27526
802.353	27500
802.496	27367
802.638	27256
802.78	27348
802.923	27291
803.065	27176
803.208	27154
803.35	27359
803.492	27427
803.635	27435
803.777	27283
803.919	27622
804.061	27736
804.204	27580
804.346	27439
804.488	27500
804.63	27648
804.773	27557
804.915	27622
805.057	27667
805.199	27633
805.341	27629
805.483	27747
805.626	27618
805.768	27466
805.91	27663
806.052	27671
806.194	27591
806.336	27762
806.478	27690
806.62	27644
806.762	27895
806.904	28017
807.046	28124
807.188	28177
807.33	27987
807.472	28097
807.614	28158
807.756	28116
807.898	28002
808.04	27968
808.182	27903
808.324	27968
808.465	27987
808.607	28249
808.749	28386
808.891	28386
809.033	28462
809.174	28329
809.316	28303
809.458	28394
809.6	28207
809.741	28398
809.883	28516
810.025	28596
810.166	28538
810.308	28710
810.45	28603
810.591	28538
810.733	28371
810.875	28344
811.016	28303
811.158	28295
811.299	28470
811.441	28630
811.582	28436
811.724	28272
811.865	28405
812.007	28299
812.148	28421
812.29	28424
812.431	28580
812.573	28786
812.714	28679
812.855	28801
812.997	28820
813.138	29018
813.279	28984
813.421	28603
813.562	28759
813.703	28740
813.845	28546
813.986	28238
814.127	28135
814.268	28021
814.41	28101
814.551	27964
814.692	28131
814.833	27956
814.974	27945
815.115	28207
815.256	27991
815.397	27918
815.539	27808
815.68	27846
815.821	27682
815.962	27823
816.103	27850
816.244	27641
816.385	27663
816.526	27542
816.666	27374
816.807	27370
816.948	27416
817.089	27291
817.23	27294
817.371	27424
817.512	27275
817.653	27332
817.793	27302
817.934	27313
818.075	27260
818.216	27275
818.356	27161
818.497	27302
818.638	27100
818.778	27119
818.919	27123
819.06	27146
819.2	27245
819.341	27230
819.481	27252
819.622	27260
819.762	27641
819.903	27580
820.043	27515
820.184	27367
820.324	27367
820.465	27466
820.605	27435
820.746	27332
820.886	27233
821.026	27572
821.167	27363
821.307	27443
821.447	27397
821.588	27047
821.728	27032
821.868	26899
822.008	26921
822.149	26739
822.289	26758
822.429	26583
822.569	26453
822.709	26419
822.849	26298
822.99	26404
823.13	26206
823.27	26218
823.41	26065
823.55	26043
823.69	26168
823.83	26005
823.97	26001
824.11	25966
824.25	25795
824.389	25944
824.529	26065
824.669	25894
824.809	25925
824.949	25989
825.089	26012
825.228	26046
825.368	25887
825.508	25868
825.648	25757
825.787	25769
825.927	25689
826.067	25753
826.206	25712
826.346	25875
826.485	25966
826.625	25746
826.765	25879
826.904	25944
827.044	25620
827.183	25571
827.323	25476
827.462	25738
827.601	25529
827.741	25445
827.88	25502
828.02	25365
828.159	25510
828.298	25460
828.437	25681
828.577	25457
828.716	25655
828.855	25506
828.994	25221
829.134	25198
829.273	25259
829.412	25266
829.551	25091
829.69	25274
829.829	25183
829.968	25240
830.107	25171
830.246	25217
830.385	25118
830.524	25069
830.663	24958
830.802	24848
830.941	24681
831.08	24700
831.219	24916
831.357	24905
831.496	25027
831.635	24875
831.774	24772
831.913	24684
832.051	24627
832.19	24612
832.329	24700
832.467	24570
832.606	24380
832.744	24407
832.883	24422
833.022	24467
833.16	24574
833.299	24509
833.437	24532
833.576	24509
833.714	24700
833.852	24486
833.991	24547
834.129	24582
834.267	24654
834.406	24544
834.544	24597
834.682	24559
834.821	24509
834.959	24757
835.097	24410
835.235	24540
835.373	24646
835.511	24437
835.65	24391
835.788	24467
835.926	24304
836.064	24148
836.202	24186
836.34	24277
836.478	24452
836.615	24323
836.753	24399
836.891	24426
837.029	24414
837.167	24395
837.305	24304
837.443	24205
837.58	24258
837.718	24372
837.856	24270
837.993	24144
838.131	24235
838.269	24152
838.406	24152
838.544	23996
838.681	23977
838.819	23813
838.956	23589
839.094	23741
839.231	23863
839.369	23828
839.506	24034
839.643	23946
839.781	23760
839.918	23615
840.055	23649
840.193	23672
840.33	23512
840.467	23668
840.604	23653
840.742	23851
840.879	23478
841.016	23589
841.153	23474
841.29	23733
841.427	23570
841.564	23623
841.701	23558
841.838	23547
841.975	23551
842.112	23535
842.249	23398
842.385	23334
842.522	23467
842.659	23368
842.796	23341
842.933	23376
843.069	23406
843.206	23376
843.343	23398
843.479	23345
843.616	23383
843.752	23136
843.889	23044
844.025	23349
844.162	23121
844.298	23284
844.435	23105
844.571	23174
844.708	23132
844.844	23299
844.98	23311
845.117	23162
845.253	23048
845.389	22949
845.525	23048
845.661	22934
845.798	23018
845.934	22919
846.07	22968
846.206	22927
846.342	22938
846.478	22885
846.614	22664
846.75	22611
846.886	22481
847.022	22561
847.158	22592
847.294	22588
847.429	22615
847.565	22538
847.701	22771
847.837	22379
847.972	22295
848.108	22417
848.244	22360
848.379	22287
848.515	22265
848.65	22101
848.786	22162
848.921	22352
849.057	22344
849.192	22207
849.328	22169
849.463	22139
849.598	22181
849.734	22074
849.869	22010
850.004	21804
850.14	21892
850.275	22006
850.41	21903
850.545	21869
850.68	22013
850.815	21998
850.95	21922
851.085	22090
851.22	22017
851.355	22025
851.49	21949
851.625	22013
851.76	21857
851.895	21918
852.03	21903
852.165	22006
852.299	22063
852.434	21964
852.569	22010
852.703	21964
852.838	22021
852.973	22131
853.107	22021
853.242	21918
853.376	21816
853.511	21709
853.645	21819
853.78	21819
853.914	21762
854.048	21819
854.183	21728
854.317	21819
854.451	22063
854.585	21861
854.72	21766
854.854	21857
854.988	21766
855.122	21835
855.256	21667
855.39	21759
855.524	21915
855.658	21838
855.792	21835
855.926	21850
856.06	21934
856.194	21899
856.327	21770
856.461	21808
856.595	21747
856.729	21717
856.862	21800
856.996	21842
857.13	21720
857.263	21949
857.397	21888
857.53	21774
857.664	21949
857.797	21827
857.931	21895
858.064	21934
858.197	21759
858.331	21701
858.464	21656
858.597	21717
858.731	21739
858.864	21888
858.997	21698
859.13	21736
859.263	21823
859.396	21892
859.529	21884
859.662	21701
859.795	21717
859.928	21789
860.061	21991
860.194	22074
860.327	21789
860.46	21808
860.592	21937
860.725	21975
860.858	21854
860.99	21888
861.123	21709
861.256	21778
861.388	21823
861.521	22421
861.653	21663
861.786	21625
861.918	21557
862.05	21675
862.183	21675
862.315	21720
862.447	21762
862.58	21728
862.712	21603
862.844	21492
862.976	21622
863.108	21526
863.24	22105
863.372	21450
863.504	21549
863.636	21496
863.768	21496
863.9	21553
864.032	21530
864.164	21412
864.296	21485
864.428	21576
864.559	21511
864.691	21671
864.823	21458
864.954	21519
865.086	21348
865.217	21492
865.349	21256
865.48	21351
865.612	21435
865.743	21606
865.875	21431
866.006	21401
866.137	21435
866.269	21344
866.4	21431
866.531	21329
866.662	21256
866.793	21416
866.924	21222
867.055	21344
867.186	21351
867.317	21291
867.448	21233
867.579	21435
867.71	21287
867.841	21199
867.972	21283
868.103	21348
868.233	21317
868.364	21214
868.495	21351
868.625	21469
868.756	21686
868.886	21488
869.017	21557
869.147	21728
869.278	21564
869.408	21572
869.539	21519
869.669	21591
869.799	21625
869.929	21583
870.06	21732
870.19	21895
870.32	21892
870.45	22006
870.58	21918
870.71	22090
870.84	22006
870.97	21956
871.1	21918
871.23	22131
871.36	22063
871.489	22112
871.619	22059
871.749	22112
871.879	22124
872.008	22333
872.138	22139
872.267	22204
872.397	21934
872.526	22032
872.656	22147
872.785	22013
872.915	22284
873.044	22181
873.173	22158
873.303	22276
873.432	22329
873.561	22306
873.69	22162
873.819	22249
873.948	22188
874.077	22192
874.206	22093
874.335	22303
874.464	22405
874.593	22489
874.722	22508
874.851	22436
874.979	22462
875.108	22565
875.237	22379
875.365	22363
875.494	22341
875.623	22390
875.751	22390
875.88	22557
876.008	22607
876.136	22691
876.265	22854
876.393	22847
876.521	22831
876.65	22999
876.778	22809
876.906	22763
877.034	22824
877.162	22702
877.29	22771
877.418	22911
877.546	22923
877.674	22927
877.802	22831
877.93	22786
878.058	22793
878.185	22641
878.313	22721
878.441	22805
878.568	22596
878.696	22786
878.824	22809
878.951	22919
879.079	22961
879.206	23025
879.333	23006
879.461	22771
879.588	22942
879.715	22896
879.842	22995
879.97	22835
880.097	22615
880.224	22694
880.351	22626
880.478	22683
880.605	22417
880.732	22615
880.859	22809
880.986	22466
881.112	22557
881.239	22599
881.366	22272
881.493	22234
881.619	22223
881.746	22112
881.872	22242
881.999	22188
882.125	22131
882.252	22124
882.378	22101
882.505	22211
882.631	22120
882.757	21945
882.883	22006
883.01	21781
883.136	21663
883.262	21694
883.388	21618
883.514	21857
883.64	21930
883.766	21717
883.892	21629
884.018	21732
884.143	21728
884.269	21842
884.395	21572
884.52	21492
884.646	21576
884.772	21317
884.897	21336
885.023	21420
885.148	21450
885.274	21679
885.399	21534
885.524	21481
885.65	21450
885.775	21450
885.9	21431
886.025	21507
886.15	21576
886.275	21424
886.4	21256
886.525	21534
886.65	21363
886.775	21397
886.9	21454
887.025	21576
887.149	21443
887.274	21275
887.399	21313
887.523	21294
887.648	21180
887.773	21161
887.897	21389
888.021	21325
888.146	21252
888.27	21481
888.395	21268
888.519	21184
888.643	21199
888.767	21310
888.891	21093
889.015	21089
889.139	21146
889.263	20998
889.387	21161
889.511	21313
889.635	21230
889.759	21024
889.883	21055
890.006	21203
890.13	21188
890.254	20853
890.377	20838
890.501	20826
890.624	20716
890.748	20811
890.871	20754
890.995	20533
891.118	20514
891.241	20663
891.364	20629
891.488	20788
891.611	20750
891.734	20640
891.857	20651
891.98	20556
892.103	20556
892.226	20625
892.349	20495
892.471	20480
892.594	20530
892.717	20537
892.839	20507
892.962	20495
893.085	20526
893.207	20545
893.33	20324
893.452	20457
893.575	20579
893.697	20575
893.819	20651
893.941	20705
894.064	20537
894.186	20423
894.308	20476
894.43	20492
894.552	20644
894.674	20541
894.796	20377
894.918	20423
895.04	20461
895.161	20518
895.283	20537
895.405	20355
895.526	20621
895.648	20530
895.769	20552
895.891	20530
896.012	20606
896.134	20454
896.255	20514
896.376	20385
896.498	20549
896.619	20556
896.74	20465
896.861	20602
896.982	20826
897.103	20910
897.224	20746
897.345	20659
897.466	20640
897.587	20636
897.708	20659
897.828	20762
897.949	20609
898.07	20568
898.19	20587
898.311	20864
898.431	20731
898.552	20602
898.672	20845
898.792	20667
898.913	20845
899.033	20750
899.153	20484
899.273	20278
899.393	20457
899.513	20461
899.633	20362
899.753	20415
899.873	20229
899.993	20522
900.113	20438
900.232	20412
900.352	20366
900.472	20233
900.591	20202
900.711	20130
900.83	20153
900.95	20278
901.069	20202
901.189	20100
901.308	19928
901.427	19742
901.546	19879
901.665	19708
901.784	19742
901.904	19772
902.023	19487
902.141	19388
902.26	19457
902.379	19354
902.498	19293
902.617	19293
902.735	19384
902.854	19236
902.973	19225
903.091	19000
903.21	19038
903.328	18924
903.446	18886
903.565	18829
903.683	18844
903.801	18627
903.919	18764
904.038	18776
904.156	18589
904.274	18650
904.392	18593
904.51	18506
904.627	18544
904.745	18551
904.863	18612
904.981	18376
905.098	18216
905.216	18220
905.334	18251
905.451	18262
905.569	18197
905.686	18205
905.803	18228
905.921	17950
906.038	18171
906.155	17977
906.272	17920
906.389	18003
906.506	17813
906.623	17714
906.74	17710
906.857	17558
906.974	17623
907.091	17729
907.208	17741
907.324	17680
907.441	17657
907.557	17501
907.674	17440
907.79	17288
907.907	17387
908.023	17429
908.139	17474
908.256	17356
908.372	17292
908.488	17258
908.604	17220
908.72	17086
908.836	17162
908.952	17261
909.068	17204
909.184	17189
909.3	17102
909.415	17189
909.531	17060
909.647	16889
909.762	16873
909.878	16850
909.993	16987
910.108	16858
910.224	16873
910.339	16908
910.454	16786
910.57	16660
910.685	16588
910.8	16942
910.915	16862
911.03	16630
911.145	16497
911.259	16432
911.374	16462
911.489	16478
911.604	16284
911.718	16162
911.833	16223
911.947	16067
912.062	16025
912.176	16154
912.291	16124
912.405	16207
912.519	16402
912.633	16421
912.748	16246
912.862	16257
912.976	16002
913.09	15918
913.204	15922
913.318	16029
913.431	16181
913.545	16082
913.659	16147
913.772	15964
913.886	15945
914	15785
914.113	15892
914.226	15918
914.34	15892
914.453	15682
914.566	15926
914.68	15732
914.793	15759
914.906	15481
915.019	15378
915.132	15351
915.245	15401
915.358	15393
915.47	15363
915.583	15424
915.696	15477
915.809	15435
915.921	15450
916.034	15344
916.146	15302
916.259	15272
916.371	15405
916.483	15302
916.595	15214
916.708	15241
916.82	15249
916.932	15287
917.044	15241
917.156	15154
917.268	15024
917.38	15081
917.491	15020
917.603	15066
917.715	15032
917.826	15104
917.938	15047
918.049	14796
918.161	15039
918.272	15131
918.384	15112
918.495	15081
918.606	14838
918.717	14788
918.828	14925
918.939	14826
919.05	14693
919.161	14724
919.272	14632
919.383	14598
919.494	14941
919.604	15036
919.715	14746
919.826	14701
919.936	14773
920.047	14891
920.157	14758
920.267	15005
920.378	14845
920.488	14705
920.598	14845
920.708	14975
920.818	14826
920.928	14963
921.038	14914
921.148	15009
921.258	14746
921.368	14606
921.477	14617
921.587	14465
921.697	14317
921.806	14480
921.916	14286
922.025	14180
922.134	14164
922.244	14077
922.353	14199
922.462	14088
922.571	13955
922.68	13898
922.789	13750
922.898	13780
923.007	13731
923.116	13868
923.224	13780
923.333	13765
923.442	13639
923.55	13620
923.659	13651
923.767	13723
923.876	13502
923.984	13655
924.092	13434
924.201	13510
924.309	13563
924.417	13529
924.525	13434
924.633	13445
924.741	14233
924.849	13240
924.956	13350
925.064	13289
925.172	13244
925.279	13126
925.387	13160
925.494	13149
925.602	13297
925.709	13137
925.816	13110
925.924	13072
926.031	13221
926.138	13088
926.245	13206
926.352	13072
926.459	13072
926.566	13183
926.673	13034
926.779	12916
926.886	12886
926.993	12806
927.099	12703
927.206	12646
927.312	12593
927.419	12760
927.525	12700
927.631	12749
927.737	12654
927.843	12536
927.95	12452
928.056	12528
928.162	12642
928.267	12551
928.373	13217
928.479	12604
928.585	12403
928.69	12429
928.796	12563
928.901	12395
929.007	12365
929.112	12460
929.218	12327
929.323	12239
929.428	12239
929.533	12391
929.638	12129
929.743	12285
929.848	12285
929.953	12285
930.058	12095
930.163	11923
930.267	12026
930.372	12068
930.477	11882
930.581	12098
930.685	12026
930.79	11767
930.894	11958
930.998	11851
931.103	11912
931.207	11570
931.311	11528
931.415	11512
931.519	11261
931.623	11185
