Data from test_V78500241_1499.txt Node
Date: Fri Mar 25 15:52:11 CST 2022
User: usil
Spectrometer: V785-0024
Trigger mode: 0
Integration Time (sec): 4.000000E-1
Scans to average: 1
Nonlinearity correction enabled: false
Boxcar width: 0
Storing dark spectrum: false
XAxis mode: Wavelengths
Number of Pixels in Spectrum: 1024
>>>>>Begin Spectral Data<<<<<
801.071	28078
801.214	28002
801.356	27625
801.499	27690
801.641	27545
801.783	27652
801.926	27564
802.068	27591
802.211	27504
802.353	27427
802.496	27306
802.638	27203
802.78	27116
802.923	27009
803.065	26971
803.208	27077
803.35	27298
803.492	27249
803.635	27447
803.777	27226
803.919	27469
804.061	27667
804.204	27313
804.346	27405
804.488	27306
804.63	27420
804.773	27374
804.915	27469
805.057	27568
805.199	27462
805.341	27458
805.483	27568
805.626	27545
805.768	27542
805.91	27496
806.052	27485
806.194	27397
806.336	27682
806.478	27511
806.62	27618
806.762	27660
806.904	27736
807.046	28090
807.188	28013
807.33	27987
807.472	28010
807.614	27846
807.756	27983
807.898	27899
808.04	27800
808.182	27736
808.324	27850
808.465	27930
808.607	28181
808.749	28097
808.891	28375
809.033	28455
809.174	28150
809.316	28082
809.458	28226
809.6	28162
809.741	28348
809.883	28314
810.025	28580
810.166	28516
810.308	28421
810.45	28478
810.591	28333
810.733	28386
810.875	28192
811.016	28051
811.158	27937
811.299	28158
811.441	28481
811.582	28314
811.724	28109
811.865	28196
812.007	28166
812.148	28070
812.29	28253
812.431	28409
812.573	28462
812.714	28580
812.855	28653
812.997	28790
813.138	28927
813.279	28755
813.421	28702
813.562	28698
813.703	28474
813.845	28550
813.986	28265
814.127	27998
814.268	27991
814.41	28006
814.551	27869
814.692	27934
814.833	27804
814.974	27785
815.115	27873
815.256	27812
815.397	27774
815.539	27766
815.68	27485
815.821	27599
815.962	27587
816.103	27785
816.244	27545
816.385	27382
816.526	27408
816.666	27348
816.807	27077
816.948	27325
817.089	27222
817.23	27180
817.371	27252
817.512	27195
817.653	27192
817.793	27207
817.934	27104
818.075	27154
818.216	27184
818.356	27169
818.497	27036
818.638	27024
818.778	26975
818.919	26952
819.06	27017
819.2	27028
819.341	27424
819.481	27116
819.622	27226
819.762	27610
819.903	27496
820.043	27298
820.184	27195
820.324	27188
820.465	27313
820.605	27313
820.746	27283
820.886	27043
821.026	27287
821.167	27142
821.307	27443
821.447	27169
821.588	27085
821.728	27043
821.868	26891
822.008	26697
822.149	26648
822.289	26571
822.429	26393
822.569	26377
822.709	26355
822.849	26195
822.99	26164
823.13	26157
823.27	26031
823.41	26062
823.55	26001
823.69	25966
823.83	25974
823.97	25974
824.11	25784
824.25	25677
824.389	25868
824.529	25955
824.669	25841
824.809	25765
824.949	25997
825.089	25936
825.228	25852
825.368	25658
825.508	25715
825.648	25647
825.787	25788
825.927	25628
826.067	25662
826.206	25624
826.346	25681
826.485	25845
826.625	25681
826.765	25772
826.904	25696
827.044	25548
827.183	25434
827.323	25472
827.462	25362
827.601	25293
827.741	25263
827.88	25331
828.02	25274
828.159	25354
828.298	25301
828.437	25495
828.577	25251
828.716	25487
828.855	25362
828.994	25198
829.134	25088
829.273	25160
829.412	24970
829.551	24981
829.69	24935
829.829	25118
829.968	25171
830.107	25065
830.246	25091
830.385	25027
830.524	25023
830.663	25084
830.802	24817
830.941	24779
831.08	24726
831.219	24669
831.357	24715
831.496	24913
831.635	24593
831.774	24585
831.913	24551
832.051	24604
832.19	24448
832.329	24559
832.467	24342
832.606	24277
832.744	24300
832.883	24292
833.022	24418
833.16	24399
833.299	24369
833.437	24521
833.576	24338
833.714	24327
833.852	24426
833.991	24452
834.129	24505
834.267	24585
834.406	24422
834.544	24498
834.682	24372
834.821	24391
834.959	24612
835.097	24197
835.235	24505
835.373	24319
835.511	24330
835.65	24213
835.788	24243
835.926	24171
836.064	24030
836.202	24098
836.34	24365
836.478	24342
836.615	24319
836.753	24220
836.891	24178
837.029	24262
837.167	24220
837.305	24102
837.443	24216
837.58	24068
837.718	24201
837.856	24201
837.993	24015
838.131	24079
838.269	23863
838.406	23965
838.544	23836
838.681	23760
838.819	23760
838.956	23467
839.094	23691
839.231	23566
839.369	23737
839.506	23992
839.643	23836
839.781	23634
839.918	23493
840.055	23524
840.193	23577
840.33	23474
840.467	23531
840.604	23551
840.742	23718
840.879	23231
841.016	23296
841.153	23364
841.29	23585
841.427	23334
841.564	23440
841.701	23486
841.838	23490
841.975	23334
842.112	23368
842.249	23322
842.385	23178
842.522	23433
842.659	23379
842.796	23288
842.933	23227
843.069	23140
843.206	23223
843.343	23311
843.479	23235
843.616	23113
843.752	23109
843.889	23025
844.025	23216
844.162	22972
844.298	23056
844.435	22953
844.571	22957
844.708	22961
844.844	23246
844.98	23280
845.117	23121
845.253	23052
845.389	22812
845.525	22911
845.661	22892
845.798	22740
845.934	22763
846.07	22717
846.206	22755
846.342	22782
846.478	22687
846.614	22596
846.75	22409
846.886	22405
847.022	22565
847.158	22447
847.294	22649
847.429	22523
847.565	22367
847.701	22717
847.837	22185
847.972	22166
848.108	22386
848.244	22215
848.379	22025
848.515	22093
848.65	22040
848.786	22093
848.921	21964
849.057	22120
849.192	22048
849.328	22074
849.463	22120
849.598	22013
849.734	21869
849.869	21934
850.004	21937
850.14	21873
850.275	21842
850.41	21846
850.545	21789
850.68	21827
850.815	21960
850.95	21781
851.085	22021
851.22	21907
851.355	21789
851.49	21789
851.625	21781
851.76	21690
851.895	21789
852.03	21827
852.165	21804
852.299	21808
852.434	21857
852.569	21838
852.703	21812
852.838	21907
852.973	21846
853.107	22002
853.242	21751
853.376	21720
853.511	21534
853.645	21618
853.78	21705
853.914	21629
854.048	21595
854.183	21576
854.317	21587
854.451	21857
854.585	21648
854.72	21663
854.854	21774
854.988	21492
855.122	21660
855.256	21629
855.39	21599
855.524	21793
855.658	21694
855.792	21701
855.926	21720
856.06	21720
856.194	21679
856.327	21583
856.461	21523
856.595	21564
856.729	21507
856.862	21698
856.996	21648
857.13	21717
857.263	21618
857.397	21778
857.53	21572
857.664	21705
857.797	21876
857.931	21709
858.064	21686
858.197	21736
858.331	21648
858.464	21564
858.597	21591
858.731	21538
858.864	21690
858.997	21595
859.13	21679
859.263	21568
859.396	21812
859.529	21675
859.662	21587
859.795	21633
859.928	21629
860.061	21804
860.194	21793
860.327	21656
860.46	21857
860.592	21728
860.725	21869
860.858	21743
860.99	21583
861.123	21553
861.256	21534
861.388	21568
861.521	22261
861.653	21557
861.786	21359
861.918	21618
862.05	21538
862.183	21553
862.315	21580
862.447	21682
862.58	21454
862.712	21435
862.844	21374
862.976	21481
863.108	21348
863.24	21850
863.372	21218
863.504	21408
863.636	21321
863.768	21325
863.9	21218
864.032	21291
864.164	21241
864.296	21249
864.428	21477
864.559	21477
864.691	21492
864.823	21431
864.954	21245
865.086	21317
865.217	21150
865.349	21241
865.48	21173
865.612	21370
865.743	21321
865.875	21302
866.006	21230
866.137	21279
866.269	21237
866.4	21058
866.531	21237
866.662	21112
866.793	21123
866.924	21112
867.055	21272
867.186	21161
867.317	21252
867.448	21009
867.579	21096
867.71	21173
867.841	20998
867.972	21085
868.103	21287
868.233	21344
868.364	21306
868.495	21329
868.625	21397
868.756	21530
868.886	21424
869.017	21462
869.147	21534
869.278	21610
869.408	21511
869.539	21378
869.669	21603
869.799	21462
869.929	21515
870.06	21496
870.19	21804
870.32	21720
870.45	21774
870.58	21842
870.71	21850
870.84	21926
870.97	21812
871.1	21842
871.23	21979
871.36	22010
871.489	21888
871.619	21960
871.749	21922
871.879	22059
872.008	22090
872.138	21983
872.267	21949
872.397	21953
872.526	21770
872.656	21831
872.785	21842
872.915	21953
873.044	22055
873.173	22025
873.303	22029
873.432	22097
873.561	22109
873.69	22063
873.819	22112
873.948	22063
874.077	21975
874.206	22010
874.335	22044
874.464	22204
874.593	22363
874.722	22215
874.851	22249
874.979	22246
875.108	22268
875.237	22238
875.365	22150
875.494	22200
875.623	22318
875.751	22249
875.88	22261
876.008	22272
876.136	22295
876.265	22744
876.393	22664
876.521	22577
876.65	22630
876.778	22710
876.906	22535
877.034	22599
877.162	22493
877.29	22462
877.418	22485
877.546	22683
877.674	22478
877.802	22535
877.93	22634
878.058	22592
878.185	22348
878.313	22607
878.441	22679
878.568	22386
878.696	22592
878.824	22592
878.951	22645
879.079	22694
879.206	22812
879.333	22752
879.461	22687
879.588	22763
879.715	22847
879.842	22759
879.97	22634
880.097	22428
880.224	22318
880.351	22424
880.478	22508
880.605	22417
880.732	22394
880.859	22615
880.986	22379
881.112	22405
881.239	22459
881.366	22177
881.493	22040
881.619	21979
881.746	21998
881.872	22006
881.999	21987
882.125	21869
882.252	21998
882.378	21915
882.505	22154
882.631	21972
882.757	21622
882.883	21812
883.01	21583
883.136	21530
883.262	21538
883.388	21378
883.514	21663
883.64	21652
883.766	21671
883.892	21447
884.018	21443
884.143	21591
884.269	21724
884.395	21488
884.52	21310
884.646	21447
884.772	21260
884.897	21062
885.023	21458
885.148	21439
885.274	21534
885.399	21370
885.524	21435
885.65	21291
885.775	21370
885.9	21252
886.025	21469
886.15	21462
886.275	21211
886.4	21199
886.525	21332
886.65	21298
886.775	21195
886.9	21306
887.025	21553
887.149	21401
887.274	21066
887.399	21066
887.523	21100
887.648	20986
887.773	20948
887.897	21188
888.021	21176
888.146	21070
888.27	21199
888.395	21165
888.519	21184
888.643	21214
888.767	21192
888.891	21036
889.015	20902
889.139	20956
889.263	20910
889.387	21028
889.511	21093
889.635	21116
889.759	20834
889.883	20914
890.006	20815
890.13	21047
890.254	20941
890.377	20750
890.501	20644
890.624	20613
890.748	20659
890.871	20590
890.995	20552
891.118	20438
891.241	20560
891.364	20518
891.488	20609
891.611	20396
891.734	20568
891.857	20442
891.98	20545
892.103	20556
892.226	20434
892.349	20522
892.471	20294
892.594	20431
892.717	20454
892.839	20347
892.962	20347
893.085	20438
893.207	20438
893.33	20275
893.452	20381
893.575	20480
893.697	20343
893.819	20427
893.941	20575
894.064	20480
894.186	20218
894.308	20153
894.43	20434
894.552	20530
894.674	20438
894.796	20305
894.918	20488
895.04	20343
895.161	20488
895.283	20503
895.405	20237
895.526	20446
895.648	20469
895.769	20343
895.891	20408
896.012	20514
896.134	20454
896.255	20415
896.376	20370
896.498	20412
896.619	20438
896.74	20313
896.861	20484
896.982	20720
897.103	20792
897.224	20663
897.345	20743
897.466	20545
897.587	20560
897.708	20648
897.828	20621
897.949	20568
898.07	20374
898.19	20598
898.311	20651
898.431	20480
898.552	20507
898.672	20697
898.792	20697
898.913	20583
899.033	20594
899.153	20423
899.273	20256
899.393	20396
899.513	20332
899.633	20423
899.753	20301
899.873	20206
899.993	20351
900.113	20309
900.232	20324
900.352	20324
900.472	20221
900.591	20031
900.711	20073
900.83	20096
900.95	20191
901.069	20210
901.189	20008
901.308	19826
901.427	19674
901.546	19662
901.665	19670
901.784	19727
901.904	19537
902.023	19525
902.141	19270
902.26	19217
902.379	19274
902.498	19247
902.617	19160
902.735	19369
902.854	19183
902.973	19107
903.091	18878
903.21	18924
903.328	18859
903.446	18745
903.565	18703
903.683	18559
903.801	18544
903.919	18616
904.038	18635
904.156	18414
904.274	18464
904.392	18410
904.51	18490
904.627	18467
904.745	18445
904.863	18490
904.981	18258
905.098	18121
905.216	18091
905.334	18209
905.451	18072
905.569	18091
905.686	18178
905.803	18133
905.921	17836
906.038	18045
906.155	17999
906.272	17836
906.389	17699
906.506	17699
906.623	17646
906.74	17646
906.857	17554
906.974	17493
907.091	17718
907.208	17802
907.324	17570
907.441	17573
907.557	17463
907.674	17364
907.79	17326
907.907	17334
908.023	17463
908.139	17372
908.256	17307
908.372	17223
908.488	17212
908.604	17113
908.72	17079
908.836	17075
908.952	17033
909.068	17067
909.184	17159
909.3	17064
909.415	17067
909.531	17136
909.647	16820
909.762	16805
909.878	16858
909.993	16790
910.108	16596
910.224	16748
910.339	16835
910.454	16641
910.57	16717
910.685	16618
910.8	16831
910.915	16729
911.03	16596
911.145	16478
911.259	16440
911.374	16485
911.489	16428
911.604	16344
911.718	16128
911.833	16093
911.947	16082
912.062	15888
912.176	16192
912.291	16112
912.405	16109
912.519	16276
912.633	16261
912.748	16128
912.862	16162
912.976	15876
913.09	15739
913.204	15880
913.318	16040
913.431	16048
913.545	16006
913.659	16071
913.772	15827
913.886	15800
914	15660
914.113	15865
914.226	15850
914.34	15823
914.453	15633
914.566	15743
914.68	15679
914.793	15648
914.906	15424
915.019	15283
915.132	15275
915.245	15291
915.358	15317
915.47	15378
915.583	15378
915.696	15359
915.809	15534
915.921	15504
916.034	15116
916.146	15272
916.259	15199
916.371	15344
916.483	15279
916.595	15188
916.708	15195
916.82	15081
916.932	15135
917.044	15039
917.156	15150
917.268	15036
917.38	14967
917.491	15028
917.603	15020
917.715	14975
917.826	15013
917.938	14971
918.049	14845
918.161	14944
918.272	15081
918.384	15085
918.495	14895
918.606	14762
918.717	14659
918.828	14651
918.939	14743
919.05	14556
919.161	14648
919.272	14434
919.383	14575
919.494	14705
919.604	14872
919.715	14735
919.826	14735
919.936	14686
920.047	14754
920.157	14727
920.267	14788
920.378	14720
920.488	14644
920.598	14811
920.708	15051
920.818	14838
920.928	14815
921.038	14971
921.148	14899
921.258	14739
921.368	14488
921.477	14564
921.587	14419
921.697	14233
921.806	14343
921.916	14339
922.025	14130
922.134	14218
922.244	13982
922.353	14062
922.462	13936
922.571	13890
922.68	13746
922.789	13647
922.898	13765
923.007	13616
923.116	13799
923.224	13677
923.333	13681
923.442	13658
923.55	13510
923.659	13620
923.767	13601
923.876	13464
923.984	13552
924.092	13396
924.201	13483
924.309	13468
924.417	13415
924.525	13365
924.633	13369
924.741	14267
924.849	13179
924.956	13263
925.064	13190
925.172	13004
925.279	13122
925.387	13103
925.494	13088
925.602	13259
925.709	13080
925.816	13099
925.924	13118
926.031	13145
926.138	13118
926.245	13053
926.352	12970
926.459	13069
926.566	13221
926.673	12989
926.779	12882
926.886	12875
926.993	12696
927.099	12673
927.206	12566
927.312	12551
927.419	12688
927.525	12646
927.631	12665
927.737	12506
927.843	12479
927.95	12399
928.056	12566
928.162	12464
928.267	12620
928.373	13099
928.479	12593
928.585	12464
928.69	12422
928.796	12540
928.901	12403
929.007	12216
929.112	12292
929.218	12342
929.323	12270
929.428	12213
929.533	12346
929.638	12148
929.743	12171
929.848	12247
929.953	12197
930.058	12053
930.163	11863
930.267	11939
930.372	12053
930.477	11889
930.581	12072
930.685	11965
930.79	11870
930.894	11866
930.998	11760
931.103	11927
931.207	11486
931.311	11471
931.415	11356
931.519	11242
931.623	11170
