Data from test_V78500241_1553.txt Node
Date: Fri Mar 25 15:52:33 CST 2022
User: usil
Spectrometer: V785-0024
Trigger mode: 0
Integration Time (sec): 4.000000E-1
Scans to average: 1
Nonlinearity correction enabled: false
Boxcar width: 0
Storing dark spectrum: false
XAxis mode: Wavelengths
Number of Pixels in Spectrum: 1024
>>>>>Begin Spectral Data<<<<<
801.071	27819
801.214	27701
801.356	27599
801.499	27416
801.641	27260
801.783	27458
801.926	27431
802.068	27496
802.211	27272
802.353	27173
802.496	27047
802.638	26925
802.78	27001
802.923	26929
803.065	26940
803.208	26864
803.35	26994
803.492	27039
803.635	27154
803.777	26994
803.919	27085
804.061	27507
804.204	27355
804.346	27096
804.488	27066
804.63	27123
804.773	27039
804.915	27142
805.057	27291
805.199	27108
805.341	27272
805.483	27500
805.626	27306
805.768	27237
805.91	27359
806.052	27294
806.194	27218
806.336	27427
806.478	27233
806.62	27386
806.762	27416
806.904	27568
807.046	28006
807.188	27762
807.33	27648
807.472	27770
807.614	27717
807.756	27614
807.898	27625
808.04	27625
808.182	27500
808.324	27447
808.465	27766
808.607	27831
808.749	27945
808.891	28109
809.033	28150
809.174	28177
809.316	27972
809.458	27968
809.6	28036
809.741	28070
809.883	28158
810.025	28147
810.166	28185
810.308	28169
810.45	28257
810.591	28166
810.733	27991
810.875	27956
811.016	27888
811.158	27812
811.299	28124
811.441	27975
811.582	27987
811.724	27960
811.865	27880
812.007	27835
812.148	27850
812.29	27911
812.431	28105
812.573	28120
812.714	28249
812.855	28440
812.997	28504
813.138	28805
813.279	28645
813.421	28512
813.562	28352
813.703	28185
813.845	28185
813.986	27930
814.127	27713
814.268	27713
814.41	27720
814.551	27595
814.692	27720
814.833	27656
814.974	27534
815.115	27542
815.256	27367
815.397	27526
815.539	27492
815.68	27405
815.821	27264
815.962	27298
816.103	27393
816.244	27256
816.385	27214
816.526	27272
816.666	26906
816.807	26876
816.948	27005
817.089	27013
817.23	26948
817.371	26921
817.512	26830
817.653	26921
817.793	26864
817.934	26765
818.075	26891
818.216	26880
818.356	26697
818.497	26697
818.638	26674
818.778	26522
818.919	26708
819.06	26819
819.2	26800
819.341	26720
819.481	26800
819.622	26929
819.762	27146
819.903	27241
820.043	27173
820.184	26944
820.324	27036
820.465	27195
820.605	27077
820.746	26853
820.886	26880
821.026	26986
821.167	26937
821.307	27066
821.447	26842
821.588	26724
821.728	26727
821.868	26514
822.008	26343
822.149	26298
822.289	26434
822.429	26062
822.569	26077
822.709	26115
822.849	25811
822.99	25856
823.13	25799
823.27	25788
823.41	25845
823.55	25594
823.69	25651
823.83	25776
823.97	25727
824.11	25419
824.25	25468
824.389	25499
824.529	25510
824.669	25594
824.809	25609
824.949	25514
825.089	25525
825.228	25540
825.368	25354
825.508	25449
825.648	25415
825.787	25396
825.927	25327
826.067	25388
826.206	25422
826.346	25415
826.485	25438
826.625	25259
826.765	25441
826.904	25491
827.044	25198
827.183	25118
827.323	25046
827.462	25209
827.601	24977
827.741	25168
827.88	25110
828.02	25000
828.159	25122
828.298	25038
828.437	25240
828.577	25042
828.716	25331
828.855	25091
828.994	24821
829.134	24856
829.273	24882
829.412	24814
829.551	24817
829.69	24730
829.829	24749
829.968	24772
830.107	24932
830.246	24745
830.385	24707
830.524	24741
830.663	24528
830.802	24517
830.941	24540
831.08	24334
831.219	24357
831.357	24433
831.496	24627
831.635	24304
831.774	24395
831.913	24213
832.051	24201
832.19	24232
832.329	24300
832.467	24018
832.606	24057
832.744	24011
832.883	24102
833.022	24060
833.16	24015
833.299	24083
833.437	24095
833.576	24038
833.714	24121
833.852	24251
833.991	24251
834.129	24213
834.267	24258
834.406	24030
834.544	24117
834.682	24178
834.821	24110
834.959	24292
835.097	23935
835.235	24155
835.373	24155
835.511	24079
835.65	23961
835.788	24076
835.926	23813
836.064	23798
836.202	23779
836.34	23973
836.478	24152
836.615	23931
836.753	23927
836.891	23961
837.029	23946
837.167	23904
837.305	23783
837.443	23843
837.58	23756
837.718	23809
837.856	24015
837.993	23824
838.131	23783
838.269	23680
838.406	23710
838.544	23596
838.681	23414
838.819	23482
838.956	23356
839.094	23280
839.231	23284
839.369	23372
839.506	23676
839.643	23436
839.781	23299
839.918	23292
840.055	23223
840.193	23326
840.33	23075
840.467	23181
840.604	23166
840.742	23353
840.879	23109
841.016	23079
841.153	23079
841.29	23353
841.427	23166
841.564	23269
841.701	23193
841.838	23060
841.975	23083
842.112	23147
842.249	22908
842.385	22885
842.522	23193
842.659	23022
842.796	22835
842.933	23033
843.069	22862
843.206	22908
843.343	23041
843.479	22847
843.616	22824
843.752	22748
843.889	22736
844.025	22877
844.162	22653
844.298	22847
844.435	22805
844.571	22767
844.708	22755
844.844	22752
844.98	22919
845.117	22790
845.253	22618
845.389	22588
845.525	22622
845.661	22557
845.798	22451
845.934	22451
846.07	22478
846.206	22554
846.342	22455
846.478	22211
846.614	22196
846.75	22147
846.886	22181
847.022	22124
847.158	22204
847.294	22272
847.429	22185
847.565	22101
847.701	22402
847.837	22048
847.972	21873
848.108	21953
848.244	22010
848.379	21732
848.515	21800
848.65	21660
848.786	21838
848.921	21781
849.057	21915
849.192	21850
849.328	21751
849.463	21713
849.598	21652
849.734	21705
849.869	21717
850.004	21633
850.14	21618
850.275	21515
850.41	21420
850.545	21450
850.68	21458
850.815	21545
850.95	21538
851.085	21690
851.22	21614
851.355	21652
851.49	21500
851.625	21496
851.76	21496
851.895	21500
852.03	21336
852.165	21534
852.299	21637
852.434	21519
852.569	21542
852.703	21504
852.838	21538
852.973	21694
853.107	21682
853.242	21488
853.376	21363
853.511	21294
853.645	21325
853.78	21428
853.914	21393
854.048	21222
854.183	21348
854.317	21336
854.451	21401
854.585	21256
854.72	21435
854.854	21462
854.988	21268
855.122	21306
855.256	21249
855.39	21374
855.524	21340
855.658	21523
855.792	21344
855.926	21477
856.06	21412
856.194	21431
856.327	21332
856.461	21249
856.595	21302
856.729	21340
856.862	21443
856.996	21355
857.13	21500
857.263	21386
857.397	21420
857.53	21329
857.664	21447
857.797	21294
857.931	21450
858.064	21336
858.197	21534
858.331	21306
858.464	21302
858.597	21188
858.731	21287
858.864	21252
858.997	21431
859.13	21332
859.263	21336
859.396	21329
859.529	21310
859.662	21283
859.795	21256
859.928	21310
860.061	21488
860.194	21466
860.327	21412
860.46	21287
860.592	21553
860.725	21625
860.858	21405
860.99	21412
861.123	21279
861.256	21344
861.388	21405
861.521	21899
861.653	21146
861.786	21203
861.918	21169
862.05	21291
862.183	21302
862.315	21321
862.447	21218
862.58	21237
862.712	21043
862.844	21009
862.976	21119
863.108	21058
863.24	21526
863.372	20994
863.504	21017
863.636	20998
863.768	21108
863.9	21028
864.032	21024
864.164	21028
864.296	21039
864.428	21116
864.559	21077
864.691	21093
864.823	21055
864.954	20902
865.086	21028
865.217	20986
865.349	20982
865.48	20952
865.612	21001
865.743	21123
865.875	20971
866.006	20948
866.137	20967
866.269	20944
866.4	20891
866.531	20918
866.662	20906
866.793	20750
866.924	20948
867.055	20944
867.186	20845
867.317	20902
867.448	20883
867.579	20902
867.71	20781
867.841	20708
867.972	20933
868.103	20899
868.233	20948
868.364	20952
868.495	20941
868.625	21195
868.756	21184
868.886	21062
869.017	21161
869.147	21256
869.278	21218
869.408	21055
869.539	21192
869.669	21264
869.799	21180
869.929	21306
870.06	21199
870.19	21431
870.32	21408
870.45	21523
870.58	21519
870.71	21682
870.84	21652
870.97	21564
871.1	21412
871.23	21781
871.36	21770
871.489	21656
871.619	21633
871.749	21751
871.879	21766
872.008	21888
872.138	21690
872.267	21709
872.397	21641
872.526	21477
872.656	21595
872.785	21614
872.915	21739
873.044	21808
873.173	21827
873.303	21865
873.432	21861
873.561	21762
873.69	21644
873.819	21728
873.948	21812
874.077	21816
874.206	21694
874.335	21778
874.464	21800
874.593	21983
874.722	21903
874.851	21911
874.979	21949
875.108	22013
875.237	22040
875.365	21838
875.494	21949
875.623	22139
875.751	21884
875.88	22002
876.008	22032
876.136	22181
876.265	22375
876.393	22504
876.521	22409
876.65	22561
876.778	22455
876.906	22360
877.034	22413
877.162	22329
877.29	22234
877.418	22436
877.546	22265
877.674	22314
877.802	22295
877.93	22447
878.058	22291
878.185	22234
878.313	22242
878.441	22329
878.568	22143
878.696	22394
878.824	22432
878.951	22371
879.079	22584
879.206	22786
879.333	22557
879.461	22325
879.588	22440
879.715	22436
879.842	22519
879.97	22462
880.097	22158
880.224	22074
880.351	22109
880.478	22109
880.605	22097
880.732	22093
880.859	22459
880.986	22131
881.112	22223
881.239	22002
881.366	21956
881.493	21804
881.619	21793
881.746	21766
881.872	21724
881.999	21679
882.125	21663
882.252	21755
882.378	21743
882.505	21743
882.631	21545
882.757	21519
882.883	21405
883.01	21340
883.136	21500
883.262	21233
883.388	21260
883.514	21496
883.64	21237
883.766	21348
883.892	21203
884.018	21165
884.143	21348
884.269	21359
884.395	21188
884.52	21081
884.646	21047
884.772	20872
884.897	20967
885.023	21260
885.148	21192
885.274	21146
885.399	21237
885.524	21077
885.65	21100
885.775	21104
885.9	21043
886.025	21233
886.15	21127
886.275	21039
886.4	21051
886.525	21142
886.65	20910
886.775	20845
886.9	21169
887.025	21313
887.149	20929
887.274	20815
887.399	20765
887.523	20887
887.648	20743
887.773	20746
887.897	20944
888.021	20902
888.146	20750
888.27	20937
888.395	20960
888.519	20861
888.643	20781
888.767	20880
888.891	20724
889.015	20636
889.139	20731
889.263	20648
889.387	20712
889.511	20834
889.635	20773
889.759	20670
889.883	20530
890.006	20731
890.13	20792
890.254	20602
890.377	20583
890.501	20423
890.624	20488
890.748	20461
890.871	20370
890.995	20206
891.118	20305
891.241	20237
891.364	20256
891.488	20332
891.611	20210
891.734	20240
891.857	20313
891.98	20145
892.103	20343
892.226	20256
892.349	20183
892.471	20035
892.594	20111
892.717	20229
892.839	20107
892.962	20134
893.085	20100
893.207	20176
893.33	19986
893.452	20069
893.575	20168
893.697	20107
893.819	20358
893.941	20355
894.064	20290
894.186	20054
894.308	20149
894.43	20176
894.552	20233
894.674	20305
894.796	19955
894.918	20176
895.04	20259
895.161	20339
895.283	20161
895.405	20111
895.526	20244
895.648	20202
895.769	20195
895.891	20153
896.012	20347
896.134	20142
896.255	20103
896.376	20115
896.498	20088
896.619	20100
896.74	20130
896.861	20233
896.982	20518
897.103	20571
897.224	20419
897.345	20301
897.466	20305
897.587	20324
897.708	20438
897.828	20461
897.949	20206
898.07	20164
898.19	20343
898.311	20431
898.431	20446
898.552	20419
898.672	20370
898.792	20419
898.913	20381
899.033	20252
899.153	20164
899.273	20050
899.393	20088
899.513	20172
899.633	20191
899.753	20020
899.873	19932
899.993	20161
900.113	20103
900.232	20084
900.352	20046
900.472	19978
900.591	19955
900.711	19913
900.83	19868
900.95	20084
901.069	20008
901.189	19860
901.308	19639
901.427	19525
901.546	19441
901.665	19430
901.784	19480
901.904	19457
902.023	19187
902.141	19042
902.26	19114
902.379	19088
902.498	18954
902.617	18939
902.735	19122
902.854	19072
902.973	18996
903.091	18719
903.21	18589
903.328	18601
903.446	18623
903.565	18410
903.683	18532
903.801	18369
903.919	18426
904.038	18456
904.156	18338
904.274	18270
904.392	18155
904.51	18216
904.627	18334
904.745	18384
904.863	18365
904.981	17980
905.098	17889
905.216	17904
905.334	17885
905.451	17923
905.569	17958
905.686	17920
905.803	17836
905.921	17733
906.038	17790
906.155	17775
906.272	17676
906.389	17558
906.506	17497
906.623	17577
906.74	17307
906.857	17322
906.974	17307
907.091	17444
907.208	17543
907.324	17516
907.441	17417
907.557	17254
907.674	17197
907.79	17174
907.907	17216
908.023	17258
908.139	17113
908.256	17045
908.372	17052
908.488	17094
908.604	16862
908.72	16854
908.836	16980
908.952	16828
909.068	16980
909.184	16987
909.3	16908
909.415	16965
909.531	16896
909.647	16675
909.762	16691
909.878	16569
909.993	16615
910.108	16554
910.224	16607
910.339	16618
910.454	16512
910.57	16367
910.685	16333
910.8	16519
910.915	16584
911.03	16394
911.145	16154
911.259	16181
911.374	16116
911.489	16131
911.604	16082
911.718	15922
911.833	15934
911.947	15800
912.062	15857
912.176	15987
912.291	16006
912.405	15895
912.519	16124
912.633	16093
912.748	15953
912.862	15918
912.976	15656
913.09	15701
913.204	15793
913.318	15705
913.431	15846
913.545	15812
913.659	15816
913.772	15743
913.886	15576
914	15523
914.113	15663
914.226	15572
914.34	15671
914.453	15405
914.566	15580
914.68	15439
914.793	15363
914.906	15233
915.019	15131
915.132	15241
915.245	15176
915.358	15161
915.47	15066
915.583	15100
915.696	15135
915.809	15260
915.921	15302
916.034	15161
916.146	15028
916.259	15085
916.371	15195
916.483	15119
916.595	14944
916.708	15074
916.82	14971
916.932	14906
917.044	14918
917.156	14986
917.268	14811
917.38	14849
917.491	14796
917.603	14800
917.715	14864
917.826	14849
917.938	14735
918.049	14644
918.161	14689
918.272	14891
918.384	14956
918.495	14735
918.606	14583
918.717	14556
918.828	14610
918.939	14526
919.05	14434
919.161	14587
919.272	14347
919.383	14438
919.494	14602
919.604	14769
919.715	14507
919.826	14537
919.936	14514
920.047	14545
920.157	14583
920.267	14640
920.378	14514
920.488	14476
920.598	14663
920.708	14830
920.818	14617
920.928	14697
921.038	14861
921.148	14758
921.258	14564
921.368	14336
921.477	14301
921.587	14237
921.697	14145
921.806	14381
921.916	14046
922.025	14020
922.134	13978
922.244	13906
922.353	13944
922.462	13807
922.571	13655
922.68	13567
922.789	13605
922.898	13586
923.007	13506
923.116	13620
923.224	13495
923.333	13499
923.442	13502
923.55	13377
923.659	13407
923.767	13388
923.876	13278
923.984	13346
924.092	13209
924.201	13335
924.309	13354
924.417	13297
924.525	13228
924.633	13301
924.741	14233
924.849	12973
924.956	13133
925.064	13061
925.172	12920
925.279	12909
925.387	12867
925.494	12954
925.602	13156
925.709	13038
925.816	12935
925.924	12981
926.031	12966
926.138	12901
926.245	12939
926.352	12768
926.459	12943
926.566	12989
926.673	12814
926.779	12726
926.886	12654
926.993	12654
927.099	12582
927.206	12376
927.312	12395
927.419	12627
927.525	12506
927.631	12532
927.737	12441
927.843	12452
927.95	12239
928.056	12334
928.162	12338
928.267	12403
928.373	12973
928.479	12456
928.585	12117
928.69	12315
928.796	12433
928.901	12220
929.007	12144
929.112	12133
929.218	12270
929.323	12155
929.428	12053
929.533	12197
929.638	11988
929.743	12030
929.848	12068
929.953	11999
930.058	11885
930.163	11737
930.267	11805
930.372	11908
930.477	11672
930.581	11939
930.685	11855
930.79	11657
930.894	11703
930.998	11733
931.103	11760
931.207	11520
931.311	11246
931.415	11193
931.519	11083
931.623	10991
