Data from test_V78500241_980.txt Node
Date: Fri Mar 25 15:48:35 CST 2022
User: usil
Spectrometer: V785-0024
Trigger mode: 0
Integration Time (sec): 4.000000E-1
Scans to average: 1
Nonlinearity correction enabled: false
Boxcar width: 0
Storing dark spectrum: false
XAxis mode: Wavelengths
Number of Pixels in Spectrum: 1024
>>>>>Begin Spectral Data<<<<<
801.071	28580
801.214	28527
801.356	28261
801.499	28268
801.641	28223
801.783	28078
801.926	28177
802.068	28097
802.211	28029
802.353	28051
802.496	27816
802.638	27736
802.78	27895
802.923	27835
803.065	27816
803.208	27892
803.35	27808
803.492	27918
803.635	27983
803.777	27865
803.919	28109
804.061	28352
804.204	28059
804.346	27964
804.488	27968
804.63	27953
804.773	27926
804.915	28177
805.057	28120
805.199	28116
805.341	28246
805.483	28386
805.626	28188
805.768	27956
805.91	28253
806.052	28200
806.194	28086
806.336	28405
806.478	28337
806.62	28344
806.762	28424
806.904	28462
807.046	28774
807.188	28615
807.33	28615
807.472	28626
807.614	28607
807.756	28546
807.898	28702
808.04	28478
808.182	28497
808.324	28702
808.465	28493
808.607	28831
808.749	28774
808.891	28858
809.033	29124
809.174	28877
809.316	28885
809.458	28961
809.6	28873
809.741	29025
809.883	29075
810.025	29204
810.166	29128
810.308	29033
810.45	29216
810.591	29094
810.733	29014
810.875	28995
811.016	28759
811.158	28908
811.299	29086
811.441	29216
811.582	29105
811.724	28904
811.865	28904
812.007	28892
812.148	28980
812.29	28904
812.431	29140
812.573	29197
812.714	29280
812.855	29383
812.997	29547
813.138	29581
813.279	29570
813.421	29509
813.562	29318
813.703	29265
813.845	29086
813.986	28949
814.127	28812
814.268	28523
814.41	28675
814.551	28649
814.692	28557
814.833	28626
814.974	28519
815.115	28653
815.256	28440
815.397	28527
815.539	28584
815.68	28478
815.821	28394
815.962	28550
816.103	28329
816.244	28322
816.385	28310
816.526	28306
816.666	28070
816.807	27934
816.948	28109
817.089	28162
817.23	27922
817.371	27956
817.512	27953
817.653	27975
817.793	27899
817.934	27972
818.075	27979
818.216	27937
818.356	27861
818.497	27800
818.638	27781
818.778	27652
818.919	27755
819.06	27724
819.2	27850
819.341	27888
819.481	27918
819.622	28059
819.762	28090
819.903	28200
820.043	28207
820.184	28074
820.324	28109
820.465	28154
820.605	28040
820.746	28090
820.886	27972
821.026	27934
821.167	27979
821.307	27983
821.447	27987
821.588	27835
821.728	27781
821.868	27583
822.008	27439
822.149	27519
822.289	27408
822.429	27089
822.569	27218
822.709	27131
822.849	26944
822.99	26918
823.13	26902
823.27	26937
823.41	26682
823.55	26549
823.69	26815
823.83	26811
823.97	26659
824.11	26488
824.25	26636
824.389	26480
824.529	26727
824.669	26644
824.809	26670
824.949	26720
825.089	26727
825.228	26568
825.368	26374
825.508	26438
825.648	26450
825.787	26511
825.927	26469
826.067	26476
826.206	26492
826.346	26526
826.485	26564
826.625	26499
826.765	26629
826.904	26480
827.044	26126
827.183	26183
827.323	26149
827.462	26290
827.601	26214
827.741	26142
827.88	26065
828.02	26008
828.159	26073
828.298	26122
828.437	26237
828.577	26180
828.716	26237
828.855	26046
828.994	25822
829.134	25887
829.273	25925
829.412	25864
829.551	25860
829.69	25837
829.829	25898
829.968	26024
830.107	26020
830.246	25849
830.385	25864
830.524	25761
830.663	25594
830.802	25597
830.941	25373
831.08	25400
831.219	25540
831.357	25529
831.496	25715
831.635	25396
831.774	25289
831.913	25381
832.051	25194
832.19	25335
832.329	25335
832.467	25061
832.606	25206
832.744	25114
832.883	25129
833.022	25187
833.16	25129
833.299	25160
833.437	25088
833.576	25282
833.714	25209
833.852	25187
833.991	25419
834.129	25236
834.267	25255
834.406	25225
834.544	25183
834.682	25187
834.821	25244
834.959	25384
835.097	25175
835.235	25145
835.373	25282
835.511	25240
835.65	25069
835.788	25023
835.926	24913
836.064	24787
836.202	24913
836.34	25015
836.478	25198
836.615	25027
836.753	24981
836.891	25031
837.029	25031
837.167	24981
837.305	24833
837.443	24844
837.58	24844
837.718	24932
837.856	24863
837.993	24783
838.131	24848
838.269	24757
838.406	24863
838.544	24650
838.681	24650
838.819	24509
838.956	24209
839.094	24281
839.231	24410
839.369	24509
839.506	24741
839.643	24528
839.781	24262
839.918	24102
840.055	24369
840.193	24247
840.33	24186
840.467	24262
840.604	24300
840.742	24555
840.879	24148
841.016	24076
841.153	24053
841.29	24445
841.427	24369
841.564	24197
841.701	24247
841.838	24152
841.975	24060
842.112	24148
842.249	24049
842.385	23908
842.522	24121
842.659	24030
842.796	23977
842.933	24106
843.069	23923
843.206	24030
843.343	23980
843.479	23984
843.616	23973
843.752	23809
843.889	23680
844.025	23832
844.162	23714
844.298	23748
844.435	23539
844.571	23687
844.708	23851
844.844	23821
844.98	23912
845.117	23836
845.253	23710
845.389	23566
845.525	23676
845.661	23581
845.798	23512
845.934	23497
846.07	23611
846.206	23528
846.342	23668
846.478	23482
846.614	23223
846.75	23094
846.886	23181
847.022	23288
847.158	23303
847.294	23216
847.429	23292
847.565	23212
847.701	23379
847.837	22976
847.972	23014
848.108	22949
848.244	23037
848.379	22942
848.515	22736
848.65	22725
848.786	22820
848.921	22812
849.057	22858
849.192	22835
849.328	22942
849.463	22653
849.598	22877
849.734	22702
849.869	22622
850.004	22573
850.14	22599
850.275	22557
850.41	22607
850.545	22554
850.68	22413
850.815	22634
850.95	22516
851.085	22630
851.22	22755
851.355	22481
851.49	22481
851.625	22519
851.76	22538
851.895	22356
852.03	22481
852.165	22481
852.299	22615
852.434	22592
852.569	22717
852.703	22687
852.838	22550
852.973	22733
853.107	22611
853.242	22573
853.376	22379
853.511	22219
853.645	22348
853.78	22413
853.914	22367
854.048	22360
854.183	22405
854.317	22462
854.451	22550
854.585	22382
854.72	22322
854.854	22447
854.988	22268
855.122	22352
855.256	22242
855.39	22375
855.524	22329
855.658	22356
855.792	22455
855.926	22318
856.06	22352
856.194	22398
856.327	22284
856.461	22280
856.595	22352
856.729	22371
856.862	22489
856.996	22428
857.13	22402
857.263	22409
857.397	22523
857.53	22394
857.664	22413
857.797	22409
857.931	22504
858.064	22314
858.197	22474
858.331	22440
858.464	22337
858.597	22352
858.731	22287
858.864	22303
858.997	22204
859.13	22402
859.263	22310
859.396	22478
859.529	22284
859.662	22322
859.795	22322
859.928	22246
860.061	22485
860.194	22615
860.327	22443
860.46	22253
860.592	22409
860.725	22478
860.858	22504
860.99	22318
861.123	22242
861.256	22215
861.388	22417
861.521	23105
861.653	22207
861.786	22131
861.918	22090
862.05	22185
862.183	22451
862.315	22295
862.447	22405
862.58	22303
862.712	22059
862.844	22055
862.976	22070
863.108	22067
863.24	22455
863.372	22078
863.504	22021
863.636	22082
863.768	22078
863.9	21987
864.032	21850
864.164	21953
864.296	22093
864.428	22150
864.559	22158
864.691	22116
864.823	22112
864.954	21930
865.086	22040
865.217	22029
865.349	21884
865.48	21838
865.612	21937
865.743	22128
865.875	21861
866.006	22013
866.137	21918
866.269	21892
866.4	21975
866.531	21804
866.662	21819
866.793	21835
866.924	21869
867.055	21857
867.186	22002
867.317	21892
867.448	21835
867.579	21762
867.71	21857
867.841	21762
867.972	21876
868.103	21778
868.233	21945
868.364	21854
868.495	22051
868.625	21979
868.756	22246
868.886	22063
869.017	22036
869.147	22048
869.278	22299
869.408	22234
869.539	22074
869.669	22093
869.799	22070
869.929	22257
870.06	22291
870.19	22440
870.32	22382
870.45	22440
870.58	22592
870.71	22550
870.84	22588
870.97	22462
871.1	22554
871.23	22641
871.36	22672
871.489	22546
871.619	22611
871.749	22664
871.879	22755
872.008	22763
872.138	22634
872.267	22679
872.397	22607
872.526	22523
872.656	22516
872.785	22542
872.915	22717
873.044	22809
873.173	22641
873.303	22736
873.432	22771
873.561	22839
873.69	22710
873.819	22694
873.948	22752
874.077	22805
874.206	22660
874.335	22736
874.464	22877
874.593	23041
874.722	22774
874.851	22889
874.979	23098
875.108	23098
875.237	22877
875.365	22793
875.494	22930
875.623	22991
875.751	22843
875.88	22911
876.008	22953
876.136	23075
876.265	23311
876.393	23570
876.521	23455
876.65	23372
876.778	23280
876.906	23223
877.034	23315
877.162	23326
877.29	23094
877.418	23220
877.546	23261
877.674	23356
877.802	23200
877.93	23284
878.058	23220
878.185	23105
878.313	23212
878.441	23239
878.568	23056
878.696	23231
878.824	23303
878.951	23459
879.079	23387
879.206	23543
879.333	23444
879.461	23334
879.588	23391
879.715	23421
879.842	23596
879.97	23292
880.097	23124
880.224	23067
880.351	23121
880.478	23193
880.605	23044
880.732	23079
880.859	23299
880.986	23075
881.112	22953
881.239	22850
881.366	22828
881.493	22733
881.619	22683
881.746	22649
881.872	22725
881.999	22584
882.125	22641
882.252	22687
882.378	22584
882.505	22771
882.631	22596
882.757	22337
882.883	22382
883.01	22367
883.136	22348
883.262	22105
883.388	22143
883.514	22318
883.64	22318
883.766	22268
883.892	22181
884.018	22101
884.143	22314
884.269	22322
884.395	21937
884.52	21983
884.646	22090
884.772	21869
884.897	21892
885.023	21915
885.148	22112
885.274	22070
885.399	22021
885.524	21838
885.65	21949
885.775	21918
885.9	21869
886.025	22055
886.15	21956
886.275	21979
886.4	21899
886.525	21865
886.65	21930
886.775	21857
886.9	22017
887.025	22166
887.149	21956
887.274	21781
887.399	21835
887.523	21701
887.648	21705
887.773	21622
887.897	21755
888.021	21812
888.146	21743
888.27	21876
888.395	21637
888.519	21720
888.643	21816
888.767	21861
888.891	21766
889.015	21557
889.139	21595
889.263	21572
889.387	21625
889.511	21698
889.635	21637
889.759	21435
889.883	21549
890.006	21614
890.13	21576
890.254	21534
890.377	21439
890.501	21222
890.624	21264
890.748	21325
890.871	21112
890.995	20941
891.118	21039
891.241	21020
891.364	21161
891.488	21211
891.611	21020
891.734	20925
891.857	21017
891.98	21089
892.103	21119
892.226	20929
892.349	21100
892.471	20826
892.594	20929
892.717	21032
892.839	21058
892.962	20975
893.085	21074
893.207	21005
893.33	20979
893.452	20918
893.575	20982
893.697	21005
893.819	21146
893.941	21039
894.064	21013
894.186	20937
894.308	21032
894.43	20887
894.552	21165
894.674	21081
894.796	20834
894.918	20921
895.04	20834
895.161	21093
895.283	21020
895.405	20891
895.526	20963
895.648	20872
895.769	20956
895.891	20948
896.012	21013
896.134	20921
896.255	20971
896.376	20876
896.498	20849
896.619	21074
896.74	21001
896.861	21062
896.982	21252
897.103	21249
897.224	21176
897.345	21093
897.466	21081
897.587	21055
897.708	21298
897.828	21264
897.949	21104
898.07	21051
898.19	21165
898.311	21146
898.431	21062
898.552	21070
898.672	21302
898.792	21195
898.913	21009
899.033	20998
899.153	20956
899.273	20842
899.393	20765
899.513	20979
899.633	20861
899.753	20990
899.873	20830
899.993	20906
900.113	20743
900.232	20746
900.352	20804
900.472	20651
900.591	20629
900.711	20792
900.83	20556
900.95	20590
901.069	20670
901.189	20495
901.308	20381
901.427	20248
901.546	20195
901.665	20218
901.784	20332
901.904	20031
902.023	20008
902.141	19830
902.26	19704
902.379	19799
902.498	19700
902.617	19700
902.735	19712
902.854	19734
902.973	19556
903.091	19445
903.21	19346
903.328	19324
903.446	19335
903.565	19206
903.683	19171
903.801	19152
903.919	19190
904.038	19095
904.156	18958
904.274	19057
904.392	18993
904.51	18939
904.627	18924
904.745	18966
904.863	19038
904.981	18692
905.098	18578
905.216	18517
905.334	18654
905.451	18635
905.569	18521
905.686	18559
905.803	18681
905.921	18357
906.038	18502
906.155	18445
906.272	18266
906.389	18243
906.506	18155
906.623	18121
906.74	18129
906.857	17996
906.974	18072
907.091	18186
907.208	18270
907.324	18152
907.441	18022
907.557	17904
907.674	17897
907.79	17756
907.907	17817
908.023	17912
908.139	17942
908.256	17775
908.372	17668
908.488	17745
908.604	17516
908.72	17543
908.836	17585
908.952	17497
909.068	17547
909.184	17649
909.3	17512
909.415	17558
909.531	17505
909.647	17280
909.762	17307
909.878	17113
909.993	17280
910.108	17223
910.224	17246
910.339	17254
910.454	17067
910.57	17132
910.685	17014
910.8	17334
910.915	17178
911.03	17064
911.145	16873
911.259	16854
911.374	16828
911.489	16812
911.604	16793
911.718	16580
911.833	16519
911.947	16577
912.062	16409
912.176	16508
912.291	16622
912.405	16637
912.519	16790
912.633	16607
912.748	16656
912.862	16535
912.976	16443
913.09	16238
913.204	16390
913.318	16352
913.431	16470
913.545	16348
913.659	16497
913.772	16303
913.886	16131
914	16116
914.113	16265
914.226	16253
914.34	16246
914.453	16112
914.566	16287
914.68	16055
914.793	16040
914.906	15861
915.019	15907
915.132	15728
915.245	15774
915.358	15793
915.47	15759
915.583	15717
915.696	15766
915.809	15846
915.921	15827
916.034	15739
916.146	15682
916.259	15618
916.371	15781
916.483	15663
916.595	15584
916.708	15595
916.82	15614
916.932	15561
917.044	15542
917.156	15504
917.268	15443
917.38	15397
917.491	15363
917.603	15424
917.715	15492
917.826	15473
917.938	15344
918.049	15272
918.161	15302
918.272	15481
918.384	15424
918.495	15306
918.606	15131
918.717	15074
918.828	15116
918.939	15176
919.05	15116
919.161	15100
919.272	14975
919.383	14902
919.494	15214
919.604	15291
919.715	15165
919.826	14979
919.936	15100
920.047	15150
920.157	15089
920.267	15275
920.378	15047
920.488	15058
920.598	15260
920.708	15370
920.818	15268
920.928	15332
921.038	15275
921.148	15325
921.258	15047
921.368	14921
921.477	14845
921.587	14727
921.697	14724
921.806	14842
921.916	14621
922.025	14514
922.134	14465
922.244	14438
922.353	14511
922.462	14290
922.571	14202
922.68	14168
922.789	14100
922.898	13993
923.007	14027
923.116	14088
923.224	14073
923.333	14035
923.442	13917
923.55	13978
923.659	13871
923.767	13940
923.876	13864
923.984	13909
924.092	13769
924.201	13849
924.309	13822
924.417	13852
924.525	13704
924.633	13719
924.741	14670
924.849	13563
924.956	13715
925.064	13434
925.172	13472
925.279	13502
925.387	13533
925.494	13426
925.602	13658
925.709	13472
925.816	13472
925.924	13373
926.031	13533
926.138	13350
926.245	13487
926.352	13282
926.459	13438
926.566	13441
926.673	13365
926.779	13198
926.886	13255
926.993	13061
927.099	13034
927.206	13057
927.312	12913
927.419	12973
927.525	13008
927.631	12993
927.737	12916
927.843	12928
927.95	12669
928.056	12787
928.162	12833
928.267	12882
928.373	13426
928.479	12882
928.585	12692
928.69	12760
928.796	12840
928.901	12677
929.007	12509
929.112	12608
929.218	12639
929.323	12639
929.428	12627
929.533	12604
929.638	12502
929.743	12471
929.848	12540
929.953	12574
930.058	12376
930.163	12289
930.267	12251
930.372	12292
930.477	12095
930.581	12509
930.685	12247
930.79	12129
930.894	12133
930.998	12064
931.103	12117
931.207	11832
931.311	11718
931.415	11672
931.519	11528
931.623	11414
