Data from test_V78500241_316.txt Node
Date: Fri Mar 25 15:43:59 CST 2022
User: usil
Spectrometer: V785-0024
Trigger mode: 0
Integration Time (sec): 4.000000E-1
Scans to average: 1
Nonlinearity correction enabled: false
Boxcar width: 0
Storing dark spectrum: false
XAxis mode: Wavelengths
Number of Pixels in Spectrum: 1024
>>>>>Begin Spectral Data<<<<<
801.071	29893
801.214	29714
801.356	29562
801.499	29562
801.641	29501
801.783	29482
801.926	29554
802.068	29471
802.211	29265
802.353	29353
802.496	29064
802.638	29060
802.78	29067
802.923	29044
803.065	28919
803.208	28991
803.35	29128
803.492	29189
803.635	29151
803.777	29261
803.919	29315
804.061	29589
804.204	29254
804.346	29337
804.488	29200
804.63	29273
804.773	29143
804.915	29235
805.057	29364
805.199	29052
805.341	29436
805.483	29311
805.626	29330
805.768	29216
805.91	29277
806.052	29368
806.194	29280
806.336	29756
806.478	29543
806.62	29326
806.762	29463
806.904	29687
807.046	29954
807.188	29821
807.33	29767
807.472	29965
807.614	29756
807.756	29733
807.898	29756
808.04	29718
808.182	29695
808.324	29634
808.465	29596
808.607	29893
808.749	30201
808.891	30205
809.033	30228
809.174	30060
809.316	30007
809.458	30072
809.6	30053
809.741	30060
809.883	30167
810.025	30395
810.166	30292
810.308	30346
810.45	30304
810.591	30110
810.733	30114
810.875	30038
811.016	30117
811.158	29893
811.299	30220
811.441	30266
811.582	30171
811.724	30121
811.865	29992
812.007	30068
812.148	29999
812.29	29969
812.431	30045
812.573	30433
812.714	30570
812.855	30517
812.997	30616
813.138	30722
813.279	30692
813.421	30559
813.562	30582
813.703	30410
813.845	30254
813.986	29958
814.127	29802
814.268	29722
814.41	29786
814.551	29703
814.692	29851
814.833	29608
814.974	29680
815.115	29752
815.256	29615
815.397	29474
815.539	29600
815.68	29566
815.821	29497
815.962	29505
816.103	29482
816.244	29406
816.385	29231
816.526	29311
816.666	29064
816.807	28991
816.948	29075
817.089	29044
817.23	28972
817.371	29014
817.512	29003
817.653	28965
817.793	28908
817.934	29022
818.075	28885
818.216	28938
818.356	28763
818.497	28900
818.638	28698
818.778	28771
818.919	28824
819.06	28858
819.2	28790
819.341	28908
819.481	28892
819.622	29056
819.762	29113
819.903	29143
820.043	28976
820.184	29132
820.324	29048
820.465	29098
820.605	28980
820.746	28976
820.886	28968
821.026	28984
821.167	28831
821.307	29178
821.447	29003
821.588	28869
821.728	28771
821.868	28489
822.008	28470
822.149	28462
822.289	28246
822.429	28082
822.569	28086
822.709	28063
822.849	27911
822.99	27827
823.13	27823
823.27	27686
823.41	27675
823.55	27526
823.69	27808
823.83	27701
823.97	27709
824.11	27511
824.25	27481
824.389	27424
824.529	27545
824.669	27427
824.809	27500
824.949	27488
825.089	27534
825.228	27564
825.368	27241
825.508	27321
825.648	27287
825.787	27412
825.927	27348
826.067	27283
826.206	27287
826.346	27252
826.485	27378
826.625	27237
826.765	27481
826.904	27310
827.044	27222
827.183	27074
827.323	26944
827.462	27062
827.601	27028
827.741	26967
827.88	26979
828.02	26929
828.159	26956
828.298	26971
828.437	27047
828.577	26979
828.716	27028
828.855	26735
828.994	26727
829.134	26697
829.273	26667
829.412	26541
829.551	26533
829.69	26667
829.829	26587
829.968	26762
830.107	26781
830.246	26617
830.385	26606
830.524	26526
830.663	26408
830.802	26332
830.941	26202
831.08	26168
831.219	26358
831.357	26218
831.496	26404
831.635	26142
831.774	26161
831.913	26138
832.051	26153
832.19	26008
832.329	25966
832.467	25959
832.606	25727
832.744	25746
832.883	25841
833.022	25818
833.16	25852
833.299	25932
833.437	25959
833.576	25940
833.714	25951
833.852	25959
833.991	25936
834.129	25951
834.267	25917
834.406	25966
834.544	25906
834.682	25909
834.821	25830
834.959	25902
835.097	25799
835.235	25746
835.373	25849
835.511	25871
835.65	25742
835.788	25712
835.926	25670
836.064	25434
836.202	25582
836.34	25715
836.478	25780
836.615	25655
836.753	25727
836.891	25826
837.029	25685
837.167	25674
837.305	25487
837.443	25559
837.58	25491
837.718	25548
837.856	25651
837.993	25457
838.131	25548
838.269	25388
838.406	25213
838.544	25316
838.681	25095
838.819	25179
838.956	24928
839.094	24935
839.231	25050
839.369	25091
839.506	25221
839.643	25221
839.781	24943
839.918	24897
840.055	24856
840.193	24882
840.33	24772
840.467	24749
840.604	24795
840.742	25038
840.879	24631
841.016	24787
841.153	24635
841.29	24837
841.427	24821
841.564	24776
841.701	24734
841.838	24711
841.975	24738
842.112	24757
842.249	24604
842.385	24536
842.522	24734
842.659	24642
842.796	24467
842.933	24642
843.069	24464
843.206	24464
843.343	24612
843.479	24547
843.616	24418
843.752	24376
843.889	24315
844.025	24483
844.162	24190
844.298	24285
844.435	24243
844.571	24133
844.708	24216
844.844	24399
844.98	24243
845.117	24311
845.253	24178
845.389	24182
845.525	24057
845.661	24178
845.798	24007
845.934	23969
846.07	23840
846.206	23980
846.342	23996
846.478	23855
846.614	23745
846.75	23649
846.886	23672
847.022	23646
847.158	23703
847.294	23722
847.429	23764
847.565	23566
847.701	23965
847.837	23292
847.972	23368
848.108	23608
848.244	23482
848.379	23311
848.515	23246
848.65	23231
848.786	23292
848.921	23280
849.057	23261
849.192	23395
849.328	23189
849.463	23151
849.598	23200
849.734	23052
849.869	23105
850.004	22999
850.14	23044
850.275	23052
850.41	23052
850.545	22942
850.68	22809
850.815	23041
850.95	22984
851.085	23117
851.22	23227
851.355	22980
851.49	23041
851.625	22976
851.76	22927
851.895	22930
852.03	22877
852.165	22930
852.299	23022
852.434	23105
852.569	23151
852.703	23003
852.838	22968
852.973	23071
853.107	23037
853.242	22877
853.376	22869
853.511	22622
853.645	22812
853.78	22858
853.914	22869
854.048	22786
854.183	22679
854.317	22824
854.451	23033
854.585	22809
854.72	22793
854.854	22942
854.988	22778
855.122	22839
855.256	22538
855.39	22725
855.524	22873
855.658	22949
855.792	22873
855.926	22828
856.06	22801
856.194	22881
856.327	22679
856.461	22740
856.595	22634
856.729	22801
856.862	22957
856.996	22763
857.13	22862
857.263	22820
857.397	22824
857.53	22645
857.664	22752
857.797	22725
857.931	22717
858.064	22850
858.197	22904
858.331	22675
858.464	22649
858.597	22641
858.731	22744
858.864	22615
858.997	22763
859.13	22698
859.263	22675
859.396	22900
859.529	22812
859.662	22668
859.795	22672
859.928	22679
860.061	22869
860.194	22984
860.327	22721
860.46	22592
860.592	22816
860.725	22889
860.858	22774
860.99	22729
861.123	22759
861.256	22733
861.388	22717
861.521	23322
861.653	22687
861.786	22641
861.918	22557
862.05	22683
862.183	22698
862.315	22694
862.447	22835
862.58	22588
862.712	22447
862.844	22538
862.976	22440
863.108	22481
863.24	22866
863.372	22390
863.504	22360
863.636	22424
863.768	22485
863.9	22462
864.032	22318
864.164	22386
864.296	22481
864.428	22542
864.559	22451
864.691	22367
864.823	22367
864.954	22333
865.086	22322
865.217	22284
865.349	22287
865.48	22360
865.612	22322
865.743	22432
865.875	22268
866.006	22257
866.137	22291
866.269	22371
866.4	22234
866.531	22139
866.662	22131
866.793	22116
866.924	22192
867.055	22291
867.186	22242
867.317	22173
867.448	22105
867.579	22147
867.71	22131
867.841	22120
867.972	22295
868.103	22139
868.233	22147
868.364	22162
868.495	22257
868.625	22398
868.756	22527
868.886	22485
869.017	22356
869.147	22485
869.278	22694
869.408	22329
869.539	22341
869.669	22500
869.799	22440
869.929	22565
870.06	22542
870.19	22748
870.32	22580
870.45	22691
870.58	22828
870.71	22862
870.84	22786
870.97	22854
871.1	22938
871.23	22968
871.36	22957
871.489	22934
871.619	22942
871.749	23025
871.879	22999
872.008	23189
872.138	23071
872.267	22934
872.397	22900
872.526	22755
872.656	22847
872.785	22900
872.915	23102
873.044	23010
873.173	23121
873.303	23064
873.432	23128
873.561	23109
873.69	23147
873.819	23124
873.948	23071
874.077	23010
874.206	22946
874.335	23094
874.464	23151
874.593	23227
874.722	23250
874.851	23292
874.979	23170
875.108	23307
875.237	23208
875.365	23056
875.494	23181
875.623	23349
875.751	23288
875.88	23143
876.008	23311
876.136	23421
876.265	23649
876.393	23752
876.521	23733
876.65	23695
876.778	23756
876.906	23463
877.034	23630
877.162	23581
877.29	23535
877.418	23771
877.546	23615
877.674	23577
877.802	23528
877.93	23665
878.058	23627
878.185	23433
878.313	23425
878.441	23611
878.568	23444
878.696	23520
878.824	23509
878.951	23539
879.079	23745
879.206	23878
879.333	23870
879.461	23570
879.588	23703
879.715	23722
879.842	23931
879.97	23535
880.097	23265
880.224	23372
880.351	23402
880.478	23330
880.605	23349
880.732	23383
880.859	23592
880.986	23433
881.112	23349
881.239	23311
881.366	23151
881.493	23159
881.619	23090
881.746	22949
881.872	23037
881.999	22805
882.125	22850
882.252	23014
882.378	22938
882.505	23025
882.631	22831
882.757	22778
882.883	22763
883.01	22675
883.136	22679
883.262	22569
883.388	22588
883.514	22740
883.64	22721
883.766	22512
883.892	22424
884.018	22440
884.143	22588
884.269	22713
884.395	22519
884.52	22310
884.646	22356
884.772	22261
884.897	22188
885.023	22382
885.148	22371
885.274	22409
885.399	22322
885.524	22215
885.65	22177
885.775	22272
885.9	22211
886.025	22318
886.15	22367
886.275	22280
886.4	22234
886.525	22249
886.65	22196
886.775	22306
886.9	22337
887.025	22417
887.149	22219
887.274	22086
887.399	22101
887.523	21972
887.648	21949
887.773	22025
887.897	22192
888.021	22112
888.146	22036
888.27	22128
888.395	22124
888.519	22131
888.643	22044
888.767	22112
888.891	21797
889.015	21842
889.139	21865
889.263	21717
889.387	21937
889.511	22017
889.635	22086
889.759	21880
889.883	21717
890.006	21808
890.13	21880
890.254	21713
890.377	21747
890.501	21625
890.624	21370
890.748	21504
890.871	21340
890.995	21321
891.118	21317
891.241	21325
891.364	21302
891.488	21420
891.611	21252
891.734	21367
891.857	21405
891.98	21397
892.103	21298
892.226	21378
892.349	21203
892.471	21100
892.594	21249
892.717	21264
892.839	21203
892.962	21260
893.085	21374
893.207	21241
893.33	21043
893.452	21142
893.575	21325
893.697	21237
893.819	21332
893.941	21488
894.064	21412
894.186	21131
894.308	21165
894.43	21283
894.552	21386
894.674	21199
894.796	21108
894.918	21203
895.04	21165
895.161	21211
895.283	21252
895.405	21203
895.526	21119
895.648	21192
895.769	21214
895.891	21214
896.012	21256
896.134	21222
896.255	21157
896.376	21176
896.498	21245
896.619	21287
896.74	21230
896.861	21279
896.982	21724
897.103	21808
897.224	21496
897.345	21511
897.466	21401
897.587	21462
897.708	21549
897.828	21405
897.949	21431
898.07	21348
898.19	21359
898.311	21526
898.431	21351
898.552	21473
898.672	21450
898.792	21382
898.913	21370
899.033	21211
899.153	21173
899.273	21039
899.393	21119
899.513	21066
899.633	20979
899.753	21188
899.873	21058
899.993	21051
900.113	20960
900.232	21020
900.352	21032
900.472	20975
900.591	20899
900.711	20941
900.83	20887
900.95	20880
901.069	21020
901.189	20800
901.308	20533
901.427	20332
901.546	20457
901.665	20575
901.784	20457
901.904	20214
902.023	20248
902.141	19864
902.26	20012
902.379	20039
902.498	19928
902.617	19951
902.735	20024
902.854	19906
902.973	19772
903.091	19464
903.21	19670
903.328	19601
903.446	19502
903.565	19365
903.683	19358
903.801	19289
903.919	19266
904.038	19320
904.156	19198
904.274	19213
904.392	19072
904.51	19072
904.627	19084
904.745	19145
904.863	19126
904.981	18817
905.098	18875
905.216	18715
905.334	18901
905.451	18814
905.569	18787
905.686	18867
905.803	18715
905.921	18601
906.038	18692
906.155	18513
906.272	18566
906.389	18559
906.506	18380
906.623	18308
906.74	18304
906.857	18205
906.974	18098
907.091	18403
907.208	18403
907.324	18277
907.441	18243
907.557	18034
907.674	17950
907.79	17874
907.907	18053
908.023	17961
908.139	17969
908.256	17874
908.372	17942
908.488	17942
908.604	17809
908.72	17756
908.836	17592
908.952	17623
909.068	17672
909.184	17756
909.3	17524
909.415	17653
909.531	17646
909.647	17444
909.762	17402
909.878	17330
909.993	17467
910.108	17353
910.224	17318
910.339	17379
910.454	17326
910.57	17181
910.685	17124
910.8	17372
910.915	17353
911.03	17170
911.145	17025
911.259	16976
911.374	17010
911.489	16862
911.604	16862
911.718	16664
911.833	16771
911.947	16618
912.062	16538
912.176	16763
912.291	16786
912.405	16615
912.519	16866
912.633	16843
912.748	16702
912.862	16573
912.976	16478
913.09	16455
913.204	16485
913.318	16508
913.431	16531
913.545	16592
913.659	16535
913.772	16428
913.886	16276
914	16257
914.113	16386
914.226	16318
914.34	16390
914.453	16158
914.566	16276
914.68	16177
914.793	16158
914.906	15930
915.019	15892
915.132	15793
915.245	15911
915.358	15907
915.47	15930
915.583	15880
915.696	15850
915.809	16002
915.921	15903
916.034	15846
916.146	15781
916.259	15720
916.371	15819
916.483	15660
916.595	15656
916.708	15618
916.82	15568
916.932	15599
917.044	15599
917.156	15542
917.268	15481
917.38	15542
917.491	15405
917.603	15511
917.715	15511
917.826	15557
917.938	15424
918.049	15348
918.161	15386
918.272	15603
918.384	15466
918.495	15473
918.606	15207
918.717	15108
918.828	15241
918.939	15214
919.05	15157
919.161	15142
919.272	15036
919.383	15020
919.494	15203
919.604	15473
919.715	15077
919.826	15055
919.936	15142
920.047	15268
920.157	15032
920.267	15241
920.378	15230
920.488	15089
920.598	15298
920.708	15450
920.818	15272
920.928	15157
921.038	15348
921.148	15450
921.258	15127
921.368	14963
921.477	14979
921.587	14853
921.697	14716
921.806	14845
921.916	14701
922.025	14568
922.134	14530
922.244	14484
922.353	14571
922.462	14427
922.571	14385
922.68	14073
922.789	14134
922.898	14142
923.007	14035
923.116	14126
923.224	14050
923.333	14111
923.442	13868
923.55	13868
923.659	13883
923.767	13921
923.876	13864
923.984	13974
924.092	13803
924.201	13913
924.309	13780
924.417	13860
924.525	13674
924.633	13780
924.741	14689
924.849	13651
924.956	13677
925.064	13544
925.172	13476
925.279	13480
925.387	13468
925.494	13468
925.602	13674
925.709	13559
925.816	13476
925.924	13453
926.031	13480
926.138	13400
926.245	13468
926.352	13331
926.459	13563
926.566	13464
926.673	13358
926.779	13217
926.886	13110
926.993	13050
927.099	12993
927.206	12966
927.312	12935
927.419	12981
927.525	13038
927.631	13023
927.737	12924
927.843	12909
927.95	12760
928.056	12913
928.162	12833
928.267	12810
928.373	13491
928.479	12928
928.585	12696
928.69	12810
928.796	12913
928.901	12677
929.007	12528
929.112	12673
929.218	12566
929.323	12517
929.428	12517
929.533	12635
929.638	12517
929.743	12486
929.848	12578
929.953	12490
930.058	12361
930.163	12209
930.267	12247
930.372	12353
930.477	12114
930.581	12437
930.685	12251
930.79	12022
930.894	12064
930.998	12125
931.103	12251
931.207	11821
931.311	11775
931.415	11657
931.519	11368
931.623	11421
