Data from test_V78500241_2189.txt Node
Date: Fri Mar 25 15:56:57 CST 2022
User: usil
Spectrometer: V785-0024
Trigger mode: 0
Integration Time (sec): 4.000000E-1
Scans to average: 1
Nonlinearity correction enabled: false
Boxcar width: 0
Storing dark spectrum: false
XAxis mode: Wavelengths
Number of Pixels in Spectrum: 1024
>>>>>Begin Spectral Data<<<<<
801.071	28968
801.214	28729
801.356	28717
801.499	28645
801.641	28421
801.783	28455
801.926	28580
802.068	28504
802.211	28299
802.353	28337
802.496	28181
802.638	28128
802.78	28242
802.923	28067
803.065	28063
803.208	28150
803.35	28188
803.492	28348
803.635	28405
803.777	28318
803.919	28394
804.061	28607
804.204	28565
804.346	28318
804.488	28417
804.63	28500
804.773	28344
804.915	28535
805.057	28573
805.199	28557
805.341	28413
805.483	28683
805.626	28466
805.768	28474
805.91	28660
806.052	28512
806.194	28550
806.336	28828
806.478	28577
806.62	28588
806.762	28611
806.904	28824
807.046	29151
807.188	28984
807.33	29048
807.472	29128
807.614	28984
807.756	28980
807.898	29041
808.04	28843
808.182	28873
808.324	28915
808.465	28919
808.607	29128
808.749	29269
808.891	29471
809.033	29558
809.174	29372
809.316	29208
809.458	29406
809.6	29322
809.741	29512
809.883	29482
810.025	29558
810.166	29630
810.308	29642
810.45	29436
810.591	29490
810.733	29452
810.875	29170
811.016	29258
811.158	29246
811.299	29307
811.441	29455
811.582	29455
811.724	29303
811.865	29345
812.007	29372
812.148	29140
812.29	29334
812.431	29444
812.573	29676
812.714	29699
812.855	29817
812.997	29923
813.138	30091
813.279	29851
813.421	29767
813.562	29821
813.703	29695
813.845	29501
813.986	29341
814.127	29060
814.268	29086
814.41	29109
814.551	28953
814.692	29132
814.833	28824
814.974	29033
815.115	29006
815.256	28930
815.397	28934
815.539	28987
815.68	28797
815.821	28721
815.962	28771
816.103	28752
816.244	28816
816.385	28584
816.526	28744
816.666	28466
816.807	28238
816.948	28440
817.089	28424
817.23	28257
817.371	28287
817.512	28348
817.653	28348
817.793	28337
817.934	28291
818.075	28337
818.216	28329
818.356	28481
818.497	28188
818.638	28078
818.778	28200
818.919	28215
819.06	28177
819.2	28223
819.341	28314
819.481	28459
819.622	28755
819.762	28828
819.903	28649
820.043	28584
820.184	28478
820.324	28386
820.465	28470
820.605	28470
820.746	28451
820.886	28299
821.026	28436
821.167	28493
821.307	28573
821.447	28295
821.588	28280
821.728	28154
821.868	28002
822.008	27941
822.149	27785
822.289	27781
822.429	27618
822.569	27466
822.709	27450
822.849	27420
822.99	27401
823.13	27397
823.27	27321
823.41	27195
823.55	27066
823.69	27165
823.83	27192
823.97	27192
824.11	27024
824.25	27032
824.389	27131
824.529	26910
824.669	27062
824.809	27116
824.949	27211
825.089	27047
825.228	27157
825.368	26899
825.508	26819
825.648	26952
825.787	26956
825.927	27058
826.067	26781
826.206	26963
826.346	26994
826.485	26876
826.625	26891
826.765	27085
826.904	26880
827.044	26705
827.183	26617
827.323	26670
827.462	26739
827.601	26712
827.741	26617
827.88	26754
828.02	26530
828.159	26587
828.298	26769
828.437	26659
828.577	26632
828.716	26659
828.855	26526
828.994	26324
829.134	26229
829.273	26396
829.412	26206
829.551	26332
829.69	26275
829.829	26298
829.968	26298
830.107	26442
830.246	26252
830.385	26278
830.524	26180
830.663	26134
830.802	25887
830.941	25875
831.08	25928
831.219	25993
831.357	25986
831.496	26088
831.635	25989
831.774	25772
831.913	25738
832.051	25753
832.19	25609
832.329	25757
832.467	25575
832.606	25487
832.744	25476
832.883	25586
833.022	25521
833.16	25533
833.299	25605
833.437	25552
833.576	25635
833.714	25685
833.852	25803
833.991	25674
834.129	25708
834.267	25681
834.406	25556
834.544	25597
834.682	25655
834.821	25628
834.959	25696
835.097	25616
835.235	25662
835.373	25693
835.511	25696
835.65	25377
835.788	25457
835.926	25297
836.064	25217
836.202	25282
836.34	25472
836.478	25525
836.615	25407
836.753	25529
836.891	25468
837.029	25510
837.167	25232
837.305	25308
837.443	25236
837.58	25312
837.718	25270
837.856	25312
837.993	25156
838.131	25247
838.269	25168
838.406	25377
838.544	25099
838.681	24749
838.819	24935
838.956	24859
839.094	24798
839.231	24795
839.369	24966
839.506	25110
839.643	25015
839.781	24722
839.918	24730
840.055	24722
840.193	24642
840.33	24612
840.467	24559
840.604	24646
840.742	24810
840.879	24498
841.016	24669
841.153	24441
841.29	24852
841.427	24616
841.564	24635
841.701	24601
841.838	24574
841.975	24570
842.112	24490
842.249	24391
842.385	24456
842.522	24639
842.659	24395
842.796	24353
842.933	24452
843.069	24422
843.206	24372
843.343	24232
843.479	24429
843.616	24418
843.752	24251
843.889	24098
844.025	24384
844.162	24007
844.298	24228
844.435	24110
844.571	24102
844.708	24152
844.844	24266
844.98	24300
845.117	24281
845.253	24057
845.389	24076
845.525	23980
845.661	24015
845.798	23771
845.934	23954
846.07	23779
846.206	23874
846.342	23901
846.478	23779
846.614	23722
846.75	23543
846.886	23566
847.022	23577
847.158	23642
847.294	23608
847.429	23726
847.565	23592
847.701	23821
847.837	23372
847.972	23429
848.108	23471
848.244	23478
848.379	23322
848.515	23223
848.65	23265
848.786	23311
848.921	23174
849.057	23406
849.192	23273
849.328	23197
849.463	23296
849.598	23105
849.734	23079
849.869	22953
850.004	23048
850.14	23018
850.275	22881
850.41	22877
850.545	22831
850.68	22965
850.815	23060
850.95	22862
851.085	23117
851.22	23124
851.355	22976
851.49	22908
851.625	22900
851.76	22847
851.895	22858
852.03	22854
852.165	22919
852.299	22972
852.434	22995
852.569	22900
852.703	22927
852.838	23071
852.973	23071
853.107	23044
853.242	23006
853.376	22691
853.511	22653
853.645	22630
853.78	22748
853.914	22782
854.048	22797
854.183	22725
854.317	22812
854.451	22938
854.585	22873
854.72	22854
854.854	22843
854.988	22866
855.122	22835
855.256	22596
855.39	22877
855.524	22797
855.658	22793
855.792	22634
855.926	22748
856.06	22763
856.194	22835
856.327	22786
856.461	22573
856.595	22691
856.729	22702
856.862	22740
856.996	22786
857.13	22809
857.263	22923
857.397	22839
857.53	22683
857.664	22828
857.797	22782
857.931	22911
858.064	22816
858.197	22835
858.331	22771
858.464	22774
858.597	22729
858.731	22702
858.864	22740
858.997	22752
859.13	22729
859.263	22843
859.396	22771
859.529	22736
859.662	22729
859.795	22755
859.928	22744
860.061	22961
860.194	22984
860.327	22869
860.46	22809
860.592	22938
860.725	22919
860.858	22839
860.99	22717
861.123	22744
861.256	22694
861.388	22812
861.521	23478
861.653	22603
861.786	22535
861.918	22755
862.05	22573
862.183	22649
862.315	22755
862.447	22748
862.58	22725
862.712	22519
862.844	22287
862.976	22618
863.108	22535
863.24	22999
863.372	22363
863.504	22500
863.636	22455
863.768	22459
863.9	22497
864.032	22360
864.164	22470
864.296	22565
864.428	22554
864.559	22497
864.691	22447
864.823	22436
864.954	22497
865.086	22424
865.217	22371
865.349	22390
865.48	22272
865.612	22367
865.743	22348
865.875	22337
866.006	22230
866.137	22386
866.269	22363
866.4	22325
866.531	22291
866.662	22249
866.793	22169
866.924	22234
867.055	22219
867.186	22272
867.317	22386
867.448	22166
867.579	22280
867.71	22207
867.841	22223
867.972	22200
868.103	22310
868.233	22363
868.364	22352
868.495	22348
868.625	22489
868.756	22592
868.886	22542
869.017	22405
869.147	22504
869.278	22542
869.408	22516
869.539	22497
869.669	22607
869.799	22554
869.929	22588
870.06	22611
870.19	22812
870.32	22828
870.45	22892
870.58	22877
870.71	23060
870.84	22965
870.97	22946
871.1	22972
871.23	23185
871.36	23121
871.489	23022
871.619	23086
871.749	23159
871.879	23056
872.008	23239
872.138	23105
872.267	23048
872.397	22938
872.526	22854
872.656	22866
872.785	22991
872.915	23018
873.044	23140
873.173	23094
873.303	23094
873.432	23216
873.561	23284
873.69	23235
873.819	23094
873.948	23254
874.077	23147
874.206	23098
874.335	23090
874.464	23212
874.593	23292
874.722	23315
874.851	23383
874.979	23288
875.108	23307
875.237	23299
875.365	23208
875.494	23208
875.623	23414
875.751	23216
875.88	23364
876.008	23490
876.136	23455
876.265	23798
876.393	23699
876.521	23798
876.65	23794
876.778	23741
876.906	23687
877.034	23661
877.162	23653
877.29	23570
877.418	23741
877.546	23695
877.674	23668
877.802	23813
877.93	23566
878.058	23512
878.185	23573
878.313	23570
878.441	23676
878.568	23539
878.696	23562
878.824	23809
878.951	23752
879.079	23802
879.206	23912
879.333	23843
879.461	23554
879.588	23775
879.715	23813
879.842	23958
879.97	23745
880.097	23436
880.224	23471
880.351	23490
880.478	23505
880.605	23497
880.732	23497
880.859	23764
880.986	23436
881.112	23493
881.239	23421
881.366	23273
881.493	23174
881.619	23056
881.746	23102
881.872	23079
881.999	22812
882.125	22972
882.252	23136
882.378	22987
882.505	23178
882.631	22930
882.757	22672
882.883	22713
883.01	22698
883.136	22592
883.262	22512
883.388	22508
883.514	22637
883.64	22603
883.766	22626
883.892	22375
884.018	22386
884.143	22653
884.269	22717
884.395	22451
884.52	22284
884.646	22322
884.772	22299
884.897	22166
885.023	22276
885.148	22474
885.274	22394
885.399	22379
885.524	22211
885.65	22451
885.775	22344
885.9	22314
886.025	22432
886.15	22367
886.275	22253
886.4	22078
886.525	22242
886.65	22268
886.775	22169
886.9	22398
887.025	22550
887.149	22249
887.274	21998
887.399	22143
887.523	22204
887.648	22074
887.773	21949
887.897	22192
888.021	22082
888.146	22090
888.27	22169
888.395	22181
888.519	22215
888.643	22109
888.767	22147
888.891	21823
889.015	21991
889.139	21972
889.263	21945
889.387	21880
889.511	22063
889.635	22036
889.759	21888
889.883	21888
890.006	21975
890.13	21895
890.254	21747
890.377	21892
890.501	21542
890.624	21496
890.748	21694
890.871	21511
890.995	21485
891.118	21416
891.241	21450
891.364	21370
891.488	21523
891.611	21355
891.734	21428
891.857	21523
891.98	21367
892.103	21378
892.226	21530
892.349	21420
892.471	21272
892.594	21359
892.717	21454
892.839	21252
892.962	21397
893.085	21397
893.207	21264
893.33	21119
893.452	21176
893.575	21412
893.697	21256
893.819	21374
893.941	21424
894.064	21351
894.186	21169
894.308	21169
894.43	21302
894.552	21488
894.674	21340
894.796	21249
894.918	21264
895.04	21306
895.161	21336
895.283	21370
895.405	21245
895.526	21249
895.648	21260
895.769	21291
895.891	21321
896.012	21374
896.134	21230
896.255	21302
896.376	21226
896.498	21294
896.619	21123
896.74	21351
896.861	21317
896.982	21485
897.103	21781
897.224	21610
897.345	21439
897.466	21454
897.587	21488
897.708	21618
897.828	21523
897.949	21386
898.07	21275
898.19	21351
898.311	21564
898.431	21424
898.552	21511
898.672	21473
898.792	21500
898.913	21393
899.033	21298
899.153	21279
899.273	21123
899.393	21203
899.513	21272
899.633	21192
899.753	21116
899.873	21165
899.993	21237
900.113	21089
900.232	21226
900.352	21070
900.472	20952
900.591	20956
900.711	21001
900.83	20971
900.95	21043
901.069	21116
901.189	20823
901.308	20644
901.427	20492
901.546	20579
901.665	20594
901.784	20598
901.904	20396
902.023	20199
902.141	20153
902.26	20100
902.379	20084
902.498	20096
902.617	19959
902.735	20046
902.854	20054
902.973	19951
903.091	19689
903.21	19772
903.328	19693
903.446	19635
903.565	19502
903.683	19582
903.801	19396
903.919	19419
904.038	19388
904.156	19304
904.274	19312
904.392	19179
904.51	19217
904.627	19133
904.745	19270
904.863	19278
904.981	19000
905.098	18852
905.216	18897
905.334	18871
905.451	18905
905.569	18829
905.686	18913
905.803	18837
905.921	18635
906.038	18741
906.155	18703
906.272	18506
906.389	18677
906.506	18540
906.623	18525
906.74	18399
906.857	18323
906.974	18350
907.091	18391
907.208	18559
907.324	18479
907.441	18285
907.557	18144
907.674	18201
907.79	18053
907.907	18110
908.023	18133
908.139	18095
908.256	18049
908.372	17977
908.488	18030
908.604	17977
908.72	17870
908.836	17851
908.952	17733
909.068	17771
909.184	17977
909.3	17786
909.415	17798
909.531	17786
909.647	17600
909.762	17493
909.878	17486
909.993	17577
910.108	17474
910.224	17497
910.339	17455
910.454	17402
910.57	17383
910.685	17246
910.8	17478
910.915	17414
911.03	17326
911.145	17162
911.259	17193
911.374	17208
911.489	17086
911.604	17079
911.718	16869
911.833	16835
911.947	16774
912.062	16847
912.176	16820
912.291	16885
912.405	16972
912.519	17094
912.633	16930
912.748	16873
912.862	16816
912.976	16637
913.09	16569
913.204	16615
913.318	16687
913.431	16759
913.545	16755
913.659	16656
913.772	16630
913.886	16569
914	16443
914.113	16512
914.226	16607
914.34	16554
914.453	16329
914.566	16497
914.68	16310
914.793	16238
914.906	16131
915.019	16109
915.132	15998
915.245	16093
915.358	16055
915.47	15968
915.583	16044
915.696	16071
915.809	16162
915.921	16143
916.034	15899
916.146	15835
916.259	15857
916.371	15975
916.483	15972
916.595	15819
916.708	15842
916.82	15797
916.932	15724
917.044	15850
917.156	15785
917.268	15705
917.38	15694
917.491	15698
917.603	15686
917.715	15789
917.826	15781
917.938	15466
918.049	15378
918.161	15599
918.272	15724
918.384	15682
918.495	15591
918.606	15367
918.717	15389
918.828	15424
918.939	15405
919.05	15291
919.161	15313
919.272	15211
919.383	15218
919.494	15435
919.604	15553
919.715	15298
919.826	15355
919.936	15416
920.047	15351
920.157	15233
920.267	15591
920.378	15306
920.488	15211
920.598	15507
920.708	15591
920.818	15466
920.928	15348
921.038	15534
921.148	15466
921.258	15249
921.368	15165
921.477	15192
921.587	15062
921.697	14872
921.806	15058
921.916	14918
922.025	14777
922.134	14651
922.244	14598
922.353	14648
922.462	14507
922.571	14465
922.68	14336
922.789	14370
922.898	14336
923.007	14225
923.116	14362
923.224	14317
923.333	14256
923.442	14195
923.55	14107
923.659	14202
923.767	14149
923.876	14157
923.984	14126
924.092	13986
924.201	13989
924.309	13955
924.417	14077
924.525	14016
924.633	14005
924.741	14689
924.849	13833
924.956	13849
925.064	13753
925.172	13655
925.279	13734
925.387	13712
925.494	13693
925.602	13811
925.709	13761
925.816	13590
925.924	13677
926.031	13715
926.138	13647
926.245	13689
926.352	13499
926.459	13670
926.566	13727
926.673	13499
926.779	13449
926.886	13419
926.993	13266
927.099	13293
927.206	13247
927.312	13145
927.419	13331
927.525	13225
927.631	13179
927.737	13065
927.843	13088
927.95	12962
928.056	13133
928.162	13069
928.267	13145
928.373	13647
928.479	13088
928.585	12844
928.69	13046
928.796	13069
928.901	12901
929.007	12753
929.112	12859
929.218	12909
929.323	12795
929.428	12875
929.533	12867
929.638	12696
929.743	12734
929.848	12734
929.953	12696
930.058	12589
930.163	12334
930.267	12460
930.372	12578
930.477	12338
930.581	12563
930.685	12410
930.79	12296
930.894	12319
930.998	12224
931.103	12441
931.207	12064
931.311	11984
931.415	11904
931.519	11695
931.623	11661
