Data from test_V78500241_1203.txt Node
Date: Fri Mar 25 15:50:08 CST 2022
User: usil
Spectrometer: V785-0024
Trigger mode: 0
Integration Time (sec): 4.000000E-1
Scans to average: 1
Nonlinearity correction enabled: false
Boxcar width: 0
Storing dark spectrum: false
XAxis mode: Wavelengths
Number of Pixels in Spectrum: 1024
>>>>>Begin Spectral Data<<<<<
801.071	28805
801.214	28584
801.356	28459
801.499	28375
801.641	28287
801.783	28188
801.926	28238
802.068	28166
802.211	28078
802.353	28230
802.496	27968
802.638	27975
802.78	27899
802.923	27781
803.065	27797
803.208	27835
803.35	27895
803.492	28036
803.635	28204
803.777	28036
803.919	28192
804.061	28508
804.204	28196
804.346	28215
804.488	28116
804.63	28139
804.773	28051
804.915	28139
805.057	28337
805.199	28143
805.341	28287
805.483	28386
805.626	28333
805.768	28234
805.91	28310
806.052	28474
806.194	28344
806.336	28436
806.478	28265
806.62	28367
806.762	28588
806.904	28626
807.046	28797
807.188	28748
807.33	28930
807.472	28976
807.614	28725
807.756	28828
807.898	28538
808.04	28577
808.182	28786
808.324	28637
808.465	28744
808.607	28938
808.749	29044
808.891	29159
809.033	29098
809.174	29041
809.316	29037
809.458	29060
809.6	29003
809.741	29166
809.883	29307
810.025	29395
810.166	29345
810.308	29433
810.45	29318
810.591	29204
810.733	29071
810.875	28999
811.016	28930
811.158	28801
811.299	29132
811.441	29166
811.582	29117
811.724	29109
811.865	29037
812.007	29174
812.148	29048
812.29	29242
812.431	29227
812.573	29356
812.714	29505
812.855	29653
812.997	29436
813.138	29767
813.279	29615
813.421	29653
813.562	29486
813.703	29337
813.845	29349
813.986	29102
814.127	28991
814.268	28797
814.41	28843
814.551	28824
814.692	28896
814.833	28850
814.974	28820
815.115	28744
815.256	28622
815.397	28660
815.539	28649
815.68	28736
815.821	28546
815.962	28672
816.103	28500
816.244	28512
816.385	28276
816.526	28390
816.666	28162
816.807	28112
816.948	28261
817.089	28268
817.23	28082
817.371	28055
817.512	28128
817.653	28067
817.793	28074
817.934	28177
818.075	28139
818.216	27880
818.356	28192
818.497	27869
818.638	27831
818.778	27823
818.919	28013
819.06	27793
819.2	28002
819.341	28230
819.481	28147
819.622	28143
819.762	28527
819.903	28432
820.043	28337
820.184	28268
820.324	28211
820.465	28143
820.605	28154
820.746	28249
820.886	28166
821.026	28253
821.167	28166
821.307	28306
821.447	28105
821.588	28154
821.728	27854
821.868	27591
822.008	27595
822.149	27507
822.289	27614
822.429	27374
822.569	27310
822.709	27294
822.849	27184
822.99	27146
823.13	27062
823.27	27089
823.41	27024
823.55	26735
823.69	26891
823.83	27074
823.97	26857
824.11	26731
824.25	26670
824.389	26781
824.529	26743
824.669	26708
824.809	26849
824.949	26765
825.089	26853
825.228	26857
825.368	26575
825.508	26579
825.648	26613
825.787	26708
825.927	26804
826.067	26701
826.206	26590
826.346	26674
826.485	26815
826.625	26731
826.765	26682
826.904	26689
827.044	26453
827.183	26423
827.323	26309
827.462	26393
827.601	26351
827.741	26263
827.88	26423
828.02	26240
828.159	26301
828.298	26263
828.437	26324
828.577	26339
828.716	26347
828.855	26237
828.994	25887
829.134	26073
829.273	26088
829.412	26054
829.551	25974
829.69	26092
829.829	26016
829.968	26142
830.107	25989
830.246	26168
830.385	25974
830.524	25917
830.663	25875
830.802	25666
830.941	25487
831.08	25552
831.219	25658
831.357	25715
831.496	25791
831.635	25674
831.774	25499
831.913	25537
832.051	25396
832.19	25460
832.329	25537
832.467	25266
832.606	25164
832.744	25266
832.883	25327
833.022	25316
833.16	25202
833.299	25278
833.437	25396
833.576	25362
833.714	25388
833.852	25350
833.991	25335
834.129	25445
834.267	25529
834.406	25441
834.544	25533
834.682	25362
834.821	25293
834.959	25559
835.097	25263
835.235	25346
835.373	25365
835.511	25339
835.65	25270
835.788	25247
835.926	25008
836.064	25137
836.202	25145
836.34	25095
836.478	25335
836.615	25168
836.753	25187
836.891	25213
837.029	25369
837.167	25034
837.305	25023
837.443	25088
837.58	24973
837.718	25057
837.856	25076
837.993	24985
838.131	24962
838.269	24932
838.406	24932
838.544	24871
838.681	24604
838.819	24738
838.956	24547
839.094	24597
839.231	24429
839.369	24719
839.506	24791
839.643	24711
839.781	24456
839.918	24327
840.055	24532
840.193	24471
840.33	24342
840.467	24308
840.604	24467
840.742	24642
840.879	24350
841.016	24213
841.153	24380
841.29	24410
841.427	24243
841.564	24410
841.701	24273
841.838	24426
841.975	24281
842.112	24395
842.249	24209
842.385	24174
842.522	24429
842.659	24197
842.796	24049
842.933	24163
843.069	24110
843.206	24117
843.343	24190
843.479	24182
843.616	24136
843.752	23836
843.889	23878
844.025	24060
844.162	23942
844.298	23977
844.435	23863
844.571	23752
844.708	23889
844.844	24079
844.98	24079
845.117	24110
845.253	23897
845.389	23783
845.525	23798
845.661	23699
845.798	23619
845.934	23684
846.07	23600
846.206	23741
846.342	23684
846.478	23623
846.614	23383
846.75	23277
846.886	23410
847.022	23497
847.158	23436
847.294	23452
847.429	23376
847.565	23280
847.701	23547
847.837	23094
847.972	22927
848.108	23094
848.244	23132
848.379	22904
848.515	22900
848.65	22828
848.786	22938
848.921	23185
849.057	23124
849.192	22961
849.328	22919
849.463	22999
849.598	22858
849.734	22904
849.869	22816
850.004	22672
850.14	22790
850.275	22717
850.41	22630
850.545	22698
850.68	22584
850.815	22740
850.95	22755
851.085	22790
851.22	22790
851.355	22653
851.49	22713
851.625	22542
851.76	22713
851.895	22725
852.03	22641
852.165	22660
852.299	22763
852.434	22736
852.569	22733
852.703	22828
852.838	22755
852.973	22904
853.107	22847
853.242	22645
853.376	22516
853.511	22344
853.645	22538
853.78	22687
853.914	22508
854.048	22432
854.183	22516
854.317	22706
854.451	22744
854.585	22584
854.72	22615
854.854	22519
854.988	22424
855.122	22390
855.256	22390
855.39	22485
855.524	22577
855.658	22493
855.792	22462
855.926	22466
856.06	22459
856.194	22691
856.327	22489
856.461	22504
856.595	22516
856.729	22527
856.862	22630
856.996	22611
857.13	22569
857.263	22672
857.397	22459
857.53	22531
857.664	22588
857.797	22504
857.931	22607
858.064	22489
858.197	22675
858.331	22512
858.464	22409
858.597	22379
858.731	22535
858.864	22428
858.997	22493
859.13	22577
859.263	22615
859.396	22592
859.529	22603
859.662	22497
859.795	22371
859.928	22596
860.061	22675
860.194	22721
860.327	22516
860.46	22500
860.592	22599
860.725	22702
860.858	22592
860.99	22443
861.123	22474
861.256	22569
861.388	22550
861.521	23162
861.653	22470
861.786	22287
861.918	22356
862.05	22417
862.183	22481
862.315	22546
862.447	22516
862.58	22303
862.712	22341
862.844	22173
862.976	22348
863.108	22242
863.24	22599
863.372	22105
863.504	22272
863.636	22181
863.768	22318
863.9	22097
864.032	22284
864.164	22200
864.296	22204
864.428	22276
864.559	22295
864.691	22363
864.823	22268
864.954	22265
865.086	22291
865.217	22135
865.349	21991
865.48	22196
865.612	22006
865.743	22181
865.875	22097
866.006	22090
866.137	22124
866.269	22116
866.4	22192
866.531	22078
866.662	21968
866.793	22116
866.924	21903
867.055	22128
867.186	21968
867.317	22074
867.448	21956
867.579	22040
867.71	22040
867.841	22029
867.972	22158
868.103	22051
868.233	22150
868.364	22055
868.495	22070
868.625	22329
868.756	22344
868.886	22204
869.017	22299
869.147	22421
869.278	22363
869.408	22310
869.539	22265
869.669	22375
869.799	22303
869.929	22299
870.06	22386
870.19	22588
870.32	22546
870.45	22607
870.58	22637
870.71	22847
870.84	22755
870.97	22683
871.1	22668
871.23	22831
871.36	23003
871.489	22752
871.619	22744
871.749	22919
871.879	22896
872.008	22938
872.138	22866
872.267	22847
872.397	22706
872.526	22672
872.656	22607
872.785	22721
872.915	22889
873.044	22987
873.173	22877
873.303	23010
873.432	22892
873.561	23025
873.69	22889
873.819	22873
873.948	23029
874.077	22900
874.206	22782
874.335	22847
874.464	22965
874.593	23044
874.722	23056
874.851	23155
874.979	23166
875.108	23132
875.237	22980
875.365	23003
875.494	23052
875.623	23143
875.751	23044
875.88	23155
876.008	23204
876.136	23239
876.265	23596
876.393	23577
876.521	23547
876.65	23531
876.778	23425
876.906	23497
877.034	23353
877.162	23459
877.29	23349
877.418	23429
877.546	23368
877.674	23402
877.802	23497
877.93	23391
878.058	23360
878.185	23307
878.313	23402
878.441	23482
878.568	23277
878.696	23311
878.824	23505
878.951	23490
879.079	23573
879.206	23649
879.333	23668
879.461	23376
879.588	23562
879.715	23665
879.842	23748
879.97	23486
880.097	23235
880.224	23273
880.351	23326
880.478	23364
880.605	23162
880.732	23322
880.859	23467
880.986	23322
881.112	23288
881.239	23143
881.366	23048
881.493	22831
881.619	22854
881.746	22850
881.872	22683
881.999	22767
882.125	22786
882.252	22835
882.378	22694
882.505	22885
882.631	22744
882.757	22470
882.883	22596
883.01	22440
883.136	22341
883.262	22360
883.388	22318
883.514	22386
883.64	22436
883.766	22516
883.892	22223
884.018	22386
884.143	22421
884.269	22531
884.395	22109
884.52	22200
884.646	22090
884.772	22112
884.897	22010
885.023	22162
885.148	22188
885.274	22348
885.399	22196
885.524	22223
885.65	22226
885.775	22139
885.9	22128
886.025	22154
886.15	22382
886.275	22112
886.4	21991
886.525	21960
886.65	21956
886.775	22109
886.9	22219
887.025	22325
887.149	22105
887.274	22021
887.399	21873
887.523	21884
887.648	21797
887.773	21717
887.897	21835
888.021	21922
888.146	21968
888.27	21987
888.395	21968
888.519	21899
888.643	21876
888.767	21854
888.891	21682
889.015	21694
889.139	21663
889.263	21614
889.387	21641
889.511	21869
889.635	21705
889.759	21671
889.883	21675
890.006	21656
890.13	21682
890.254	21622
890.377	21583
890.501	21374
890.624	21359
890.748	21431
890.871	21363
890.995	21256
891.118	21142
891.241	21287
891.364	21393
891.488	21466
891.611	21161
891.734	21272
891.857	21256
891.98	21188
892.103	21336
892.226	21161
892.349	21161
892.471	20982
892.594	21180
892.717	21077
892.839	21230
892.962	21066
893.085	21180
893.207	21062
893.33	20990
893.452	20960
893.575	21066
893.697	21047
893.819	21275
893.941	21287
894.064	21222
894.186	21074
894.308	21013
894.43	21195
894.552	21287
894.674	21055
894.796	20979
894.918	21017
895.04	21043
895.161	21203
895.283	21066
895.405	20887
895.526	21104
895.648	21127
895.769	21062
895.891	21157
896.012	21173
896.134	21047
896.255	21142
896.376	20975
896.498	21161
896.619	21081
896.74	21074
896.861	21188
896.982	21374
897.103	21500
897.224	21386
897.345	21287
897.466	21321
897.587	21283
897.708	21424
897.828	21268
897.949	21260
898.07	21074
898.19	21169
898.311	21329
898.431	21302
898.552	21252
898.672	21272
898.792	21268
898.913	21260
899.033	21089
899.153	21066
899.273	20899
899.393	20990
899.513	20960
899.633	21013
899.753	20986
899.873	20872
899.993	20963
900.113	20872
900.232	20902
900.352	20971
900.472	20834
900.591	20762
900.711	20842
900.83	20716
900.95	20853
901.069	20845
901.189	20674
901.308	20473
901.427	20320
901.546	20476
901.665	20358
901.784	20404
901.904	20282
902.023	20138
902.141	19830
902.26	19936
902.379	19902
902.498	19913
902.617	19750
902.735	19997
902.854	19795
902.973	19776
903.091	19601
903.21	19415
903.328	19400
903.446	19460
903.565	19339
903.683	19358
903.801	19103
903.919	19240
904.038	19346
904.156	19099
904.274	19091
904.392	19137
904.51	19023
904.627	19057
904.745	19183
904.863	19061
904.981	18840
905.098	18741
905.216	18620
905.334	18798
905.451	18715
905.569	18688
905.686	18875
905.803	18798
905.921	18475
906.038	18623
906.155	18582
906.272	18448
906.389	18414
906.506	18254
906.623	18311
906.74	18167
906.857	18083
906.974	18129
907.091	18395
907.208	18330
907.324	18144
907.441	18155
907.557	17935
907.674	17999
907.79	18007
907.907	17984
908.023	18045
908.139	17904
908.256	17832
908.372	17786
908.488	17847
908.604	17562
908.72	17684
908.836	17653
908.952	17699
909.068	17733
909.184	17923
909.3	17642
909.415	17794
909.531	17535
909.647	17471
909.762	17501
909.878	17311
909.993	17334
910.108	17440
910.224	17284
910.339	17322
910.454	17239
910.57	17166
910.685	17128
910.8	17417
910.915	17269
911.03	17200
911.145	17056
911.259	16972
911.374	17010
911.489	16873
911.604	16908
911.718	16740
911.833	16733
911.947	16580
912.062	16485
912.176	16752
912.291	16679
912.405	16778
912.519	16976
912.633	16927
912.748	16706
912.862	16740
912.976	16421
913.09	16394
913.204	16436
913.318	16596
913.431	16599
913.545	16607
913.659	16500
913.772	16561
913.886	16379
914	16287
914.113	16440
914.226	16516
914.34	16360
914.453	16211
914.566	16322
914.68	16246
914.793	16226
914.906	16029
915.019	15884
915.132	15899
915.245	15876
915.358	15934
915.47	15918
915.583	15960
915.696	15994
915.809	16090
915.921	16059
916.034	15812
916.146	15812
916.259	15869
916.371	15789
916.483	15857
916.595	15759
916.708	15762
916.82	15751
916.932	15622
917.044	15652
917.156	15648
917.268	15469
917.38	15545
917.491	15515
917.603	15656
917.715	15561
917.826	15614
917.938	15477
918.049	15469
918.161	15542
918.272	15584
918.384	15595
918.495	15408
918.606	15302
918.717	15180
918.828	15374
918.939	15302
919.05	15222
919.161	15249
919.272	15039
919.383	15028
919.494	15367
919.604	15553
919.715	15233
919.826	15214
919.936	15173
920.047	15279
920.157	15275
920.267	15389
920.378	15199
920.488	15214
920.598	15397
920.708	15367
920.818	15336
920.928	15264
921.038	15530
921.148	15389
921.258	15165
921.368	15081
921.477	14933
921.587	15005
921.697	14868
921.806	14891
921.916	14899
922.025	14750
922.134	14663
922.244	14610
922.353	14522
922.462	14480
922.571	14400
922.68	14229
922.789	14225
922.898	14206
923.007	14149
923.116	14218
923.224	14142
923.333	14161
923.442	14096
923.55	14001
923.659	14054
923.767	14016
923.876	13970
923.984	13993
924.092	13917
924.201	13883
924.309	13898
924.417	13917
924.525	13868
924.633	13871
924.741	14674
924.849	13681
924.956	13769
925.064	13609
925.172	13544
925.279	13597
925.387	13556
925.494	13575
925.602	13586
925.709	13620
925.816	13445
925.924	13480
926.031	13632
926.138	13499
926.245	13636
926.352	13419
926.459	13521
926.566	13605
926.673	13510
926.779	13373
926.886	13350
926.993	13175
927.099	13133
927.206	13088
927.312	13179
927.419	13160
927.525	13095
927.631	13194
927.737	13012
927.843	12973
927.95	12894
928.056	13000
928.162	13004
928.267	12916
928.373	13594
928.479	12989
928.585	12878
928.69	12913
928.796	12924
928.901	12776
929.007	12768
929.112	12726
929.218	12745
929.323	12681
929.428	12623
929.533	12719
929.638	12616
929.743	12650
929.848	12700
929.953	12517
930.058	12502
930.163	12376
930.267	12308
930.372	12486
930.477	12357
930.581	12445
930.685	12384
930.79	12186
930.894	12247
930.998	12083
931.103	12308
931.207	11996
931.311	11866
931.415	11729
931.519	11627
931.623	11600
