Data from test_V78500241_542.txt Node
Date: Fri Mar 25 15:45:33 CST 2022
User: usil
Spectrometer: V785-0024
Trigger mode: 0
Integration Time (sec): 4.000000E-1
Scans to average: 1
Nonlinearity correction enabled: false
Boxcar width: 0
Storing dark spectrum: false
XAxis mode: Wavelengths
Number of Pixels in Spectrum: 1024
>>>>>Begin Spectral Data<<<<<
801.071	27979
801.214	27751
801.356	27488
801.499	27553
801.641	27367
801.783	27401
801.926	27427
802.068	27412
802.211	27188
802.353	27310
802.496	27062
802.638	26940
802.78	27013
802.923	27024
803.065	26910
803.208	26868
803.35	27020
803.492	27195
803.635	27203
803.777	27089
803.919	27138
804.061	27523
804.204	27252
804.346	27157
804.488	27123
804.63	27074
804.773	27119
804.915	27207
805.057	27473
805.199	27287
805.341	27386
805.483	27184
805.626	27260
805.768	27218
805.91	27325
806.052	27279
806.194	27252
806.336	27492
806.478	27348
806.62	27439
806.762	27405
806.904	27549
807.046	27972
807.188	27861
807.33	27701
807.472	27903
807.614	27667
807.756	27679
807.898	27534
808.04	27629
808.182	27686
808.324	27633
808.465	27622
808.607	27641
808.749	27869
808.891	27998
809.033	28234
809.174	28109
809.316	28067
809.458	28086
809.6	28029
809.741	28200
809.883	28207
810.025	28124
810.166	28284
810.308	28249
810.45	28215
810.591	28044
810.733	27979
810.875	27972
811.016	28040
811.158	27964
811.299	28070
811.441	28112
811.582	28207
811.724	27949
811.865	27960
812.007	28002
812.148	27960
812.29	27979
812.431	28207
812.573	28401
812.714	28390
812.855	28440
812.997	28584
813.138	28622
813.279	28675
813.421	28538
813.562	28481
813.703	28352
813.845	28169
813.986	27922
814.127	27880
814.268	27701
814.41	27690
814.551	27473
814.692	27625
814.833	27694
814.974	27561
815.115	27743
815.256	27561
815.397	27580
815.539	27698
815.68	27481
815.821	27325
815.962	27515
816.103	27386
816.244	27264
816.385	27180
816.526	27032
816.666	27119
816.807	26979
816.948	27184
817.089	27119
817.23	26887
817.371	27032
817.512	26838
817.653	27020
817.793	26883
817.934	26956
818.075	26948
818.216	26861
818.356	26868
818.497	26868
818.638	26598
818.778	26693
818.919	26773
819.06	26788
819.2	26792
819.341	26914
819.481	26906
819.622	27070
819.762	27230
819.903	27169
820.043	27165
820.184	26982
820.324	26910
820.465	27058
820.605	27100
820.746	26986
820.886	26842
821.026	26933
821.167	27001
821.307	27180
821.447	26876
821.588	26773
821.728	26823
821.868	26632
822.008	26453
822.149	26571
822.289	26473
822.429	26077
822.569	26024
822.709	26031
822.849	25906
822.99	25868
823.13	25879
823.27	25887
823.41	25655
823.55	25689
823.69	25738
823.83	25765
823.97	25761
824.11	25590
824.25	25426
824.389	25609
824.529	25632
824.669	25506
824.809	25803
824.949	25594
825.089	25670
825.228	25563
825.368	25396
825.508	25320
825.648	25369
825.787	25457
825.927	25487
826.067	25430
826.206	25339
826.346	25502
826.485	25514
826.625	25400
826.765	25468
826.904	25537
827.044	25206
827.183	25240
827.323	25183
827.462	25232
827.601	25110
827.741	25103
827.88	25141
828.02	25004
828.159	25110
828.298	25206
828.437	25118
828.577	24996
828.716	25335
828.855	24973
828.994	24856
829.134	24894
829.273	24916
829.412	24848
829.551	24783
829.69	24768
829.829	24817
829.968	24817
830.107	24894
830.246	24787
830.385	24749
830.524	24791
830.663	24570
830.802	24574
830.941	24437
831.08	24350
831.219	24452
831.357	24350
831.496	24601
831.635	24391
831.774	24403
831.913	24102
832.051	24232
832.19	24235
832.329	24110
832.467	24163
832.606	24133
832.744	24125
832.883	24114
833.022	24140
833.16	24060
833.299	24125
833.437	24091
833.576	24148
833.714	24159
833.852	24224
833.991	24186
834.129	24277
834.267	24155
834.406	24140
834.544	24186
834.682	24235
834.821	24152
834.959	24353
835.097	24022
835.235	24338
835.373	24064
835.511	24209
835.65	24041
835.788	23988
835.926	23767
836.064	23710
836.202	23821
836.34	24003
836.478	24072
836.615	23973
836.753	23954
836.891	24098
837.029	23996
837.167	23855
837.305	23901
837.443	23817
837.58	23741
837.718	24007
837.856	23729
837.993	23767
838.131	23824
838.269	23672
838.406	23687
838.544	23646
838.681	23414
838.819	23364
838.956	23269
839.094	23269
839.231	23189
839.369	23379
839.506	23646
839.643	23554
839.781	23303
839.918	23181
840.055	23242
840.193	23143
840.33	23220
840.467	23334
840.604	23303
840.742	23592
840.879	23086
841.016	23162
841.153	23083
841.29	23208
841.427	23162
841.564	23284
841.701	23379
841.838	23018
841.975	23166
842.112	23128
842.249	23010
842.385	23006
842.522	23189
842.659	23033
842.796	22980
842.933	22873
843.069	22854
843.206	23006
843.343	23117
843.479	22904
843.616	22991
843.752	22721
843.889	22782
844.025	22934
844.162	22736
844.298	22786
844.435	22702
844.571	22577
844.708	22759
844.844	22892
844.98	22717
845.117	22740
845.253	22702
845.389	22615
845.525	22664
845.661	22618
845.798	22554
845.934	22459
846.07	22360
846.206	22443
846.342	22649
846.478	22409
846.614	22325
846.75	22090
846.886	22238
847.022	22238
847.158	22287
847.294	22169
847.429	22268
847.565	22150
847.701	22390
847.837	22002
847.972	21838
848.108	21964
848.244	21987
848.379	21774
848.515	21838
848.65	21789
848.786	21774
848.921	21785
849.057	21842
849.192	21937
849.328	21819
849.463	21766
849.598	21701
849.734	21743
849.869	21614
850.004	21583
850.14	21564
850.275	21637
850.41	21435
850.545	21542
850.68	21488
850.815	21603
850.95	21507
851.085	21797
851.22	21728
851.355	21538
851.49	21526
851.625	21447
851.76	21561
851.895	21477
852.03	21542
852.165	21652
852.299	21686
852.434	21549
852.569	21492
852.703	21401
852.838	21625
852.973	21682
853.107	21599
853.242	21435
853.376	21389
853.511	21245
853.645	21268
853.78	21488
853.914	21473
854.048	21340
854.183	21287
854.317	21378
854.451	21553
854.585	21302
854.72	21359
854.854	21485
854.988	21264
855.122	21367
855.256	21222
855.39	21344
855.524	21382
855.658	21359
855.792	21367
855.926	21450
856.06	21420
856.194	21439
856.327	21363
856.461	21340
856.595	21310
856.729	21306
856.862	21523
856.996	21370
857.13	21397
857.263	21492
857.397	21526
857.53	21397
857.664	21462
857.797	21393
857.931	21515
858.064	21382
858.197	21458
858.331	21310
858.464	21344
858.597	21256
858.731	21462
858.864	21344
858.997	21199
859.13	21382
859.263	21382
859.396	21416
859.529	21195
859.662	21283
859.795	21351
859.928	21367
860.061	21500
860.194	21679
860.327	21511
860.46	21382
860.592	21538
860.725	21523
860.858	21542
860.99	21389
861.123	21310
861.256	21382
861.388	21302
861.521	22097
861.653	21230
861.786	21180
861.918	21150
862.05	21226
862.183	21264
862.315	21294
862.447	21405
862.58	21214
862.712	21123
862.844	21001
862.976	21047
863.108	21142
863.24	21587
863.372	20990
863.504	21131
863.636	20979
863.768	21058
863.9	21100
864.032	21051
864.164	21055
864.296	21039
864.428	21237
864.559	21104
864.691	21039
864.823	21116
864.954	21192
865.086	20960
865.217	20910
865.349	20971
865.48	20967
865.612	20944
865.743	21123
865.875	20975
866.006	20933
866.137	20971
866.269	20990
866.4	20899
866.531	20800
866.662	20853
866.793	20941
866.924	20971
867.055	20857
867.186	20975
867.317	20963
867.448	20701
867.579	20906
867.71	20800
867.841	20849
867.972	20819
868.103	20857
868.233	20941
868.364	20933
868.495	21020
868.625	21032
868.756	21291
868.886	21112
869.017	21135
869.147	21294
869.278	21192
869.408	21268
869.539	21176
869.669	21104
869.799	21195
869.929	21317
870.06	21256
870.19	21496
870.32	21485
870.45	21523
870.58	21382
870.71	21625
870.84	21663
870.97	21511
871.1	21561
871.23	21743
871.36	21705
871.489	21515
871.619	21694
871.749	21755
871.879	21739
872.008	21865
872.138	21785
872.267	21732
872.397	21682
872.526	21549
872.656	21572
872.785	21515
872.915	21751
873.044	21793
873.173	21736
873.303	21884
873.432	21793
873.561	21850
873.69	21705
873.819	21770
873.948	21953
874.077	21869
874.206	21629
874.335	21804
874.464	21812
874.593	22006
874.722	22078
874.851	22051
874.979	22078
875.108	22036
875.237	21793
875.365	21899
875.494	21991
875.623	22097
875.751	21876
875.88	22044
876.008	21972
876.136	22158
876.265	22303
876.393	22455
876.521	22356
876.65	22493
876.778	22485
876.906	22265
877.034	22295
877.162	22352
877.29	22394
877.418	22291
877.546	22318
877.674	22352
877.802	22238
877.93	22299
878.058	22246
878.185	22276
878.313	22253
878.441	22333
878.568	22272
878.696	22314
878.824	22310
878.951	22421
879.079	22474
879.206	22607
879.333	22489
879.461	22363
879.588	22546
879.715	22611
879.842	22645
879.97	22371
880.097	22128
880.224	22105
880.351	22090
880.478	22135
880.605	21998
880.732	22204
880.859	22386
880.986	22204
881.112	22109
881.239	21991
881.366	21922
881.493	21819
881.619	21736
881.746	21675
881.872	21827
881.999	21846
882.125	21720
882.252	21762
882.378	21804
882.505	21838
882.631	21553
882.757	21492
882.883	21519
883.01	21462
883.136	21389
883.262	21222
883.388	21245
883.514	21519
883.64	21545
883.766	21359
883.892	21245
884.018	21245
884.143	21424
884.269	21367
884.395	21199
884.52	21077
884.646	21005
884.772	21108
884.897	20971
885.023	21017
885.148	21188
885.274	21241
885.399	21233
885.524	21123
885.65	21161
885.775	21047
885.9	21039
886.025	21176
886.15	21058
886.275	21032
886.4	20967
886.525	21028
886.65	21017
886.775	20948
886.9	21199
887.025	21275
887.149	20956
887.274	20918
887.399	20804
887.523	20830
887.648	20705
887.773	20712
887.897	20933
888.021	20914
888.146	20864
888.27	20899
888.395	20960
888.519	20830
888.643	20800
888.767	20883
888.891	20663
889.015	20587
889.139	20667
889.263	20617
889.387	20689
889.511	20830
889.635	20769
889.759	20590
889.883	20579
890.006	20613
890.13	20716
890.254	20609
890.377	20400
890.501	20370
890.624	20385
890.748	20362
890.871	20259
890.995	20180
891.118	20134
891.241	20191
891.364	20145
891.488	20362
891.611	20252
891.734	20157
891.857	20275
891.98	20252
892.103	20191
892.226	20214
892.349	19993
892.471	20008
892.594	20256
892.717	20202
892.839	19997
892.962	20065
893.085	20233
893.207	20145
893.33	20031
893.452	20081
893.575	20252
893.697	20130
893.819	20332
893.941	20256
894.064	20237
894.186	20084
894.308	20001
894.43	20229
894.552	20157
894.674	20149
894.796	19982
894.918	20024
895.04	20100
895.161	20176
895.283	20020
895.405	20073
895.526	20115
895.648	20077
895.769	20084
895.891	20286
896.012	20142
896.134	20183
896.255	20122
896.376	20020
896.498	20039
896.619	20134
896.74	20008
896.861	20210
896.982	20438
897.103	20571
897.224	20438
897.345	20377
897.466	20263
897.587	20202
897.708	20431
897.828	20313
897.949	20317
898.07	20210
898.19	20259
898.311	20446
898.431	20301
898.552	20358
898.672	20438
898.792	20332
898.913	20320
899.033	20172
899.153	20084
899.273	20035
899.393	20100
899.513	20088
899.633	20084
899.753	20050
899.873	20050
899.993	20153
900.113	19986
900.232	20043
900.352	19955
900.472	19890
900.591	19845
900.711	19940
900.83	19826
900.95	19921
901.069	19890
901.189	19693
901.308	19571
901.427	19514
901.546	19384
901.665	19483
901.784	19407
901.904	19324
902.023	19232
902.141	19072
902.26	19034
902.379	19019
902.498	19076
902.617	19034
902.735	19023
902.854	18833
902.973	18829
903.091	18612
903.21	18585
903.328	18722
903.446	18597
903.565	18433
903.683	18437
903.801	18429
903.919	18327
904.038	18342
904.156	18201
904.274	18262
904.392	18148
904.51	18148
904.627	18296
904.745	18235
904.863	18235
904.981	17996
905.098	17889
905.216	17939
905.334	17939
905.451	17920
905.569	17874
905.686	17874
905.803	17836
905.921	17748
906.038	17866
906.155	17798
906.272	17528
906.389	17554
906.506	17493
906.623	17383
906.74	17425
906.857	17398
906.974	17360
907.091	17429
907.208	17558
907.324	17402
907.441	17265
907.557	17216
907.674	17212
907.79	17124
907.907	17128
908.023	17075
908.139	17128
908.256	17033
908.372	17056
908.488	16858
908.604	16900
908.72	16809
908.836	16965
908.952	16793
909.068	16816
909.184	16946
909.3	16866
909.415	16854
909.531	16801
909.647	16550
909.762	16519
909.878	16451
909.993	16508
910.108	16538
910.224	16493
910.339	16558
910.454	16352
910.57	16447
910.685	16257
910.8	16542
910.915	16527
911.03	16390
911.145	16238
911.259	16147
911.374	16067
911.489	16067
911.604	15956
911.718	15945
911.833	15823
911.947	15884
912.062	15743
912.176	15869
912.291	15964
912.405	15869
912.519	16086
912.633	16074
912.748	15911
912.862	15922
912.976	15675
913.09	15610
913.204	15595
913.318	15663
913.431	15785
913.545	15652
913.659	15835
913.772	15698
913.886	15523
914	15378
914.113	15599
914.226	15618
914.34	15568
914.453	15412
914.566	15663
914.68	15435
914.793	15310
914.906	15241
915.019	15142
915.132	15138
915.245	15116
915.358	15070
915.47	15192
915.583	14975
915.696	15058
915.809	15199
915.921	15264
916.034	15081
916.146	15020
916.259	14975
916.371	15097
916.483	15017
916.595	14967
916.708	14994
916.82	14979
916.932	14853
917.044	14883
917.156	14773
917.268	14781
917.38	14758
917.491	14731
917.603	14777
917.715	14792
917.826	14815
917.938	14712
918.049	14556
918.161	14739
918.272	14834
918.384	14861
918.495	14594
918.606	14552
918.717	14461
918.828	14606
918.939	14583
919.05	14457
919.161	14503
919.272	14377
919.383	14374
919.494	14533
919.604	14686
919.715	14522
919.826	14461
919.936	14480
920.047	14644
920.157	14492
920.267	14754
920.378	14507
920.488	14473
920.598	14655
920.708	14834
920.818	14636
920.928	14602
921.038	14720
921.148	14720
921.258	14404
921.368	14374
921.477	14233
921.587	14225
921.697	14119
921.806	14210
921.916	14081
922.025	13974
922.134	13864
922.244	13871
922.353	13849
922.462	13765
922.571	13742
922.68	13548
922.789	13563
922.898	13537
923.007	13460
923.116	13480
923.224	13445
923.333	13514
923.442	13304
923.55	13346
923.659	13289
923.767	13388
923.876	13289
923.984	13388
924.092	13217
924.201	13369
924.309	13187
924.417	13187
924.525	13206
924.633	13228
924.741	13932
924.849	13023
924.956	13133
925.064	13084
925.172	12833
925.279	12920
925.387	12970
925.494	12875
925.602	13023
925.709	13019
925.816	12837
925.924	12871
926.031	12966
926.138	12795
926.245	12882
926.352	12772
926.459	12920
926.566	12932
926.673	12840
926.779	12711
926.886	12681
926.993	12559
927.099	12574
927.206	12418
927.312	12471
927.419	12578
927.525	12475
927.631	12441
927.737	12376
927.843	12353
927.95	12209
928.056	12292
928.162	12327
928.267	12399
928.373	12966
928.479	12437
928.585	12087
928.69	12270
928.796	12292
928.901	12277
929.007	12041
929.112	12205
929.218	12178
929.323	12079
929.428	12041
929.533	12140
929.638	11988
929.743	11950
929.848	12007
929.953	11980
930.058	11832
930.163	11767
930.267	11771
930.372	11878
930.477	11714
930.581	11893
930.685	11805
930.79	11630
930.894	11649
930.998	11642
931.103	11733
931.207	11334
931.311	11353
931.415	11261
931.519	11018
931.623	11025
