Data from test_V78500241_924.txt Node
Date: Fri Mar 25 15:48:12 CST 2022
User: usil
Spectrometer: V785-0024
Trigger mode: 0
Integration Time (sec): 4.000000E-1
Scans to average: 1
Nonlinearity correction enabled: false
Boxcar width: 0
Storing dark spectrum: false
XAxis mode: Wavelengths
Number of Pixels in Spectrum: 1024
>>>>>Begin Spectral Data<<<<<
801.071	28021
801.214	28032
801.356	27728
801.499	27561
801.641	27473
801.783	27435
801.926	27534
802.068	27519
802.211	27477
802.353	27389
802.496	27161
802.638	27024
802.78	27173
802.923	27032
803.065	27039
803.208	27089
803.35	27207
803.492	27279
803.635	27283
803.777	27188
803.919	27325
804.061	27663
804.204	27488
804.346	27218
804.488	27180
804.63	27370
804.773	27260
804.915	27408
805.057	27466
805.199	27332
805.341	27386
805.483	27435
805.626	27564
805.768	27534
805.91	27462
806.052	27462
806.194	27420
806.336	27682
806.478	27469
806.62	27530
806.762	27739
806.904	27907
807.046	27979
807.188	28010
807.33	27987
807.472	27888
807.614	27831
807.756	27922
807.898	27880
808.04	27781
808.182	27869
808.324	27873
808.465	27797
808.607	28112
808.749	28261
808.891	28139
809.033	28322
809.174	28097
809.316	28128
809.458	28086
809.6	28162
809.741	28272
809.883	28440
810.025	28440
810.166	28531
810.308	28504
810.45	28371
810.591	28310
810.733	28207
810.875	28154
811.016	28051
811.158	28063
811.299	28265
811.441	28325
811.582	28341
811.724	28139
811.865	28185
812.007	28112
812.148	28093
812.29	28219
812.431	28337
812.573	28478
812.714	28580
812.855	28725
812.997	28778
813.138	28797
813.279	28656
813.421	28748
813.562	28710
813.703	28592
813.845	28295
813.986	28112
814.127	28109
814.268	27800
814.41	27816
814.551	27819
814.692	28002
814.833	27762
814.974	27770
815.115	27998
815.256	27720
815.397	27762
815.539	27629
815.68	27641
815.821	27614
815.962	27587
816.103	27583
816.244	27504
816.385	27523
816.526	27485
816.666	27329
816.807	27154
816.948	27070
817.089	27268
817.23	27272
817.371	27131
817.512	27123
817.653	27154
817.793	26982
817.934	27199
818.075	27184
818.216	27119
818.356	27074
818.497	26948
818.638	26807
818.778	26906
818.919	26940
819.06	27043
819.2	27043
819.341	27157
819.481	27096
819.622	27230
819.762	27492
819.903	27382
820.043	27348
820.184	27230
820.324	27146
820.465	27230
820.605	27393
820.746	27260
820.886	27036
821.026	27241
821.167	27135
821.307	27211
821.447	27226
821.588	27055
821.728	26883
821.868	26781
822.008	26583
822.149	26617
822.289	26686
822.429	26351
822.569	26244
822.709	26351
822.849	26153
822.99	26206
823.13	26145
823.27	26130
823.41	26020
823.55	25909
823.69	25974
823.83	25970
823.97	25925
824.11	25715
824.25	25662
824.389	25666
824.529	25807
824.669	25746
824.809	25913
824.949	25887
825.089	25822
825.228	25868
825.368	25472
825.508	25658
825.648	25624
825.787	25674
825.927	25769
826.067	25632
826.206	25670
826.346	25677
826.485	25628
826.625	25582
826.765	25811
826.904	25575
827.044	25373
827.183	25358
827.323	25464
827.462	25491
827.601	25400
827.741	25362
827.88	25373
828.02	25270
828.159	25198
828.298	25331
828.437	25537
828.577	25293
828.716	25369
828.855	25255
828.994	25171
829.134	25015
829.273	25008
829.412	25031
829.551	25000
829.69	24970
829.829	25160
829.968	25084
830.107	24966
830.246	24951
830.385	24867
830.524	24951
830.663	24928
830.802	24810
830.941	24707
831.08	24604
831.219	24639
831.357	24616
831.496	24848
831.635	24753
831.774	24563
831.913	24570
832.051	24422
832.19	24513
832.329	24479
832.467	24330
832.606	24285
832.744	24311
832.883	24308
833.022	24239
833.16	24323
833.299	24376
833.437	24403
833.576	24399
833.714	24509
833.852	24350
833.991	24418
834.129	24426
834.267	24448
834.406	24350
834.544	24361
834.682	24479
834.821	24426
834.959	24483
835.097	24315
835.235	24452
835.373	24304
835.511	24273
835.65	24060
835.788	24102
835.926	24159
836.064	24022
836.202	24140
836.34	24243
836.478	24330
836.615	24270
836.753	24266
836.891	24239
837.029	24171
837.167	24174
837.305	24110
837.443	24068
837.58	24083
837.718	24091
837.856	24117
837.993	23916
838.131	24060
838.269	23969
838.406	24053
838.544	23726
838.681	23775
838.819	23623
838.956	23406
839.094	23558
839.231	23585
839.369	23691
839.506	23965
839.643	23710
839.781	23417
839.918	23452
840.055	23623
840.193	23360
840.33	23356
840.467	23501
840.604	23455
840.742	23798
840.879	23284
841.016	23376
841.153	23322
841.29	23455
841.427	23459
841.564	23330
841.701	23414
841.838	23318
841.975	23349
842.112	23349
842.249	23162
842.385	23239
842.522	23486
842.659	23299
842.796	23128
842.933	23200
843.069	23140
843.206	23147
843.343	23181
843.479	23223
843.616	23269
843.752	22942
843.889	22987
844.025	23105
844.162	22972
844.298	23041
844.435	22892
844.571	22995
844.708	22987
844.844	23185
844.98	23086
845.117	23018
845.253	22976
845.389	22752
845.525	22942
845.661	22622
845.798	22664
845.934	22702
846.07	22573
846.206	22672
846.342	22687
846.478	22744
846.614	22466
846.75	22424
846.886	22386
847.022	22489
847.158	22348
847.294	22409
847.429	22455
847.565	22352
847.701	22645
847.837	22154
847.972	22059
848.108	22265
848.244	22299
848.379	22078
848.515	22025
848.65	22036
848.786	21994
848.921	22036
849.057	22078
849.192	21926
849.328	22147
849.463	22006
849.598	22017
849.734	21953
849.869	21884
850.004	21835
850.14	21778
850.275	21797
850.41	21781
850.545	21709
850.68	21869
850.815	21846
850.95	21816
851.085	21949
851.22	21747
851.355	21899
851.49	21816
851.625	21762
851.76	21778
851.895	21637
852.03	21671
852.165	21770
852.299	21804
852.434	21949
852.569	21816
852.703	21781
852.838	21831
852.973	21994
853.107	21857
853.242	21599
853.376	21637
853.511	21481
853.645	21599
853.78	21625
853.914	21694
854.048	21496
854.183	21648
854.317	21663
854.451	21781
854.585	21561
854.72	21599
854.854	21724
854.988	21576
855.122	21656
855.256	21496
855.39	21587
855.524	21679
855.658	21641
855.792	21656
855.926	21561
856.06	21713
856.194	21701
856.327	21572
856.461	21591
856.595	21515
856.729	21629
856.862	21701
856.996	21625
857.13	21652
857.263	21755
857.397	21675
857.53	21606
857.664	21766
857.797	21717
857.931	21667
858.064	21728
858.197	21648
858.331	21637
858.464	21572
858.597	21500
858.731	21614
858.864	21576
858.997	21694
859.13	21618
859.263	21690
859.396	21622
859.529	21568
859.662	21549
859.795	21500
859.928	21564
860.061	21797
860.194	21762
860.327	21523
860.46	21576
860.592	21682
860.725	21842
860.858	21743
860.99	21698
861.123	21568
861.256	21603
861.388	21633
861.521	22390
861.653	21397
861.786	21450
861.918	21473
862.05	21454
862.183	21549
862.315	21526
862.447	21591
862.58	21618
862.712	21336
862.844	21298
862.976	21424
863.108	21367
863.24	21583
863.372	21233
863.504	21325
863.636	21321
863.768	21302
863.9	21306
864.032	21188
864.164	21287
864.296	21439
864.428	21386
864.559	21291
864.691	21367
864.823	21370
864.954	21283
865.086	21237
865.217	21279
865.349	21127
865.48	21214
865.612	21169
865.743	21237
865.875	21192
866.006	21226
866.137	21188
866.269	21127
866.4	21142
866.531	21214
866.662	21100
866.793	21173
866.924	21154
867.055	21207
867.186	21112
867.317	21192
867.448	20967
867.579	21096
867.71	21032
867.841	21100
867.972	21214
868.103	21176
868.233	21138
868.364	21096
868.495	21306
868.625	21348
868.756	21488
868.886	21237
869.017	21351
869.147	21458
869.278	21469
869.408	21279
869.539	21378
869.669	21408
869.799	21408
869.929	21515
870.06	21488
870.19	21595
870.32	21595
870.45	21648
870.58	21663
870.71	21915
870.84	21873
870.97	21625
871.1	21690
871.23	21907
871.36	21960
871.489	21819
871.619	21915
871.749	21880
871.879	21979
872.008	22048
872.138	21934
872.267	22040
872.397	21812
872.526	21724
872.656	21808
872.785	21911
872.915	21994
873.044	21994
873.173	21956
873.303	21975
873.432	22040
873.561	22059
873.69	21972
873.819	21975
873.948	22101
874.077	21975
874.206	21865
874.335	22032
874.464	21975
874.593	22257
874.722	22101
874.851	22143
874.979	22230
875.108	22295
875.237	22112
875.365	22223
875.494	22105
875.623	22257
875.751	22116
875.88	22230
876.008	22337
876.136	22394
876.265	22550
876.393	22786
876.521	22729
876.65	22729
876.778	22565
876.906	22592
877.034	22424
877.162	22599
877.29	22497
877.418	22542
877.546	22508
877.674	22607
877.802	22622
877.93	22573
878.058	22527
878.185	22337
878.313	22512
878.441	22550
878.568	22299
878.696	22470
878.824	22630
878.951	22668
879.079	22637
879.206	22881
879.333	22805
879.461	22656
879.588	22679
879.715	22706
879.842	22858
879.97	22615
880.097	22257
880.224	22333
880.351	22329
880.478	22337
880.605	22246
880.732	22394
880.859	22634
880.986	22436
881.112	22489
881.239	22230
881.366	22040
881.493	22036
881.619	21979
881.746	22013
881.872	21964
881.999	21850
882.125	21831
882.252	22002
882.378	21899
882.505	21960
882.631	21743
882.757	21641
882.883	21656
883.01	21568
883.136	21553
883.262	21534
883.388	21416
883.514	21675
883.64	21610
883.766	21530
883.892	21420
884.018	21439
884.143	21549
884.269	21622
884.395	21355
884.52	21317
884.646	21435
884.772	21226
884.897	21245
885.023	21218
885.148	21291
885.274	21466
885.399	21370
885.524	21298
885.65	21336
885.775	21287
885.9	21146
886.025	21325
886.15	21188
886.275	21272
886.4	21116
886.525	21161
886.65	21154
886.775	21165
886.9	21313
887.025	21488
887.149	21195
887.274	21005
887.399	21070
887.523	20979
887.648	20883
887.773	20925
887.897	21089
888.021	21047
888.146	20982
888.27	21100
888.395	21173
888.519	21135
888.643	21108
888.767	21096
888.891	20918
889.015	20956
889.139	20925
889.263	20796
889.387	20994
889.511	21020
889.635	20902
889.759	20758
889.883	20792
890.006	20796
890.13	20994
890.254	20796
890.377	20720
890.501	20655
890.624	20495
890.748	20625
890.871	20556
890.995	20438
891.118	20282
891.241	20309
891.364	20423
891.488	20541
891.611	20370
891.734	20632
891.857	20446
891.98	20412
892.103	20374
892.226	20298
892.349	20336
892.471	20138
892.594	20252
892.717	20343
892.839	20259
892.962	20271
893.085	20438
893.207	20290
893.33	20176
893.452	20218
893.575	20275
893.697	20294
893.819	20518
893.941	20609
894.064	20419
894.186	20259
894.308	20157
894.43	20347
894.552	20454
894.674	20305
894.796	20290
894.918	20298
895.04	20218
895.161	20343
895.283	20317
895.405	20199
895.526	20313
895.648	20237
895.769	20377
895.891	20282
896.012	20324
896.134	20278
896.255	20244
896.376	20259
896.498	20438
896.619	20370
896.74	20301
896.861	20511
896.982	20583
897.103	20857
897.224	20522
897.345	20549
897.466	20438
897.587	20541
897.708	20663
897.828	20503
897.949	20587
898.07	20457
898.19	20530
898.311	20644
898.431	20465
898.552	20488
898.672	20621
898.792	20579
898.913	20549
899.033	20469
899.153	20358
899.273	20256
899.393	20355
899.513	20237
899.633	20267
899.753	20267
899.873	20259
899.993	20351
900.113	20256
900.232	20320
900.352	20237
900.472	20050
900.591	20153
900.711	20153
900.83	19963
900.95	20069
901.069	20130
901.189	19921
901.308	19742
901.427	19639
901.546	19624
901.665	19525
901.784	19655
901.904	19438
902.023	19381
902.141	19213
902.26	19171
902.379	19225
902.498	19263
902.617	19126
902.735	19175
902.854	19107
902.973	19034
903.091	18867
903.21	18837
903.328	18814
903.446	18688
903.565	18650
903.683	18608
903.801	18593
903.919	18692
904.038	18631
904.156	18422
904.274	18414
904.392	18277
904.51	18410
904.627	18247
904.745	18448
904.863	18399
904.981	18308
905.098	17961
905.216	17946
905.334	18026
905.451	18057
905.569	17904
905.686	18106
905.803	18022
905.921	17874
906.038	18022
906.155	17855
906.272	17771
906.389	17882
906.506	17577
906.623	17551
906.74	17551
906.857	17444
906.974	17554
907.091	17729
907.208	17771
907.324	17608
907.441	17421
907.557	17356
907.674	17364
907.79	17315
907.907	17356
908.023	17288
908.139	17284
908.256	17200
908.372	17128
908.488	17181
908.604	17060
908.72	16991
908.836	17075
908.952	16961
909.068	17079
909.184	17079
909.3	17083
909.415	17086
909.531	16957
909.647	16839
909.762	16725
909.878	16717
909.993	16774
910.108	16675
910.224	16615
910.339	16675
910.454	16523
910.57	16554
910.685	16367
910.8	16733
910.915	16675
911.03	16443
911.145	16310
911.259	16276
911.374	16272
911.489	16257
911.604	16185
911.718	15949
911.833	16131
911.947	16082
912.062	15895
912.176	16048
912.291	15998
912.405	16086
912.519	16287
912.633	16139
912.748	16181
912.862	16086
912.976	15945
913.09	15717
913.204	15831
913.318	15827
913.431	15991
913.545	15865
913.659	15964
913.772	15793
913.886	15686
914	15686
914.113	15778
914.226	15743
914.34	15713
914.453	15614
914.566	15713
914.68	15481
914.793	15519
914.906	15291
915.019	15272
915.132	15195
915.245	15203
915.358	15317
915.47	15180
915.583	15268
915.696	15264
915.809	15363
915.921	15367
916.034	15222
916.146	15241
916.259	15199
916.371	15154
916.483	15199
916.595	15013
916.708	15112
916.82	15085
916.932	14998
917.044	15005
917.156	15028
917.268	14883
917.38	14998
917.491	14864
917.603	14811
917.715	15001
917.826	14994
917.938	14864
918.049	14777
918.161	14826
918.272	15028
918.384	14994
918.495	14777
918.606	14644
918.717	14617
918.828	14746
918.939	14716
919.05	14686
919.161	14541
919.272	14545
919.383	14507
919.494	14773
919.604	14826
919.715	14686
919.826	14537
919.936	14587
920.047	14720
920.157	14549
920.267	14823
920.378	14594
920.488	14571
920.598	14743
920.708	14868
920.818	14686
920.928	14705
921.038	14800
921.148	14853
921.258	14636
921.368	14518
921.477	14438
921.587	14434
921.697	14206
921.806	14305
921.916	14187
922.025	14088
922.134	14039
922.244	13887
922.353	14035
922.462	13856
922.571	13814
922.68	13647
922.789	13582
922.898	13738
923.007	13514
923.116	13605
923.224	13643
923.333	13681
923.442	13540
923.55	13510
923.659	13480
923.767	13518
923.876	13377
923.984	13441
924.092	13304
924.201	13415
924.309	13419
924.417	13373
924.525	13266
924.633	13324
924.741	14195
924.849	13099
924.956	13228
925.064	13145
925.172	12989
925.279	12981
925.387	13042
925.494	13107
925.602	13164
925.709	13202
925.816	12920
925.924	13015
926.031	13080
926.138	13053
926.245	13069
926.352	12901
926.459	13042
926.566	13126
926.673	12916
926.779	12768
926.886	12753
926.993	12662
927.099	12688
927.206	12665
927.312	12566
927.419	12673
927.525	12616
927.631	12692
927.737	12525
927.843	12464
927.95	12403
928.056	12376
928.162	12509
928.267	12475
928.373	13038
928.479	12521
928.585	12289
928.69	12388
928.796	12414
928.901	12304
929.007	12190
929.112	12296
929.218	12262
929.323	12247
929.428	12213
929.533	12228
929.638	12136
929.743	12087
929.848	12125
929.953	12155
930.058	11958
930.163	11889
930.267	11832
930.372	12003
930.477	11847
930.581	12038
930.685	11828
930.79	11680
930.894	11764
930.998	11714
931.103	11870
931.207	11516
931.311	11425
931.415	11326
931.519	11064
931.623	11075
