Data from test_V78500241_2628.txt Node
Date: Fri Mar 25 16:00:00 CST 2022
User: usil
Spectrometer: V785-0024
Trigger mode: 0
Integration Time (sec): 4.000000E-1
Scans to average: 1
Nonlinearity correction enabled: false
Boxcar width: 0
Storing dark spectrum: false
XAxis mode: Wavelengths
Number of Pixels in Spectrum: 1024
>>>>>Begin Spectral Data<<<<<
801.071	29159
801.214	28923
801.356	28668
801.499	28862
801.641	28519
801.783	28679
801.926	28675
802.068	28626
802.211	28478
802.353	28443
802.496	28207
802.638	28230
802.78	28230
802.923	28272
803.065	28154
803.208	28314
803.35	28363
803.492	28436
803.635	28508
803.777	28394
803.919	28519
804.061	28904
804.204	28607
804.346	28474
804.488	28394
804.63	28615
804.773	28474
804.915	28512
805.057	28759
805.199	28611
805.341	28687
805.483	28691
805.626	28675
805.768	28474
805.91	28656
806.052	28691
806.194	28519
806.336	28919
806.478	28752
806.62	28615
806.762	28980
806.904	28976
807.046	29318
807.188	29151
807.33	29170
807.472	29231
807.614	29147
807.756	29258
807.898	28919
808.04	28927
808.182	29067
808.324	29003
808.465	29033
808.607	29330
808.749	29318
808.891	29417
809.033	29520
809.174	29474
809.316	29463
809.458	29372
809.6	29349
809.741	29589
809.883	29474
810.025	29790
810.166	29748
810.308	29847
810.45	29676
810.591	29661
810.733	29531
810.875	29402
811.016	29360
811.158	29410
811.299	29444
811.441	29691
811.582	29505
811.724	29349
811.865	29429
812.007	29433
812.148	29558
812.29	29566
812.431	29619
812.573	29802
812.714	29878
812.855	30064
812.997	30083
813.138	30277
813.279	30159
813.421	30155
813.562	29988
813.703	29703
813.845	29680
813.986	29482
814.127	29330
814.268	29212
814.41	29292
814.551	29162
814.692	29098
814.833	29075
814.974	29143
815.115	29235
815.256	28923
815.397	29094
815.539	29010
815.68	28953
815.821	28942
815.962	29060
816.103	29060
816.244	28892
816.385	28736
816.526	28809
816.666	28641
816.807	28451
816.948	28645
817.089	28618
817.23	28379
817.371	28485
817.512	28493
817.653	28516
817.793	28348
817.934	28417
818.075	28485
818.216	28557
818.356	28382
818.497	28242
818.638	28143
818.778	28344
818.919	28386
819.06	28371
819.2	28394
819.341	28478
819.481	28413
819.622	28805
819.762	28968
819.903	28679
820.043	28713
820.184	28660
820.324	28523
820.465	28729
820.605	28710
820.746	28653
820.886	28504
821.026	28447
821.167	28527
821.307	28599
821.447	28531
821.588	28363
821.728	28310
821.868	28253
822.008	28097
822.149	27960
822.289	28029
822.429	27667
822.569	27656
822.709	27583
822.849	27580
822.99	27378
823.13	27393
823.27	27435
823.41	27294
823.55	27241
823.69	27256
823.83	27142
823.97	27249
824.11	27123
824.25	26929
824.389	27161
824.529	27279
824.669	27135
824.809	27226
824.949	27298
825.089	27218
825.228	27161
825.368	27062
825.508	26819
825.648	27036
825.787	27070
825.927	27173
826.067	26845
826.206	26929
826.346	27077
826.485	27005
826.625	26921
826.765	27207
826.904	27074
827.044	26670
827.183	26731
827.323	26606
827.462	26739
827.601	26735
827.741	26788
827.88	26845
828.02	26632
828.159	26640
828.298	26800
828.437	26716
828.577	26682
828.716	26845
828.855	26636
828.994	26552
829.134	26400
829.273	26503
829.412	26339
829.551	26282
829.69	26324
829.829	26404
829.968	26560
830.107	26480
830.246	26389
830.385	26328
830.524	26351
830.663	26218
830.802	26096
830.941	25936
831.08	26008
831.219	26103
831.357	26138
831.496	26385
831.635	26081
831.774	25993
831.913	25887
832.051	25761
832.19	25742
832.329	25814
832.467	25727
832.606	25639
832.744	25647
832.883	25727
833.022	25734
833.16	25613
833.299	25776
833.437	25746
833.576	25871
833.714	25788
833.852	25814
833.991	25772
834.129	25772
834.267	25849
834.406	25841
834.544	25681
834.682	25818
834.821	25814
834.959	25875
835.097	25594
835.235	25780
835.373	25655
835.511	25624
835.65	25529
835.788	25639
835.926	25472
836.064	25324
836.202	25403
836.34	25499
836.478	25761
836.615	25533
836.753	25499
836.891	25719
837.029	25552
837.167	25552
837.305	25491
837.443	25449
837.58	25388
837.718	25567
837.856	25301
837.993	25304
838.131	25453
838.269	25293
838.406	25377
838.544	25339
838.681	25183
838.819	25164
838.956	24859
839.094	24757
839.231	24947
839.369	24897
839.506	25225
839.643	25114
839.781	24932
839.918	24753
840.055	24897
840.193	24951
840.33	24897
840.467	24776
840.604	24795
840.742	25065
840.879	24536
841.016	24620
841.153	24692
841.29	24753
841.427	24730
841.564	24840
841.701	24802
841.838	24719
841.975	24437
842.112	24692
842.249	24616
842.385	24536
842.522	24726
842.659	24654
842.796	24551
842.933	24589
843.069	24471
843.206	24448
843.343	24642
843.479	24467
843.616	24559
843.752	24315
843.889	24247
844.025	24525
844.162	24266
844.298	24311
844.435	24243
844.571	24136
844.708	24258
844.844	24498
844.98	24338
845.117	24369
845.253	24197
845.389	24091
845.525	24213
845.661	24121
845.798	23980
845.934	24057
846.07	23927
846.206	24110
846.342	24209
846.478	24038
846.614	23767
846.75	23745
846.886	23722
847.022	23726
847.158	23676
847.294	23661
847.429	23741
847.565	23585
847.701	23942
847.837	23433
847.972	23356
848.108	23471
848.244	23551
848.379	23406
848.515	23235
848.65	23360
848.786	23421
848.921	23353
849.057	23531
849.192	23372
849.328	23292
849.463	23360
849.598	23307
849.734	23170
849.869	23079
850.004	23151
850.14	23132
850.275	23113
850.41	23075
850.545	23022
850.68	23090
850.815	23033
850.95	23124
851.085	23170
851.22	23254
851.355	23174
851.49	23109
851.625	23064
851.76	23048
851.895	22927
852.03	23025
852.165	23056
852.299	23155
852.434	23159
852.569	23113
852.703	23124
852.838	23155
852.973	23178
853.107	23250
853.242	23048
853.376	22957
853.511	22866
853.645	22729
853.78	22984
853.914	22854
854.048	22885
854.183	22873
854.317	22911
854.451	23124
854.585	22930
854.72	22881
854.854	23010
854.988	22854
855.122	22908
855.256	22736
855.39	22923
855.524	23018
855.658	22930
855.792	22858
855.926	22843
856.06	22938
856.194	22965
856.327	22915
856.461	22854
856.595	22820
856.729	22869
856.862	22995
856.996	22885
857.13	22919
857.263	23098
857.397	22915
857.53	22976
857.664	22965
857.797	22927
857.931	22965
858.064	22930
858.197	23083
858.331	22790
858.464	22862
858.597	22771
858.731	22847
858.864	22850
858.997	22904
859.13	22877
859.263	22934
859.396	22999
859.529	22869
859.662	22793
859.795	22839
859.928	22862
860.061	22984
860.194	23159
860.327	22904
860.46	22881
860.592	23124
860.725	23044
860.858	22987
860.99	22911
861.123	22805
861.256	22919
861.388	22805
861.521	23661
861.653	22801
861.786	22599
861.918	22656
862.05	22790
862.183	22885
862.315	22828
862.447	22927
862.58	22812
862.712	22656
862.844	22607
862.976	22752
863.108	22736
863.24	22942
863.372	22637
863.504	22588
863.636	22504
863.768	22656
863.9	22573
864.032	22489
864.164	22493
864.296	22653
864.428	22691
864.559	22725
864.691	22691
864.823	22573
864.954	22653
865.086	22656
865.217	22516
865.349	22424
865.48	22455
865.612	22489
865.743	22653
865.875	22550
866.006	22443
866.137	22451
866.269	22592
866.4	22451
866.531	22497
866.662	22485
866.793	22428
866.924	22394
867.055	22443
867.186	22325
867.317	22363
867.448	22352
867.579	22318
867.71	22379
867.841	22314
867.972	22405
868.103	22470
868.233	22341
868.364	22504
868.495	22557
868.625	22603
868.756	22637
868.886	22557
869.017	22584
869.147	22812
869.278	22744
869.408	22672
869.539	22611
869.669	22687
869.799	22850
869.929	22740
870.06	22736
870.19	22995
870.32	22854
870.45	23003
870.58	23064
870.71	23090
870.84	23140
870.97	23079
871.1	22965
871.23	23208
871.36	23105
871.489	23143
871.619	23239
871.749	23212
871.879	23353
872.008	23315
872.138	23162
872.267	23185
872.397	23147
872.526	23052
872.656	23132
872.785	23105
872.915	23155
873.044	23231
873.173	23258
873.303	23326
873.432	23307
873.561	23288
873.69	23220
873.819	23231
873.948	23334
874.077	23288
874.206	23235
874.335	23326
874.464	23322
874.593	23436
874.722	23364
874.851	23353
874.979	23554
875.108	23558
875.237	23318
875.365	23231
875.494	23433
875.623	23478
875.751	23493
875.88	23509
876.008	23562
876.136	23562
876.265	23927
876.393	23984
876.521	23946
876.65	23843
876.778	23821
876.906	23798
877.034	23783
877.162	23756
877.29	23668
877.418	23870
877.546	23775
877.674	23775
877.802	23824
877.93	23878
878.058	23737
878.185	23657
878.313	23863
878.441	23817
878.568	23539
878.696	23722
878.824	23882
878.951	23878
879.079	23923
879.206	24060
879.333	23942
879.461	23840
879.588	23923
879.715	24038
879.842	24060
879.97	23859
880.097	23627
880.224	23535
880.351	23676
880.478	23646
880.605	23543
880.732	23642
880.859	23950
880.986	23581
881.112	23649
881.239	23425
881.366	23349
881.493	23337
881.619	23140
881.746	23193
881.872	23292
881.999	23162
882.125	23200
882.252	23200
882.378	23067
882.505	23200
882.631	23105
882.757	22767
882.883	22934
883.01	22847
883.136	22858
883.262	22717
883.388	22645
883.514	22729
883.64	22900
883.766	22698
883.892	22607
884.018	22725
884.143	22683
884.269	22847
884.395	22535
884.52	22577
884.646	22611
884.772	22344
884.897	22318
885.023	22421
885.148	22580
885.274	22622
885.399	22580
885.524	22443
885.65	22512
885.775	22371
885.9	22382
886.025	22508
886.15	22599
886.275	22337
886.4	22249
886.525	22348
886.65	22462
886.775	22428
886.9	22561
887.025	22618
887.149	22386
887.274	22280
887.399	22196
887.523	22249
887.648	22177
887.773	22097
887.897	22341
888.021	22219
888.146	22177
888.27	22299
888.395	22314
888.519	22219
888.643	22230
888.767	22303
888.891	22169
889.015	22139
889.139	22188
889.263	21895
889.387	22090
889.511	22120
889.635	22055
889.759	21895
889.883	21949
890.006	22029
890.13	22078
890.254	21998
890.377	21956
890.501	21880
890.624	21850
890.748	21869
890.871	21504
890.995	21656
891.118	21523
891.241	21595
891.364	21477
891.488	21629
891.611	21530
891.734	21519
891.857	21709
891.98	21542
892.103	21595
892.226	21545
892.349	21553
892.471	21344
892.594	21435
892.717	21473
892.839	21405
892.962	21416
893.085	21462
893.207	21439
893.33	21340
893.452	21264
893.575	21450
893.697	21374
893.819	21583
893.941	21690
894.064	21481
894.186	21416
894.308	21401
894.43	21485
894.552	21485
894.674	21580
894.796	21351
894.918	21428
895.04	21397
895.161	21428
895.283	21443
895.405	21359
895.526	21477
895.648	21275
895.769	21466
895.891	21317
896.012	21454
896.134	21545
896.255	21447
896.376	21519
896.498	21439
896.619	21336
896.74	21477
896.861	21408
896.982	21622
897.103	21831
897.224	21732
897.345	21675
897.466	21534
897.587	21610
897.708	21641
897.828	21694
897.949	21534
898.07	21507
898.19	21599
898.311	21603
898.431	21564
898.552	21648
898.672	21713
898.792	21595
898.913	21530
899.033	21500
899.153	21367
899.273	21344
899.393	21370
899.513	21325
899.633	21237
899.753	21203
899.873	21351
899.993	21310
900.113	21252
900.232	21279
900.352	21119
900.472	21161
900.591	21096
900.711	21047
900.83	21013
900.95	21165
901.069	21112
901.189	21043
901.308	20804
901.427	20632
901.546	20663
901.665	20674
901.784	20659
901.904	20492
902.023	20442
902.141	20267
902.26	20195
902.379	20309
902.498	20111
902.617	20100
902.735	20210
902.854	20122
902.973	20065
903.091	19788
903.21	19685
903.328	19875
903.446	19685
903.565	19616
903.683	19616
903.801	19377
903.919	19449
904.038	19502
904.156	19407
904.274	19403
904.392	19354
904.51	19266
904.627	19438
904.745	19301
904.863	19335
904.981	19095
905.098	19031
905.216	19103
905.334	18977
905.451	19072
905.569	19023
905.686	19061
905.803	19072
905.921	18844
906.038	18768
906.155	18753
906.272	18688
906.389	18753
906.506	18574
906.623	18437
906.74	18604
906.857	18467
906.974	18311
907.091	18490
907.208	18627
907.324	18498
907.441	18433
907.557	18247
907.674	18270
907.79	18186
907.907	18121
908.023	18167
908.139	18289
908.256	18095
908.372	18102
908.488	18144
908.604	18019
908.72	17824
908.836	17961
908.952	17893
909.068	17931
909.184	17942
909.3	18026
909.415	17946
909.531	17988
909.647	17710
909.762	17577
909.878	17672
909.993	17729
910.108	17615
910.224	17581
910.339	17657
910.454	17547
910.57	17463
910.685	17421
910.8	17532
910.915	17630
911.03	17528
911.145	17265
911.259	17185
911.374	17193
911.489	17208
911.604	17056
911.718	16919
911.833	16873
911.947	16786
912.062	16828
912.176	16930
912.291	16862
912.405	16942
912.519	17170
912.633	17174
912.748	17014
912.862	16930
912.976	16771
913.09	16653
913.204	16721
913.318	16786
913.431	16725
913.545	16862
913.659	16862
913.772	16717
913.886	16565
914	16558
914.113	16573
914.226	16706
914.34	16691
914.453	16405
914.566	16596
914.68	16462
914.793	16348
914.906	16181
915.019	16059
915.132	16048
915.245	16078
915.358	16105
915.47	16139
915.583	16006
915.696	16067
915.809	16276
915.921	16158
916.034	16097
916.146	15998
916.259	16010
916.371	16074
916.483	16048
916.595	15983
916.708	15918
916.82	15979
916.932	15930
917.044	15835
917.156	15865
917.268	15732
917.38	15736
917.491	15808
917.603	15762
917.715	15850
917.826	15778
917.938	15698
918.049	15603
918.161	15690
918.272	15747
918.384	15778
918.495	15644
918.606	15511
918.717	15401
918.828	15477
918.939	15485
919.05	15439
919.161	15374
919.272	15245
919.383	15310
919.494	15408
919.604	15732
919.715	15485
919.826	15306
919.936	15424
920.047	15485
920.157	15469
920.267	15561
920.378	15614
920.488	15359
920.598	15618
920.708	15800
920.818	15644
920.928	15481
921.038	15675
921.148	15755
921.258	15386
921.368	15119
921.477	15150
921.587	15138
921.697	15070
921.806	15256
921.916	14986
922.025	14876
922.134	14830
922.244	14777
922.353	14864
922.462	14724
922.571	14670
922.68	14530
922.789	14518
922.898	14454
923.007	14393
923.116	14438
923.224	14381
923.333	14408
923.442	14301
923.55	14206
923.659	14187
923.767	14324
923.876	14252
923.984	14248
924.092	14134
924.201	14187
924.309	14164
924.417	14088
924.525	13902
924.633	14062
924.741	14944
924.849	13928
924.956	14058
925.064	13856
925.172	13719
925.279	13772
925.387	13811
925.494	13772
925.602	13940
925.709	13731
925.816	13723
925.924	13693
926.031	13723
926.138	13693
926.245	13685
926.352	13616
926.459	13803
926.566	13807
926.673	13723
926.779	13499
926.886	13521
926.993	13430
927.099	13327
927.206	13259
927.312	13263
927.419	13457
927.525	13350
927.631	13308
927.737	13156
927.843	13072
927.95	13053
928.056	13145
928.162	13114
928.267	13187
928.373	13655
928.479	13228
928.585	12958
928.69	13065
928.796	13137
928.901	12966
929.007	12791
929.112	12886
929.218	12909
929.323	12852
929.428	12875
929.533	13023
929.638	12825
929.743	12814
929.848	12875
929.953	12795
930.058	12612
930.163	12448
930.267	12559
930.372	12578
930.477	12456
930.581	12654
930.685	12528
930.79	12350
930.894	12422
930.998	12433
931.103	12479
931.207	12079
931.311	12007
931.415	11942
931.519	11764
931.623	11653
