Data from test_V78500241_3573.txt Node
Date: Fri Mar 25 16:06:33 CST 2022
User: usil
Spectrometer: V785-0024
Trigger mode: 0
Integration Time (sec): 4.000000E-1
Scans to average: 1
Nonlinearity correction enabled: false
Boxcar width: 0
Storing dark spectrum: false
XAxis mode: Wavelengths
Number of Pixels in Spectrum: 1024
>>>>>Begin Spectral Data<<<<<
801.071	28850
801.214	28740
801.356	28634
801.499	28440
801.641	28360
801.783	28268
801.926	28500
802.068	28299
802.211	28325
802.353	28124
802.496	28177
802.638	28162
802.78	28078
802.923	27873
803.065	28067
803.208	27892
803.35	28093
803.492	28257
803.635	28246
803.777	28101
803.919	28280
804.061	28626
804.204	28181
804.346	28147
804.488	28333
804.63	28421
804.773	28215
804.915	28314
805.057	28360
805.199	28223
805.341	28504
805.483	28421
805.626	28573
805.768	28291
805.91	28440
806.052	28675
806.194	28462
806.336	28535
806.478	28580
806.62	28630
806.762	28668
806.904	28733
807.046	28987
807.188	28938
807.33	28831
807.472	28942
807.614	28873
807.756	28896
807.898	28782
808.04	28721
808.182	28668
808.324	28744
808.465	28828
808.607	29079
808.749	29102
808.891	29326
809.033	29444
809.174	29288
809.316	29124
809.458	29178
809.6	29056
809.741	29246
809.883	29303
810.025	29349
810.166	29452
810.308	29471
810.45	29402
810.591	29269
810.733	29204
810.875	29254
811.016	28911
811.158	29151
811.299	29284
811.441	29284
811.582	29113
811.724	29284
811.865	29113
812.007	29181
812.148	29269
812.29	29128
812.431	29375
812.573	29596
812.714	29592
812.855	29828
812.997	29756
813.138	29942
813.279	29969
813.421	29676
813.562	29604
813.703	29425
813.845	29436
813.986	29261
814.127	28995
814.268	28919
814.41	28942
814.551	28725
814.692	28942
814.833	29200
814.974	28919
815.115	28991
815.256	28790
815.397	28828
815.539	28839
815.68	28729
815.821	28656
815.962	28725
816.103	28904
816.244	28656
816.385	28500
816.526	28504
816.666	28306
816.807	28295
816.948	28230
817.089	28234
817.23	28234
817.371	28158
817.512	28200
817.653	28295
817.793	28207
817.934	28226
818.075	28200
818.216	28223
818.356	28173
818.497	28147
818.638	28002
818.778	28051
818.919	28002
819.06	28063
819.2	28021
819.341	28295
819.481	28211
819.622	28405
819.762	28637
819.903	28417
820.043	28238
820.184	28318
820.324	28382
820.465	28261
820.605	28265
820.746	28238
820.886	28166
821.026	28242
821.167	28238
821.307	28337
821.447	28276
821.588	28101
821.728	28025
821.868	27793
822.008	27637
822.149	27679
822.289	27633
822.429	27420
822.569	27313
822.709	27329
822.849	27317
822.99	27306
823.13	27279
823.27	27096
823.41	27058
823.55	26937
823.69	27005
823.83	27009
823.97	27062
824.11	26743
824.25	26796
824.389	26887
824.529	26933
824.669	26857
824.809	26963
824.949	26971
825.089	26899
825.228	27013
825.368	26720
825.508	26693
825.648	26743
825.787	26887
825.927	26887
826.067	26579
826.206	26826
826.346	26883
826.485	26823
826.625	26804
826.765	26792
826.904	26781
827.044	26575
827.183	26598
827.323	26404
827.462	26533
827.601	26495
827.741	26549
827.88	26533
828.02	26286
828.159	26434
828.298	26355
828.437	26526
828.577	26461
828.716	26587
828.855	26309
828.994	26168
829.134	26149
829.273	26180
829.412	26031
829.551	26187
829.69	26225
829.829	26164
829.968	26256
830.107	26111
830.246	26214
830.385	26039
830.524	25989
830.663	26012
830.802	25833
830.941	25757
831.08	25712
831.219	25719
831.357	25780
831.496	25959
831.635	25734
831.774	25719
831.913	25643
832.051	25544
832.19	25559
832.329	25567
832.467	25327
832.606	25472
832.744	25529
832.883	25381
833.022	25411
833.16	25384
833.299	25582
833.437	25434
833.576	25415
833.714	25563
833.852	25495
833.991	25483
834.129	25479
834.267	25552
834.406	25540
834.544	25502
834.682	25533
834.821	25510
834.959	25731
835.097	25476
835.235	25578
835.373	25476
835.511	25487
835.65	25339
835.788	25369
835.926	25232
836.064	25236
836.202	25183
836.34	25274
836.478	25362
836.615	25343
836.753	25324
836.891	25327
837.029	25270
837.167	25244
837.305	25137
837.443	25190
837.58	25027
837.718	25206
837.856	25247
837.993	25133
838.131	25091
838.269	25004
838.406	25084
838.544	24951
838.681	24821
838.819	24700
838.956	24631
839.094	24528
839.231	24593
839.369	24749
839.506	25012
839.643	24844
839.781	24673
839.918	24654
840.055	24490
840.193	24593
840.33	24395
840.467	24597
840.604	24620
840.742	24810
840.879	24319
841.016	24441
841.153	24323
841.29	24547
841.427	24521
841.564	24517
841.701	24490
841.838	24525
841.975	24365
842.112	24486
842.249	24311
842.385	24273
842.522	24578
842.659	24380
842.796	24323
842.933	24247
843.069	24182
843.206	24239
843.343	24372
843.479	24350
843.616	24273
843.752	23988
843.889	24064
844.025	24136
844.162	23958
844.298	24057
844.435	24095
844.571	24038
844.708	24011
844.844	24258
844.98	24197
845.117	24216
845.253	23992
845.389	23893
845.525	23942
845.661	23874
845.798	23714
845.934	23786
846.07	23767
846.206	23790
846.342	23836
846.478	23699
846.614	23520
846.75	23440
846.886	23459
847.022	23615
847.158	23558
847.294	23478
847.429	23516
847.565	23417
847.701	23756
847.837	23185
847.972	23204
848.108	23330
848.244	23349
848.379	23124
848.515	23029
848.65	23041
848.786	23128
848.921	23060
849.057	23029
849.192	23136
849.328	23075
849.463	23010
849.598	23029
849.734	22953
849.869	22869
850.004	22915
850.14	22866
850.275	22946
850.41	22786
850.545	22763
850.68	22710
850.815	22892
850.95	22763
851.085	23105
851.22	22934
851.355	22968
851.49	22900
851.625	22847
851.76	22839
851.895	22790
852.03	22740
852.165	22710
852.299	22904
852.434	22930
852.569	22828
852.703	22896
852.838	22816
852.973	23014
853.107	22915
853.242	22694
853.376	22637
853.511	22630
853.645	22687
853.78	22622
853.914	22611
854.048	22618
854.183	22679
854.317	22713
854.451	22873
854.585	22736
854.72	22698
854.854	22744
854.988	22637
855.122	22782
855.256	22557
855.39	22615
855.524	22858
855.658	22755
855.792	22767
855.926	22793
856.06	22687
856.194	22687
856.327	22664
856.461	22618
856.595	22664
856.729	22603
856.862	22767
856.996	22660
857.13	22755
857.263	22820
857.397	22835
857.53	22508
857.664	22691
857.797	22752
857.931	22839
858.064	22755
858.197	22790
858.331	22542
858.464	22527
858.597	22603
858.731	22584
858.864	22577
858.997	22603
859.13	22694
859.263	22683
859.396	22729
859.529	22645
859.662	22687
859.795	22622
859.928	22649
860.061	22957
860.194	22881
860.327	22641
860.46	22649
860.592	22778
860.725	22767
860.858	22881
860.99	22691
861.123	22618
861.256	22592
861.388	22675
861.521	23269
861.653	22618
861.786	22500
861.918	22546
862.05	22432
862.183	22485
862.315	22531
862.447	22698
862.58	22683
862.712	22272
862.844	22440
862.976	22470
863.108	22398
863.24	22900
863.372	22291
863.504	22314
863.636	22485
863.768	22390
863.9	22382
864.032	22352
864.164	22306
864.296	22443
864.428	22485
864.559	22470
864.691	22325
864.823	22367
864.954	22390
865.086	22459
865.217	22284
865.349	22280
865.48	22306
865.612	22287
865.743	22356
865.875	22192
866.006	22188
866.137	22268
866.269	22192
866.4	22268
866.531	22173
866.662	22154
866.793	22162
866.924	22139
867.055	22303
867.186	21960
867.317	22200
867.448	22112
867.579	22257
867.71	22131
867.841	22055
867.972	22234
868.103	22135
868.233	22116
868.364	22238
868.495	22226
868.625	22356
868.756	22622
868.886	22207
869.017	22295
869.147	22519
869.278	22607
869.408	22375
869.539	22504
869.669	22474
869.799	22367
869.929	22577
870.06	22577
870.19	22805
870.32	22679
870.45	22824
870.58	22831
870.71	22976
870.84	22980
870.97	22839
871.1	22869
871.23	22923
871.36	23003
871.489	22892
871.619	23060
871.749	22995
871.879	23113
872.008	23060
872.138	23052
872.267	23018
872.397	22934
872.526	22843
872.656	22953
872.785	22774
872.915	23098
873.044	23162
873.173	23060
873.303	23037
873.432	23140
873.561	23113
873.69	22927
873.819	22881
873.948	23075
874.077	22934
874.206	22957
874.335	23025
874.464	22987
874.593	23315
874.722	23170
874.851	23292
874.979	23220
875.108	23227
875.237	23162
875.365	23174
875.494	23181
875.623	23341
875.751	23200
875.88	23181
876.008	23311
876.136	23398
876.265	23592
876.393	23634
876.521	23733
876.65	23710
876.778	23710
876.906	23570
877.034	23596
877.162	23608
877.29	23455
877.418	23676
877.546	23455
877.674	23547
877.802	23684
877.93	23539
878.058	23627
878.185	23402
878.313	23509
878.441	23646
878.568	23364
878.696	23459
878.824	23402
878.951	23668
879.079	23608
879.206	23866
879.333	23821
879.461	23604
879.588	23729
879.715	23718
879.842	23836
879.97	23608
880.097	23372
880.224	23318
880.351	23554
880.478	23330
880.605	23398
880.732	23318
880.859	23585
880.986	23478
881.112	23440
881.239	23391
881.366	23178
881.493	23025
881.619	23041
881.746	22972
881.872	23018
881.999	22854
882.125	22820
882.252	23003
882.378	22968
882.505	22961
882.631	22809
882.757	22618
882.883	22721
883.01	22660
883.136	22588
883.262	22584
883.388	22478
883.514	22660
883.64	22637
883.766	22580
883.892	22382
884.018	22493
884.143	22508
884.269	22675
884.395	22577
884.52	22253
884.646	22226
884.772	22230
884.897	22124
885.023	22314
885.148	22417
885.274	22447
885.399	22398
885.524	22363
885.65	22295
885.775	22287
885.9	22261
886.025	22211
886.15	22398
886.275	22268
886.4	22120
886.525	22158
886.65	22147
886.775	22219
886.9	22421
887.025	22493
887.149	22150
887.274	22082
887.399	22040
887.523	22010
887.648	21968
887.773	21884
887.897	22055
888.021	22101
888.146	22021
888.27	22105
888.395	22261
888.519	22006
888.643	22013
888.767	22040
888.891	21975
889.015	21675
889.139	21888
889.263	21739
889.387	21964
889.511	22093
889.635	21762
889.759	21895
889.883	21743
890.006	21785
890.13	21926
890.254	21766
890.377	21739
890.501	21705
890.624	21485
890.748	21656
890.871	21443
890.995	21367
891.118	21317
891.241	21378
891.364	21370
891.488	21401
891.611	21348
891.734	21298
891.857	21511
891.98	21275
892.103	21401
892.226	21401
892.349	21325
892.471	21157
892.594	21233
892.717	21275
892.839	21199
892.962	21226
893.085	21264
893.207	21135
893.33	21112
893.452	21135
893.575	21325
893.697	21207
893.819	21393
893.941	21492
894.064	21294
894.186	21131
894.308	21176
894.43	21294
894.552	21386
894.674	21230
894.796	21131
894.918	21203
895.04	21256
895.161	21397
895.283	21176
895.405	21039
895.526	21146
895.648	21302
895.769	21188
895.891	21237
896.012	21321
896.134	21252
896.255	21272
896.376	21298
896.498	21150
896.619	21279
896.74	21184
896.861	21222
896.982	21561
897.103	21701
897.224	21500
897.345	21507
897.466	21408
897.587	21492
897.708	21614
897.828	21469
897.949	21241
898.07	21203
898.19	21332
898.311	21534
898.431	21374
898.552	21515
898.672	21443
898.792	21466
898.913	21332
899.033	21260
899.153	21275
899.273	21108
899.393	21131
899.513	21104
899.633	21047
899.753	21203
899.873	21074
899.993	21165
900.113	20990
900.232	21020
900.352	21009
900.472	20880
900.591	20842
900.711	20914
900.83	20853
900.95	21085
901.069	21077
901.189	20918
901.308	20484
901.427	20488
901.546	20442
901.665	20511
901.784	20465
901.904	20389
902.023	20328
902.141	19986
902.26	20096
902.379	20122
902.498	19978
902.617	19970
902.735	19906
902.854	19944
902.973	19894
903.091	19681
903.21	19506
903.328	19609
903.446	19643
903.565	19400
903.683	19403
903.801	19343
903.919	19441
904.038	19407
904.156	19110
904.274	19259
904.392	19141
904.51	19076
904.627	19145
904.745	19122
904.863	19236
904.981	18966
905.098	18909
905.216	18935
905.334	18920
905.451	18738
905.569	18779
905.686	18856
905.803	18776
905.921	18665
906.038	18707
906.155	18661
906.272	18448
906.389	18585
906.506	18342
906.623	18357
906.74	18384
906.857	18296
906.974	18251
907.091	18471
907.208	18494
907.324	18429
907.441	18239
907.557	18125
907.674	18178
907.79	18064
907.907	18091
908.023	18117
908.139	18087
908.256	17999
908.372	17916
908.488	17939
908.604	17901
908.72	17813
908.836	17805
908.952	17737
909.068	17760
909.184	17874
909.3	17805
909.415	17726
909.531	17878
909.647	17539
909.762	17493
909.878	17372
909.993	17573
910.108	17417
910.224	17440
910.339	17467
910.454	17307
910.57	17242
910.685	17208
910.8	17501
910.915	17395
911.03	17242
911.145	17143
911.259	17121
911.374	16976
911.489	17010
911.604	16831
911.718	16831
911.833	16797
911.947	16691
912.062	16653
912.176	16801
912.291	16736
912.405	16820
912.519	16984
912.633	16862
912.748	16843
912.862	16771
912.976	16713
913.09	16592
913.204	16592
913.318	16599
913.431	16767
913.545	16710
913.659	16736
913.772	16615
913.886	16440
914	16470
914.113	16485
914.226	16519
914.34	16436
914.453	16169
914.566	16535
914.68	16272
914.793	16185
914.906	15968
915.019	15922
915.132	15972
915.245	15876
915.358	15991
915.47	16017
915.583	15964
915.696	16074
915.809	16166
915.921	16112
916.034	15816
916.146	15800
916.259	15922
916.371	15934
916.483	15941
916.595	15842
916.708	15709
916.82	15835
916.932	15641
917.044	15705
917.156	15671
917.268	15633
917.38	15557
917.491	15500
917.603	15652
917.715	15641
917.826	15663
917.938	15507
918.049	15405
918.161	15466
918.272	15641
918.384	15660
918.495	15504
918.606	15408
918.717	15378
918.828	15287
918.939	15332
919.05	15306
919.161	15230
919.272	15039
919.383	15233
919.494	15367
919.604	15595
919.715	15195
919.826	15226
919.936	15363
920.047	15287
920.157	15272
920.267	15447
920.378	15264
920.488	15188
920.598	15363
920.708	15553
920.818	15359
920.928	15351
921.038	15526
921.148	15473
921.258	15291
921.368	15203
921.477	15047
921.587	15036
921.697	14845
921.806	15085
921.916	14941
922.025	14819
922.134	14727
922.244	14579
922.353	14651
922.462	14507
922.571	14431
922.68	14347
922.789	14358
922.898	14362
923.007	14225
923.116	14473
923.224	14305
923.333	14214
923.442	14149
923.55	14176
923.659	14134
923.767	14202
923.876	14012
923.984	14244
924.092	14016
924.201	14084
924.309	14005
924.417	14062
924.525	14012
924.633	13940
924.741	14887
924.849	13681
924.956	13852
925.064	13807
925.172	13712
925.279	13738
925.387	13632
925.494	13609
925.602	13814
925.709	13666
925.816	13662
925.924	13609
926.031	13685
926.138	13723
926.245	13651
926.352	13594
926.459	13666
926.566	13586
926.673	13632
926.779	13388
926.886	13274
926.993	13266
927.099	13217
927.206	13194
927.312	13190
927.419	13232
927.525	13255
927.631	13285
927.737	13076
927.843	13012
927.95	13034
928.056	13031
928.162	13038
928.267	13065
928.373	13696
928.479	13103
928.585	12829
928.69	13072
928.796	13015
928.901	12913
929.007	12703
929.112	12859
929.218	12859
929.323	12730
929.428	12802
929.533	12894
929.638	12669
929.743	12703
929.848	12791
929.953	12646
930.058	12711
930.163	12369
930.267	12422
930.372	12540
930.477	12292
930.581	12608
930.685	12426
930.79	12281
930.894	12384
930.998	12175
931.103	12369
931.207	12034
931.311	11923
931.415	11870
931.519	11665
931.623	11718
