Data from test_V78500241_3445.txt Node
Date: Fri Mar 25 16:05:39 CST 2022
User: usil
Spectrometer: V785-0024
Trigger mode: 0
Integration Time (sec): 4.000000E-1
Scans to average: 1
Nonlinearity correction enabled: false
Boxcar width: 0
Storing dark spectrum: false
XAxis mode: Wavelengths
Number of Pixels in Spectrum: 1024
>>>>>Begin Spectral Data<<<<<
801.071	29006
801.214	28778
801.356	28565
801.499	28561
801.641	28413
801.783	28409
801.926	28470
802.068	28485
802.211	28436
802.353	28428
802.496	28306
802.638	28166
802.78	28242
802.923	28093
803.065	28029
803.208	28116
803.35	28215
803.492	28268
803.635	28386
803.777	28337
803.919	28443
804.061	28710
804.204	28542
804.346	28249
804.488	28447
804.63	28523
804.773	28413
804.915	28440
805.057	28504
805.199	28550
805.341	28421
805.483	28634
805.626	28538
805.768	28424
805.91	28519
806.052	28577
806.194	28485
806.336	28778
806.478	28649
806.62	28459
806.762	28881
806.904	28877
807.046	29128
807.188	29044
807.33	29025
807.472	29060
807.614	28968
807.756	29025
807.898	28888
808.04	28850
808.182	28858
808.324	29006
808.465	29037
808.607	29208
808.749	29326
808.891	29353
809.033	29307
809.174	29341
809.316	29337
809.458	29341
809.6	29296
809.741	29410
809.883	29330
810.025	29684
810.166	29429
810.308	29611
810.45	29509
810.591	29425
810.733	29273
810.875	29383
811.016	29124
811.158	29208
811.299	29429
811.441	29433
811.582	29486
811.724	29421
811.865	29391
812.007	29364
812.148	29341
812.29	29452
812.431	29535
812.573	29589
812.714	29809
812.855	29942
812.997	30022
813.138	29958
813.279	29961
813.421	29699
813.562	29741
813.703	29649
813.845	29368
813.986	29227
814.127	29147
814.268	28866
814.41	28896
814.551	28942
814.692	29071
814.833	28900
814.974	28919
815.115	29052
815.256	29044
815.397	28717
815.539	28850
815.68	28786
815.821	28668
815.962	28866
816.103	28850
816.244	28767
816.385	28554
816.526	28618
816.666	28512
816.807	28401
816.948	28333
817.089	28538
817.23	28337
817.371	28310
817.512	28325
817.653	28261
817.793	28268
817.934	28386
818.075	28398
818.216	28329
818.356	28276
818.497	28124
818.638	28204
818.778	28086
818.919	28173
819.06	28086
819.2	28101
819.341	28268
819.481	28409
819.622	28474
819.762	28805
819.903	28607
820.043	28459
820.184	28394
820.324	28592
820.465	28474
820.605	28417
820.746	28478
820.886	28238
821.026	28565
821.167	28371
821.307	28557
821.447	28443
821.588	28249
821.728	28090
821.868	27899
822.008	27679
822.149	27857
822.289	27755
822.429	27477
822.569	27504
822.709	27511
822.849	27355
822.99	27370
823.13	27264
823.27	27264
823.41	27089
823.55	26956
823.69	27150
823.83	27154
823.97	27146
824.11	27047
824.25	27055
824.389	27020
824.529	26994
824.669	27096
824.809	27112
824.949	27017
825.089	27020
825.228	27043
825.368	26895
825.508	26853
825.648	26743
825.787	26910
825.927	26773
826.067	26724
826.206	26857
826.346	26845
826.485	26929
826.625	26975
826.765	27013
826.904	26986
827.044	26636
827.183	26689
827.323	26720
827.462	26651
827.601	26621
827.741	26457
827.88	26701
828.02	26427
828.159	26716
828.298	26594
828.437	26674
828.577	26571
828.716	26629
828.855	26492
828.994	26328
829.134	26351
829.273	26347
829.412	26309
829.551	26225
829.69	26294
829.829	26484
829.968	26244
830.107	26309
830.246	26396
830.385	26248
830.524	26115
830.663	26050
830.802	25978
830.941	25879
831.08	25955
831.219	25959
831.357	25868
831.496	26138
831.635	26107
831.774	25833
831.913	25833
832.051	25776
832.19	25753
832.329	25795
832.467	25681
832.606	25620
832.744	25537
832.883	25616
833.022	25666
833.16	25643
833.299	25601
833.437	25620
833.576	25685
833.714	25723
833.852	25685
833.991	25700
834.129	25727
834.267	25841
834.406	25685
834.544	25628
834.682	25757
834.821	25647
834.959	25719
835.097	25510
835.235	25750
835.373	25658
835.511	25635
835.65	25506
835.788	25529
835.926	25388
836.064	25266
836.202	25324
836.34	25426
836.478	25400
836.615	25453
836.753	25487
836.891	25567
837.029	25453
837.167	25422
837.305	25297
837.443	25388
837.58	25346
837.718	25350
837.856	25263
837.993	25270
838.131	25304
838.269	25114
838.406	25168
838.544	25065
838.681	25046
838.819	24890
838.956	24734
839.094	24814
839.231	24871
839.369	24954
839.506	25168
839.643	24939
839.781	24833
839.918	24837
840.055	24829
840.193	24593
840.33	24608
840.467	24722
840.604	24715
840.742	24833
840.879	24483
841.016	24635
841.153	24502
841.29	24757
841.427	24623
841.564	24650
841.701	24734
841.838	24601
841.975	24532
842.112	24631
842.249	24456
842.385	24304
842.522	24650
842.659	24502
842.796	24399
842.933	24502
843.069	24323
843.206	24350
843.343	24502
843.479	24361
843.616	24452
843.752	24209
843.889	24186
844.025	24350
844.162	24171
844.298	24171
844.435	24152
844.571	24060
844.708	24323
844.844	24418
844.98	24471
845.117	24327
845.253	24205
845.389	24072
845.525	24144
845.661	24144
845.798	23950
845.934	23942
846.07	23912
846.206	23969
846.342	24018
846.478	23931
846.614	23710
846.75	23649
846.886	23611
847.022	23707
847.158	23684
847.294	23722
847.429	23741
847.565	23592
847.701	23954
847.837	23334
847.972	23296
848.108	23417
848.244	23535
848.379	23280
848.515	23223
848.65	23246
848.786	23105
848.921	23299
849.057	23303
849.192	23353
849.328	23166
849.463	23288
849.598	23018
849.734	23083
849.869	23006
850.004	23029
850.14	22976
850.275	22984
850.41	22908
850.545	22938
850.68	22885
850.815	23014
850.95	22850
851.085	23090
851.22	23094
851.355	23022
851.49	22946
851.625	22892
851.76	22900
851.895	22904
852.03	22980
852.165	23010
852.299	22999
852.434	23143
852.569	22999
852.703	22995
852.838	23109
852.973	23018
853.107	23117
853.242	22946
853.376	22683
853.511	22816
853.645	22763
853.78	22953
853.914	22831
854.048	22755
854.183	22850
854.317	22812
854.451	23098
854.585	22782
854.72	22740
854.854	22881
854.988	22725
855.122	22843
855.256	22729
855.39	22763
855.524	22740
855.658	22786
855.792	22786
855.926	22847
856.06	22767
856.194	22805
856.327	22672
856.461	22801
856.595	22717
856.729	22778
856.862	22809
856.996	22889
857.13	22809
857.263	22942
857.397	22820
857.53	22862
857.664	22854
857.797	22835
857.931	22904
858.064	22854
858.197	22885
858.331	22675
858.464	22759
858.597	22713
858.731	22831
858.864	22790
858.997	22771
859.13	22809
859.263	22782
859.396	22881
859.529	22812
859.662	22748
859.795	22630
859.928	22774
860.061	23018
860.194	22896
860.327	22748
860.46	22820
860.592	22835
860.725	22995
860.858	22824
860.99	22892
861.123	22752
861.256	22672
861.388	22847
861.521	23440
861.653	22672
861.786	22706
861.918	22596
862.05	22550
862.183	22755
862.315	22675
862.447	22820
862.58	22698
862.712	22561
862.844	22497
862.976	22531
863.108	22531
863.24	22911
863.372	22432
863.504	22542
863.636	22542
863.768	22531
863.9	22481
864.032	22382
864.164	22367
864.296	22603
864.428	22527
864.559	22554
864.691	22531
864.823	22493
864.954	22325
865.086	22413
865.217	22417
865.349	22280
865.48	22497
865.612	22390
865.743	22455
865.875	22363
866.006	22405
866.137	22478
866.269	22409
866.4	22428
866.531	22356
866.662	22284
866.793	22299
866.924	22284
867.055	22447
867.186	22238
867.317	22253
867.448	22074
867.579	22234
867.71	22204
867.841	22356
867.972	22204
868.103	22261
868.233	22306
868.364	22287
868.495	22386
868.625	22573
868.756	22557
868.886	22428
869.017	22561
869.147	22565
869.278	22569
869.408	22516
869.539	22550
869.669	22649
869.799	22634
869.929	22592
870.06	22679
870.19	22828
870.32	22790
870.45	22801
870.58	22835
870.71	23029
870.84	23132
870.97	22850
871.1	22968
871.23	23159
871.36	23075
871.489	23071
871.619	23159
871.749	23117
871.879	23178
872.008	23296
872.138	23136
872.267	23185
872.397	22976
872.526	22915
872.656	22968
872.785	22850
872.915	23166
873.044	23250
873.173	23273
873.303	23147
873.432	23159
873.561	23311
873.69	23223
873.819	23235
873.948	23216
874.077	23200
874.206	23048
874.335	23288
874.464	23239
874.593	23391
874.722	23410
874.851	23307
874.979	23364
875.108	23356
875.237	23406
875.365	23356
875.494	23349
875.623	23414
875.751	23322
875.88	23360
876.008	23440
876.136	23691
876.265	23851
876.393	23878
876.521	23923
876.65	23916
876.778	23737
876.906	23691
877.034	23710
877.162	23756
877.29	23809
877.418	23809
877.546	23805
877.674	23710
877.802	23707
877.93	23737
878.058	23600
878.185	23615
878.313	23737
878.441	23733
878.568	23535
878.696	23634
878.824	23760
878.951	23752
879.079	23882
879.206	23992
879.333	23954
879.461	23779
879.588	23764
879.715	23901
879.842	23931
879.97	23783
880.097	23592
880.224	23646
880.351	23501
880.478	23604
880.605	23562
880.732	23410
880.859	23760
880.986	23623
881.112	23554
881.239	23372
881.366	23277
881.493	23216
881.619	23052
881.746	23113
881.872	23109
881.999	23052
882.125	23037
882.252	23166
882.378	23014
882.505	23143
882.631	22942
882.757	22797
882.883	22839
883.01	22839
883.136	22755
883.262	22675
883.388	22538
883.514	22694
883.64	22744
883.766	22592
883.892	22443
884.018	22607
884.143	22664
884.269	22790
884.395	22459
884.52	22440
884.646	22344
884.772	22303
884.897	22310
885.023	22428
885.148	22512
885.274	22447
885.399	22405
885.524	22310
885.65	22474
885.775	22310
885.9	22371
886.025	22432
886.15	22474
886.275	22360
886.4	22284
886.525	22325
886.65	22375
886.775	22325
886.9	22417
887.025	22615
887.149	22318
887.274	22135
887.399	22204
887.523	22082
887.648	22010
887.773	22078
887.897	22257
888.021	22154
888.146	22070
888.27	22242
888.395	22219
888.519	22166
888.643	22200
888.767	22025
888.891	21964
889.015	22010
889.139	22105
889.263	21968
889.387	22025
889.511	22204
889.635	22044
889.759	21907
889.883	21838
890.006	21800
890.13	21907
890.254	21873
890.377	21789
890.501	21694
890.624	21778
890.748	21762
890.871	21572
890.995	21412
891.118	21439
891.241	21530
891.364	21389
891.488	21812
891.611	21462
891.734	21534
891.857	21591
891.98	21511
892.103	21485
892.226	21504
892.349	21397
892.471	21230
892.594	21367
892.717	21420
892.839	21321
892.962	21275
893.085	21443
893.207	21351
893.33	21313
893.452	21306
893.575	21218
893.697	21367
893.819	21397
893.941	21477
894.064	21538
894.186	21203
894.308	21332
894.43	21408
894.552	21557
894.674	21412
894.796	21226
894.918	21329
895.04	21226
895.161	21435
895.283	21439
895.405	21416
895.526	21264
895.648	21306
895.769	21348
895.891	21287
896.012	21469
896.134	21382
896.255	21275
896.376	21420
896.498	21313
896.619	21359
896.74	21218
896.861	21420
896.982	21694
897.103	21808
897.224	21545
897.345	21549
897.466	21424
897.587	21477
897.708	21686
897.828	21568
897.949	21454
898.07	21420
898.19	21564
898.311	21599
898.431	21450
898.552	21583
898.672	21622
898.792	21629
898.913	21435
899.033	21393
899.153	21397
899.273	21192
899.393	21222
899.513	21218
899.633	21226
899.753	21237
899.873	21195
899.993	21287
900.113	21184
900.232	21184
900.352	21192
900.472	21028
900.591	20933
900.711	21013
900.83	20902
900.95	21051
901.069	21089
901.189	20781
901.308	20617
901.427	20640
901.546	20568
901.665	20541
901.784	20579
901.904	20385
902.023	20320
902.141	20142
902.26	20103
902.379	20290
902.498	20046
902.617	20065
902.735	20069
902.854	20081
902.973	19909
903.091	19712
903.21	19868
903.328	19738
903.446	19712
903.565	19506
903.683	19582
903.801	19464
903.919	19445
904.038	19510
904.156	19255
904.274	19403
904.392	19324
904.51	19285
904.627	19126
904.745	19289
904.863	19354
904.981	19065
905.098	18962
905.216	19031
905.334	18958
905.451	18924
905.569	18825
905.686	18935
905.803	18871
905.921	18673
906.038	18772
906.155	18837
906.272	18665
906.389	18593
906.506	18380
906.623	18490
906.74	18353
906.857	18407
906.974	18372
907.091	18521
907.208	18525
907.324	18498
907.441	18399
907.557	18095
907.674	18254
907.79	18136
907.907	18308
908.023	18239
908.139	18197
908.256	18091
908.372	18087
908.488	18064
908.604	17897
908.72	17866
908.836	17912
908.952	17912
909.068	17973
909.184	17996
909.3	17984
909.415	17874
909.531	17836
909.647	17532
909.762	17444
909.878	17554
909.993	17554
910.108	17512
910.224	17520
910.339	17562
910.454	17387
910.57	17429
910.685	17246
910.8	17547
910.915	17543
911.03	17353
911.145	17299
911.259	17086
911.374	17048
911.489	16995
911.604	17056
911.718	16938
911.833	16911
911.947	16786
912.062	16812
912.176	16801
912.291	16987
912.405	16900
912.519	17159
912.633	17090
912.748	16984
912.862	16889
912.976	16649
913.09	16626
913.204	16706
913.318	16668
913.431	16835
913.545	16835
913.659	16812
913.772	16740
913.886	16580
914	16481
914.113	16565
914.226	16550
914.34	16554
914.453	16367
914.566	16531
914.68	16287
914.793	16363
914.906	16226
915.019	16082
915.132	15994
915.245	16074
915.358	16158
915.47	16093
915.583	16090
915.696	16128
915.809	16074
915.921	16181
916.034	16002
916.146	15949
916.259	15930
916.371	16017
916.483	15991
916.595	15861
916.708	15930
916.82	15842
916.932	15892
917.044	15846
917.156	15785
917.268	15686
917.38	15641
917.491	15743
917.603	15717
917.715	15808
917.826	15816
917.938	15644
918.049	15542
918.161	15625
918.272	15739
918.384	15682
918.495	15641
918.606	15534
918.717	15397
918.828	15401
918.939	15382
919.05	15443
919.161	15435
919.272	15192
919.383	15237
919.494	15504
919.604	15584
919.715	15538
919.826	15313
919.936	15283
920.047	15336
920.157	15348
920.267	15500
920.378	15382
920.488	15283
920.598	15526
920.708	15618
920.818	15492
920.928	15500
921.038	15717
921.148	15633
921.258	15298
921.368	15252
921.477	15085
921.587	15131
921.697	15009
921.806	15203
921.916	14998
922.025	14804
922.134	14708
922.244	14667
922.353	14800
922.462	14594
922.571	14537
922.68	14499
922.789	14385
922.898	14374
923.007	14400
923.116	14408
923.224	14320
923.333	14427
923.442	14240
923.55	14161
923.659	14221
923.767	14271
923.876	14084
923.984	14145
924.092	14100
924.201	14142
924.309	13982
924.417	14054
924.525	13997
924.633	14027
924.741	14952
924.849	13788
924.956	13947
925.064	13826
925.172	13723
925.279	13769
925.387	13731
925.494	13780
925.602	13757
925.709	13715
925.816	13510
925.924	13655
926.031	13761
926.138	13624
926.245	13734
926.352	13480
926.459	13647
926.566	13719
926.673	13540
926.779	13487
926.886	13453
926.993	13369
927.099	13324
927.206	13187
927.312	13244
927.419	13274
927.525	13266
927.631	13244
927.737	13076
927.843	12977
927.95	12954
928.056	13107
928.162	13175
928.267	13057
928.373	13776
928.479	13080
928.585	12920
928.69	12985
928.796	13004
928.901	12924
929.007	12783
929.112	12901
929.218	12741
929.323	12814
929.428	12787
929.533	12802
929.638	12707
929.743	12734
929.848	12764
929.953	12688
930.058	12650
930.163	12471
930.267	12490
930.372	12631
930.477	12391
930.581	12566
930.685	12464
930.79	12273
930.894	12353
930.998	12243
931.103	12369
931.207	11992
931.311	11931
931.415	11843
931.519	11653
931.623	11748
