Data from test_V78500241_243.txt Node
Date: Fri Mar 25 15:43:29 CST 2022
User: usil
Spectrometer: V785-0024
Trigger mode: 0
Integration Time (sec): 4.000000E-1
Scans to average: 1
Nonlinearity correction enabled: false
Boxcar width: 0
Storing dark spectrum: false
XAxis mode: Wavelengths
Number of Pixels in Spectrum: 1024
>>>>>Begin Spectral Data<<<<<
801.071	29714
801.214	29676
801.356	29505
801.499	29433
801.641	29326
801.783	29364
801.926	29391
802.068	29398
802.211	29231
802.353	29136
802.496	29094
802.638	29006
802.78	28957
802.923	28877
803.065	28873
803.208	28927
803.35	28911
803.492	29071
803.635	29102
803.777	29064
803.919	29079
804.061	29318
804.204	29124
804.346	29056
804.488	28949
804.63	29132
804.773	28930
804.915	29029
805.057	29067
805.199	29075
805.341	29181
805.483	29216
805.626	29277
805.768	29124
805.91	29235
806.052	29174
806.194	29227
806.336	29436
806.478	29254
806.62	29299
806.762	29345
806.904	29596
807.046	29798
807.188	29668
807.33	29661
807.472	29737
807.614	29562
807.756	29558
807.898	29448
808.04	29444
808.182	29391
808.324	29425
808.465	29280
808.607	29714
808.749	29824
808.891	29786
809.033	29885
809.174	29996
809.316	29828
809.458	29851
809.6	29771
809.741	29958
809.883	29882
810.025	30091
810.166	30038
810.308	30079
810.45	30057
810.591	30110
810.733	29756
810.875	29802
811.016	29764
811.158	29699
811.299	29942
811.441	29999
811.582	29916
811.724	29923
811.865	29748
812.007	29802
812.148	29798
812.29	29893
812.431	30114
812.573	30095
812.714	30106
812.855	30372
812.997	30433
813.138	30460
813.279	30403
813.421	30391
813.562	30289
813.703	30182
813.845	30152
813.986	29619
814.127	29463
814.268	29452
814.41	29528
814.551	29414
814.692	29558
814.833	29368
814.974	29440
815.115	29341
815.256	29284
815.397	29307
815.539	29330
815.68	29227
815.821	29018
815.962	29197
816.103	29204
816.244	29109
816.385	29075
816.526	28934
816.666	28748
816.807	28641
816.948	28691
817.089	28869
817.23	28717
817.371	28702
817.512	28729
817.653	28580
817.793	28565
817.934	28584
818.075	28721
818.216	28565
818.356	28691
818.497	28538
818.638	28284
818.778	28287
818.919	28284
819.06	28436
819.2	28485
819.341	28596
819.481	28634
819.622	28584
819.762	28771
819.903	28839
820.043	28721
820.184	28759
820.324	28771
820.465	28740
820.605	28596
820.746	28653
820.886	28451
821.026	28713
821.167	28630
821.307	28706
821.447	28485
821.588	28417
821.728	28287
821.868	28124
822.008	28070
822.149	28040
822.289	28013
822.429	27892
822.569	27671
822.709	27663
822.849	27466
822.99	27549
823.13	27382
823.27	27382
823.41	27188
823.55	27291
823.69	27332
823.83	27340
823.97	27279
824.11	27222
824.25	27142
824.389	27104
824.529	27104
824.669	27070
824.809	27332
824.949	27188
825.089	27211
825.228	27161
825.368	27032
825.508	26906
825.648	27055
825.787	26986
825.927	26971
826.067	26948
826.206	27032
826.346	26944
826.485	27062
826.625	26891
826.765	26971
826.904	26948
827.044	26686
827.183	26667
827.323	26537
827.462	26708
827.601	26609
827.741	26617
827.88	26682
828.02	26450
828.159	26545
828.298	26720
828.437	26644
828.577	26461
828.716	26674
828.855	26492
828.994	26324
829.134	26195
829.273	26294
829.412	26328
829.551	26252
829.69	26267
829.829	26313
829.968	26339
830.107	26309
830.246	26347
830.385	26138
830.524	26122
830.663	26134
830.802	25963
830.941	25738
831.08	25860
831.219	25871
831.357	25951
831.496	25982
831.635	25875
831.774	25715
831.913	25887
832.051	25521
832.19	25521
832.329	25651
832.467	25464
832.606	25483
832.744	25514
832.883	25487
833.022	25491
833.16	25479
833.299	25559
833.437	25464
833.576	25658
833.714	25590
833.852	25571
833.991	25628
834.129	25723
834.267	25556
834.406	25605
834.544	25540
834.682	25472
834.821	25514
834.959	25624
835.097	25457
835.235	25483
835.373	25563
835.511	25441
835.65	25282
835.788	25381
835.926	25126
836.064	25175
836.202	25194
836.34	25343
836.478	25514
836.615	25278
836.753	25289
836.891	25514
837.029	25411
837.167	25270
837.305	25312
837.443	25141
837.58	25190
837.718	25187
837.856	25164
837.993	25084
838.131	25137
838.269	25012
838.406	25080
838.544	24837
838.681	24795
838.819	24703
838.956	24631
839.094	24642
839.231	24646
839.369	24719
839.506	24939
839.643	24859
839.781	24475
839.918	24509
840.055	24426
840.193	24597
840.33	24433
840.467	24445
840.604	24483
840.742	24730
840.879	24422
841.016	24551
841.153	24330
841.29	24601
841.427	24525
841.564	24475
841.701	24407
841.838	24391
841.975	24410
842.112	24388
842.249	24372
842.385	24114
842.522	24494
842.659	24334
842.796	24152
842.933	24041
843.069	24110
843.206	24114
843.343	24277
843.479	24076
843.616	24087
843.752	23996
843.889	23984
844.025	24106
844.162	23977
844.298	24057
844.435	23866
844.571	23878
844.708	23832
844.844	24030
844.98	24087
845.117	23984
845.253	23863
845.389	23786
845.525	23775
845.661	23611
845.798	23623
845.934	23566
846.07	23638
846.206	23619
846.342	23691
846.478	23509
846.614	23265
846.75	23273
846.886	23258
847.022	23474
847.158	23345
847.294	23239
847.429	23383
847.565	23223
847.701	23448
847.837	23025
847.972	23025
848.108	23128
848.244	23086
848.379	22987
848.515	22744
848.65	22915
848.786	22896
848.921	22885
849.057	22991
849.192	23083
849.328	22824
849.463	22809
849.598	22748
849.734	22740
849.869	22763
850.004	22683
850.14	22653
850.275	22630
850.41	22516
850.545	22622
850.68	22596
850.815	22550
850.95	22557
851.085	22713
851.22	22664
851.355	22557
851.49	22504
851.625	22538
851.76	22557
851.895	22489
852.03	22367
852.165	22653
852.299	22584
852.434	22721
852.569	22561
852.703	22531
852.838	22603
852.973	22694
853.107	22759
853.242	22569
853.376	22542
853.511	22261
853.645	22398
853.78	22561
853.914	22443
854.048	22352
854.183	22379
854.317	22363
854.451	22504
854.585	22375
854.72	22379
854.854	22432
854.988	22341
855.122	22329
855.256	22265
855.39	22489
855.524	22284
855.658	22379
855.792	22462
855.926	22348
856.06	22367
856.194	22459
856.327	22299
856.461	22295
856.595	22424
856.729	22367
856.862	22451
856.996	22440
857.13	22561
857.263	22455
857.397	22379
857.53	22348
857.664	22455
857.797	22356
857.931	22489
858.064	22295
858.197	22398
858.331	22394
858.464	22291
858.597	22333
858.731	22303
858.864	22223
858.997	22341
859.13	22325
859.263	22310
859.396	22360
859.529	22265
859.662	22181
859.795	22211
859.928	22265
860.061	22367
860.194	22588
860.327	22287
860.46	22367
860.592	22291
860.725	22447
860.858	22519
860.99	22379
861.123	22238
861.256	22261
861.388	22291
861.521	23178
861.653	22181
861.786	22093
861.918	22128
862.05	22371
862.183	22246
862.315	22341
862.447	22344
862.58	22242
862.712	22048
862.844	21987
862.976	22177
863.108	22021
863.24	22599
863.372	22051
863.504	21994
863.636	22040
863.768	21983
863.9	21987
864.032	21804
864.164	21937
864.296	22070
864.428	22181
864.559	22021
864.691	22029
864.823	22112
864.954	21922
865.086	22112
865.217	21956
865.349	21842
865.48	21930
865.612	21934
865.743	22040
865.875	21918
866.006	21819
866.137	21880
866.269	21892
866.4	21835
866.531	21854
866.662	21937
866.793	21781
866.924	21899
867.055	21895
867.186	21736
867.317	21732
867.448	21736
867.579	21686
867.71	21762
867.841	21679
867.972	21793
868.103	21789
868.233	21850
868.364	21880
868.495	21907
868.625	22044
868.756	22059
868.886	21949
869.017	21941
869.147	22192
869.278	22086
869.408	21994
869.539	22139
869.669	22131
869.799	22192
869.929	22238
870.06	22025
870.19	22131
870.32	22375
870.45	22485
870.58	22424
870.71	22531
870.84	22672
870.97	22542
871.1	22470
871.23	22557
871.36	22649
871.489	22577
871.619	22618
871.749	22569
871.879	22573
872.008	22717
872.138	22603
872.267	22702
872.397	22500
872.526	22462
872.656	22436
872.785	22455
872.915	22668
873.044	22729
873.173	22565
873.303	22622
873.432	22637
873.561	22801
873.69	22615
873.819	22516
873.948	22797
874.077	22782
874.206	22626
874.335	22687
874.464	22721
874.593	22858
874.722	22831
874.851	22915
874.979	22942
875.108	22923
875.237	22820
875.365	22694
875.494	22812
875.623	22934
875.751	22809
875.88	22938
876.008	23006
876.136	23064
876.265	23334
876.393	23417
876.521	23387
876.65	23376
876.778	23318
876.906	23337
877.034	23136
877.162	23337
877.29	23189
877.418	23223
877.546	23265
877.674	23212
877.802	23231
877.93	23178
878.058	23250
878.185	23056
878.313	23208
878.441	23254
878.568	23018
878.696	23208
878.824	23292
878.951	23220
879.079	23326
879.206	23505
879.333	23436
879.461	23181
879.588	23471
879.715	23356
879.842	23288
879.97	23246
880.097	23018
880.224	22965
880.351	23098
880.478	23143
880.605	22987
880.732	23044
880.859	23345
880.986	22946
881.112	23003
881.239	22938
881.366	22687
881.493	22706
881.619	22580
881.746	22637
881.872	22569
881.999	22584
882.125	22447
882.252	22626
882.378	22535
882.505	22721
882.631	22451
882.757	22276
882.883	22402
883.01	22265
883.136	22284
883.262	22177
883.388	22006
883.514	22261
883.64	22394
883.766	22169
883.892	22147
884.018	22177
884.143	22306
884.269	22295
884.395	22025
884.52	21975
884.646	21964
884.772	21880
884.897	21876
885.023	22036
885.148	22135
885.274	22032
885.399	22147
885.524	21884
885.65	21846
885.775	21949
885.9	21888
886.025	21945
886.15	21968
886.275	21941
886.4	21816
886.525	21994
886.65	21827
886.775	21819
886.9	21979
887.025	22265
887.149	21831
887.274	21701
887.399	21614
887.523	21755
887.648	21629
887.773	21591
887.897	21705
888.021	21816
888.146	21648
888.27	21720
888.395	21671
888.519	21698
888.643	21686
888.767	21724
888.891	21583
889.015	21443
889.139	21496
889.263	21363
889.387	21591
889.511	21591
889.635	21564
889.759	21351
889.883	21332
890.006	21469
890.13	21477
890.254	21332
890.377	21389
890.501	21180
890.624	21157
890.748	21237
890.871	21043
890.995	20982
891.118	20956
891.241	20975
891.364	20948
891.488	21077
891.611	20979
891.734	20864
891.857	20986
891.98	20937
892.103	21161
892.226	21005
892.349	20910
892.471	20849
892.594	20914
892.717	20944
892.839	20941
892.962	20902
893.085	20933
893.207	20967
893.33	20754
893.452	20826
893.575	20902
893.697	20807
893.819	20986
893.941	21104
894.064	20979
894.186	20845
894.308	20910
894.43	20994
894.552	20941
894.674	20990
894.796	20815
894.918	20880
895.04	20746
895.161	20952
895.283	20872
895.405	20777
895.526	20887
895.648	21005
895.769	20826
895.891	20887
896.012	20982
896.134	20990
896.255	20929
896.376	20925
896.498	20853
896.619	20857
896.74	20807
896.861	20963
896.982	21112
897.103	21317
897.224	21233
897.345	21096
897.466	21066
897.587	21214
897.708	21154
897.828	21062
897.949	21024
898.07	20887
898.19	20910
898.311	21211
898.431	20990
898.552	21001
898.672	21104
898.792	21036
898.913	21039
899.033	20914
899.153	20830
899.273	20735
899.393	20754
899.513	20788
899.633	20796
899.753	20830
899.873	20686
899.993	20727
900.113	20743
900.232	20636
900.352	20678
900.472	20499
900.591	20545
900.711	20655
900.83	20571
900.95	20545
901.069	20571
901.189	20412
901.308	20176
901.427	20199
901.546	20111
901.665	20157
901.784	20126
901.904	19963
902.023	19909
902.141	19662
902.26	19772
902.379	19708
902.498	19632
902.617	19658
902.735	19628
902.854	19556
902.973	19449
903.091	19213
903.21	19259
903.328	19221
903.446	19129
903.565	19141
903.683	19076
903.801	18932
903.919	18989
904.038	19038
904.156	18840
904.274	18928
904.392	18829
904.51	18711
904.627	18817
904.745	18772
904.863	18951
904.981	18589
905.098	18509
905.216	18517
905.334	18620
905.451	18498
905.569	18441
905.686	18547
905.803	18471
905.921	18350
906.038	18213
906.155	18148
906.272	18247
906.389	18174
906.506	18019
906.623	18106
906.74	17920
906.857	17832
906.974	17901
907.091	18041
907.208	18148
907.324	18053
907.441	17942
907.557	17733
907.674	17703
907.79	17600
907.907	17684
908.023	17665
908.139	17790
908.256	17512
908.372	17566
908.488	17551
908.604	17478
908.72	17395
908.836	17326
908.952	17307
909.068	17307
909.184	17398
909.3	17341
909.415	17364
909.531	17318
909.647	17128
909.762	17060
909.878	17033
909.993	17003
910.108	17094
910.224	16987
910.339	16957
910.454	16930
910.57	16854
910.685	16710
910.8	16972
910.915	17056
911.03	16869
911.145	16626
911.259	16649
911.374	16687
911.489	16538
911.604	16561
911.718	16352
911.833	16459
911.947	16287
912.062	16268
912.176	16382
912.291	16424
912.405	16318
912.519	16660
912.633	16519
912.748	16451
912.862	16223
912.976	16261
913.09	16013
913.204	16120
913.318	16135
913.431	16223
913.545	16234
913.659	16242
913.772	16040
913.886	15960
914	16021
914.113	16105
914.226	16006
914.34	16025
914.453	15778
914.566	15983
914.68	15884
914.793	15781
914.906	15637
915.019	15557
915.132	15447
915.245	15504
915.358	15488
915.47	15610
915.583	15584
915.696	15545
915.809	15625
915.921	15857
916.034	15561
916.146	15420
916.259	15344
916.371	15507
916.483	15382
916.595	15378
916.708	15382
916.82	15405
916.932	15313
917.044	15351
917.156	15310
917.268	15184
917.38	15176
917.491	15138
917.603	15146
917.715	15252
917.826	15256
917.938	15017
918.049	15017
918.161	15161
918.272	15112
918.384	15173
918.495	15131
918.606	15013
918.717	14811
918.828	14994
918.939	14918
919.05	14811
919.161	14944
919.272	14705
919.383	14842
919.494	14979
919.604	15074
919.715	14929
919.826	14842
919.936	14823
920.047	14998
920.157	14876
920.267	15100
920.378	14830
920.488	14826
920.598	14975
920.708	15154
920.818	14960
920.928	15074
921.038	15192
921.148	15074
921.258	14807
921.368	14720
921.477	14522
921.587	14537
921.697	14454
921.806	14495
921.916	14454
922.025	14286
922.134	14225
922.244	14035
922.353	14199
922.462	14020
922.571	14084
922.68	13925
922.789	13826
922.898	13750
923.007	13757
923.116	13852
923.224	13776
923.333	13784
923.442	13662
923.55	13647
923.659	13704
923.767	13742
923.876	13643
923.984	13670
924.092	13491
924.201	13628
924.309	13521
924.417	13483
924.525	13457
924.633	13445
924.741	14180
924.849	13301
924.956	13518
925.064	13274
925.172	13152
925.279	13339
925.387	13293
925.494	13228
925.602	13438
925.709	13259
925.816	13194
925.924	13240
926.031	13266
926.138	13221
926.245	13228
926.352	13126
926.459	13221
926.566	13209
926.673	13080
926.779	13046
926.886	12981
926.993	12783
927.099	12738
927.206	12741
927.312	12783
927.419	12787
927.525	12745
927.631	12829
927.737	12696
927.843	12582
927.95	12540
928.056	12589
928.162	12604
928.267	12612
928.373	13217
928.479	12612
928.585	12380
928.69	12604
928.796	12582
928.901	12380
929.007	12273
929.112	12452
929.218	12357
929.323	12258
929.428	12277
929.533	12346
929.638	12258
929.743	12232
929.848	12418
929.953	12285
930.058	12121
930.163	12026
930.267	11999
930.372	12098
930.477	11904
930.581	12167
930.685	12049
930.79	11794
930.894	11893
930.998	11855
931.103	11942
931.207	11577
931.311	11471
931.415	11436
931.519	11330
931.623	11216
