Data from test_V78500241_623.txt Node
Date: Fri Mar 25 15:46:07 CST 2022
User: usil
Spectrometer: V785-0024
Trigger mode: 0
Integration Time (sec): 4.000000E-1
Scans to average: 1
Nonlinearity correction enabled: false
Boxcar width: 0
Storing dark spectrum: false
XAxis mode: Wavelengths
Number of Pixels in Spectrum: 1024
>>>>>Begin Spectral Data<<<<<
801.071	27671
801.214	27652
801.356	27420
801.499	27431
801.641	27123
801.783	27112
801.926	27291
802.068	27260
802.211	27028
802.353	27047
802.496	26914
802.638	26971
802.78	26887
802.923	26849
803.065	26754
803.208	26785
803.35	26914
803.492	27096
803.635	26994
803.777	26944
803.919	27028
804.061	27355
804.204	26986
804.346	27001
804.488	26937
804.63	26880
804.773	26998
804.915	27051
805.057	27211
805.199	27047
805.341	27142
805.483	27142
805.626	27165
805.768	27146
805.91	27123
806.052	27211
806.194	27108
806.336	27336
806.478	27146
806.62	27062
806.762	27230
806.904	27454
807.046	27656
807.188	27530
807.33	27633
807.472	27637
807.614	27519
807.756	27622
807.898	27447
808.04	27408
808.182	27260
808.324	27355
808.465	27386
808.607	27770
808.749	27785
808.891	27793
809.033	27983
809.174	27956
809.316	27743
809.458	27903
809.6	27861
809.741	27972
809.883	27983
810.025	28082
810.166	28120
810.308	28143
810.45	28017
810.591	28013
810.733	27778
810.875	27603
811.016	27739
811.158	27686
811.299	27953
811.441	27865
811.582	28059
811.724	27838
811.865	27679
812.007	27728
812.148	27728
812.29	27892
812.431	28067
812.573	28181
812.714	28131
812.855	28333
812.997	28382
813.138	28653
813.279	28474
813.421	28508
813.562	28314
813.703	28124
813.845	27869
813.986	27903
814.127	27660
814.268	27454
814.41	27553
814.551	27511
814.692	27637
814.833	27382
814.974	27481
815.115	27538
815.256	27393
815.397	27329
815.539	27386
815.68	27306
815.821	27192
815.962	27252
816.103	27241
816.244	27226
816.385	27089
816.526	27157
816.666	26899
816.807	26655
816.948	26940
817.089	26883
817.23	26826
817.371	26735
817.512	26849
817.653	26670
817.793	26670
817.934	26788
818.075	26880
818.216	26769
818.356	26754
818.497	26621
818.638	26396
818.778	26396
818.919	26415
819.06	26682
819.2	26735
819.341	26762
819.481	26792
819.622	27020
819.762	27089
819.903	26899
820.043	26944
820.184	26811
820.324	26804
820.465	26914
820.605	26842
820.746	26811
820.886	26918
821.026	26788
821.167	26910
821.307	27066
821.447	26807
821.588	26587
821.728	26537
821.868	26461
822.008	26248
822.149	26183
822.289	26096
822.429	26111
822.569	25940
822.709	25974
822.849	25894
822.99	25742
823.13	25780
823.27	25700
823.41	25529
823.55	25472
823.69	25677
823.83	25639
823.97	25510
824.11	25369
824.25	25278
824.389	25289
824.529	25544
824.669	25381
824.809	25483
824.949	25521
825.089	25571
825.228	25529
825.368	25145
825.508	25122
825.648	25152
825.787	25324
825.927	25445
826.067	25251
826.206	25168
826.346	25259
826.485	25247
826.625	25129
826.765	25354
826.904	25369
827.044	25103
827.183	25027
827.323	24935
827.462	24943
827.601	24954
827.741	25012
827.88	24916
828.02	24913
828.159	25031
828.298	24837
828.437	25088
828.577	24958
828.716	25061
828.855	24916
828.994	24719
829.134	24616
829.273	24722
829.412	24673
829.551	24684
829.69	24612
829.829	24612
829.968	24749
830.107	24741
830.246	24646
830.385	24490
830.524	24471
830.663	24494
830.802	24361
830.941	24235
831.08	24011
831.219	24380
831.357	24338
831.496	24475
831.635	24395
831.774	24273
831.913	24258
832.051	24076
832.19	24068
832.329	24190
832.467	23912
832.606	23901
832.744	23748
832.883	23790
833.022	23939
833.16	23885
833.299	23973
833.437	23977
833.576	24060
833.714	23973
833.852	24049
833.991	24018
834.129	24121
834.267	24155
834.406	23946
834.544	24068
834.682	23931
834.821	23950
834.959	24091
835.097	23893
835.235	23901
835.373	23984
835.511	23939
835.65	23786
835.788	23794
835.926	23779
836.064	23630
836.202	23691
836.34	23805
836.478	23885
836.615	23847
836.753	23840
836.891	23942
837.029	23851
837.167	23760
837.305	23840
837.443	23581
837.58	23516
837.718	23638
837.856	23748
837.993	23600
838.131	23627
838.269	23516
838.406	23577
838.544	23497
838.681	23417
838.819	23349
838.956	23151
839.094	23159
839.231	23277
839.369	23235
839.506	23520
839.643	23414
839.781	23102
839.918	23029
840.055	23181
840.193	23113
840.33	23136
840.467	22999
840.604	23075
840.742	23326
840.879	22938
841.016	23060
841.153	22930
841.29	23086
841.427	23090
841.564	23136
841.701	22938
841.838	23022
841.975	23044
842.112	22965
842.249	22839
842.385	22885
842.522	23094
842.659	22778
842.796	22782
842.933	22713
843.069	22774
843.206	22793
843.343	22938
843.479	22816
843.616	22759
843.752	22611
843.889	22504
844.025	22721
844.162	22504
844.298	22679
844.435	22557
844.571	22436
844.708	22615
844.844	22687
844.98	22713
845.117	22580
845.253	22615
845.389	22440
845.525	22466
845.661	22413
845.798	22386
845.934	22371
846.07	22424
846.206	22333
846.342	22390
846.478	22337
846.614	22036
846.75	22021
846.886	22032
847.022	22253
847.158	22036
847.294	22013
847.429	22048
847.565	22029
847.701	22322
847.837	21835
847.972	21610
848.108	21861
848.244	21842
848.379	21603
848.515	21713
848.65	21545
848.786	21523
848.921	21561
849.057	21793
849.192	21808
849.328	21701
849.463	21568
849.598	21572
849.734	21496
849.869	21397
850.004	21408
850.14	21355
850.275	21443
850.41	21249
850.545	21321
850.68	21283
850.815	21408
850.95	21435
851.085	21523
851.22	21351
851.355	21355
851.49	21359
851.625	21268
851.76	21393
851.895	21329
852.03	21294
852.165	21310
852.299	21344
852.434	21416
852.569	21378
852.703	21405
852.838	21485
852.973	21466
853.107	21526
853.242	21401
853.376	21291
853.511	21135
853.645	21214
853.78	21389
853.914	21317
854.048	21066
854.183	21340
854.317	21249
854.451	21378
854.585	21393
854.72	21306
854.854	21420
854.988	21039
855.122	21226
855.256	21077
855.39	21275
855.524	21306
855.658	21408
855.792	21241
855.926	21245
856.06	21291
856.194	21351
856.327	21211
856.461	21070
856.595	21161
856.729	21245
856.862	21336
856.996	21317
857.13	21298
857.263	21382
857.397	21306
857.53	21260
857.664	21214
857.797	21336
857.931	21294
858.064	21310
858.197	21443
858.331	21378
858.464	21211
858.597	21161
858.731	21192
858.864	21294
858.997	21252
859.13	21237
859.263	21260
859.396	21310
859.529	21173
859.662	21214
859.795	21165
859.928	21264
860.061	21458
860.194	21485
860.327	21302
860.46	21287
860.592	21466
860.725	21351
860.858	21378
860.99	21241
861.123	21062
861.256	21157
861.388	21176
861.521	22051
861.653	21081
861.786	21051
861.918	21017
862.05	21047
862.183	21241
862.315	21294
862.447	21184
862.58	21195
862.712	20990
862.844	20982
862.976	21017
863.108	21058
863.24	21348
863.372	20960
863.504	21070
863.636	20998
863.768	21112
863.9	20960
864.032	20902
864.164	20800
864.296	21070
864.428	21112
864.559	21032
864.691	21051
864.823	21070
864.954	20960
865.086	20982
865.217	20853
865.349	20731
865.48	20960
865.612	20807
865.743	20937
865.875	20925
866.006	20937
866.137	20868
866.269	20895
866.4	20773
866.531	20834
866.662	20834
866.793	20762
866.924	20693
867.055	20857
867.186	20708
867.317	20667
867.448	20651
867.579	20712
867.71	20804
867.841	20746
867.972	20853
868.103	20777
868.233	20937
868.364	20861
868.495	20807
868.625	21043
868.756	21150
868.886	21058
869.017	21055
869.147	21157
869.278	21165
869.408	21108
869.539	20948
869.669	21169
869.799	21135
869.929	21070
870.06	21077
870.19	21275
870.32	21374
870.45	21367
870.58	21389
870.71	21458
870.84	21576
870.97	21424
871.1	21348
871.23	21553
871.36	21610
871.489	21507
871.619	21644
871.749	21603
871.879	21545
872.008	21743
872.138	21637
872.267	21576
872.397	21458
872.526	21450
872.656	21549
872.785	21359
872.915	21622
873.044	21728
873.173	21534
873.303	21637
873.432	21652
873.561	21633
873.69	21633
873.819	21629
873.948	21747
874.077	21648
874.206	21648
874.335	21686
874.464	21781
874.593	21888
874.722	21827
874.851	21941
874.979	21876
875.108	22070
875.237	21835
875.365	21736
875.494	21831
875.623	21861
875.751	21880
875.88	21857
876.008	22067
876.136	21991
876.265	22192
876.393	22371
876.521	22417
876.65	22348
876.778	22272
876.906	22280
877.034	22166
877.162	22223
877.29	22147
877.418	22257
877.546	22261
877.674	22162
877.802	22226
877.93	22196
878.058	22215
878.185	22131
878.313	22158
878.441	22192
878.568	22078
878.696	22059
878.824	22268
878.951	22367
879.079	22493
879.206	22478
879.333	22344
879.461	22234
879.588	22280
879.715	22447
879.842	22508
879.97	22310
880.097	22063
880.224	22032
880.351	22067
880.478	22013
880.605	22010
880.732	21960
880.859	22204
880.986	21953
881.112	21964
881.239	21850
881.366	21819
881.493	21739
881.619	21553
881.746	21591
881.872	21675
881.999	21599
882.125	21583
882.252	21530
882.378	21534
882.505	21686
882.631	21580
882.757	21378
882.883	21310
883.01	21310
883.136	21336
883.262	21161
883.388	21218
883.514	21233
883.64	21367
883.766	21317
883.892	21207
884.018	21188
884.143	21230
884.269	21313
884.395	21028
884.52	20956
884.646	20887
884.772	20891
884.897	20902
885.023	20845
885.148	20979
885.274	21047
885.399	21055
885.524	20963
885.65	20986
885.775	20963
885.9	20960
886.025	21116
886.15	21093
886.275	20876
886.4	20960
886.525	20948
886.65	20933
886.775	20925
886.9	21066
887.025	21230
887.149	20948
887.274	20765
887.399	20815
887.523	20800
887.648	20598
887.773	20648
887.897	20830
888.021	20731
888.146	20765
888.27	20792
888.395	20815
888.519	20830
888.643	20838
888.767	20804
888.891	20594
889.015	20609
889.139	20583
889.263	20404
889.387	20606
889.511	20769
889.635	20727
889.759	20469
889.883	20484
890.006	20579
890.13	20514
890.254	20377
890.377	20404
890.501	20275
890.624	20218
890.748	20393
890.871	20195
890.995	20168
891.118	20073
891.241	20065
891.364	20069
891.488	20157
891.611	20199
891.734	20157
891.857	20157
891.98	20043
892.103	20172
892.226	20088
892.349	20100
892.471	19868
892.594	20073
892.717	20134
892.839	20096
892.962	20031
893.085	20149
893.207	19947
893.33	19868
893.452	19940
893.575	20073
893.697	20001
893.819	20111
893.941	20252
894.064	20092
894.186	19986
894.308	19921
894.43	20096
894.552	20161
894.674	20267
894.796	20065
894.918	20012
895.04	20062
895.161	20065
895.283	20024
895.405	19978
895.526	20107
895.648	19791
895.769	20035
895.891	20065
896.012	20134
896.134	20115
896.255	20008
896.376	19970
896.498	20077
896.619	20027
896.74	20062
896.861	20126
896.982	20408
897.103	20533
897.224	20366
897.345	20298
897.466	20229
897.587	20199
897.708	20358
897.828	20191
897.949	20168
898.07	20081
898.19	20142
898.311	20393
898.431	20161
898.552	20294
898.672	20240
898.792	20313
898.913	20187
899.033	20145
899.153	20062
899.273	19917
899.393	20020
899.513	19894
899.633	20039
899.753	19913
899.873	19917
899.993	20005
900.113	19947
900.232	20008
900.352	19928
900.472	19780
900.591	19772
900.711	19788
900.83	19742
900.95	19932
901.069	19902
901.189	19613
901.308	19419
901.427	19396
901.546	19400
901.665	19487
901.784	19358
901.904	19247
902.023	19175
902.141	18901
902.26	18863
902.379	18981
902.498	18897
902.617	18700
902.735	18932
902.854	18802
902.973	18772
903.091	18521
903.21	18475
903.328	18559
903.446	18372
903.565	18342
903.683	18296
903.801	18201
903.919	18315
904.038	18277
904.156	18144
904.274	18232
904.392	18148
904.51	17946
904.627	18060
904.745	18121
904.863	18106
904.981	17931
905.098	17691
905.216	17836
905.334	17786
905.451	17756
905.569	17676
905.686	17786
905.803	17756
905.921	17577
906.038	17684
906.155	17581
906.272	17490
906.389	17509
906.506	17368
906.623	17414
906.74	17258
906.857	17159
906.974	17208
907.091	17493
907.208	17417
907.324	17322
907.441	17303
907.557	17147
907.674	16984
907.79	16976
907.907	16987
908.023	17151
908.139	16934
908.256	17064
908.372	16927
908.488	16961
908.604	16820
908.72	16687
908.836	16824
908.952	16634
909.068	16725
909.184	16881
909.3	16771
909.415	16869
909.531	16698
909.647	16485
909.762	16550
909.878	16417
909.993	16497
910.108	16421
910.224	16356
910.339	16428
910.454	16295
910.57	16268
910.685	16318
910.8	16421
910.915	16413
911.03	16371
911.145	16215
911.259	15979
911.374	16112
911.489	16017
911.604	15987
911.718	15774
911.833	15816
911.947	15705
912.062	15709
912.176	15911
912.291	15884
912.405	15831
912.519	15934
912.633	15941
912.748	15747
912.862	15819
912.976	15663
913.09	15534
913.204	15606
913.318	15641
913.431	15705
913.545	15675
913.659	15698
913.772	15568
913.886	15458
914	15420
914.113	15469
914.226	15477
914.34	15397
914.453	15306
914.566	15545
914.68	15317
914.793	15260
914.906	15093
915.019	15005
915.132	14990
915.245	15028
915.358	15085
915.47	15005
915.583	14948
915.696	15093
915.809	15097
915.921	15154
916.034	14975
916.146	14960
916.259	14883
916.371	15039
916.483	15077
916.595	14925
916.708	14914
916.82	14899
916.932	14777
917.044	14868
917.156	14777
917.268	14708
917.38	14701
917.491	14693
917.603	14754
917.715	14765
917.826	14826
917.938	14644
918.049	14503
918.161	14598
918.272	14689
918.384	14842
918.495	14530
918.606	14549
918.717	14389
918.828	14454
918.939	14469
919.05	14400
919.161	14438
919.272	14202
919.383	14400
919.494	14454
919.604	14632
919.715	14358
919.826	14396
919.936	14362
920.047	14549
920.157	14343
920.267	14629
920.378	14480
920.488	14298
920.598	14530
920.708	14629
920.818	14541
920.928	14488
921.038	14693
921.148	14674
921.258	14332
921.368	14320
921.477	14290
921.587	14111
921.697	14043
921.806	14206
921.916	14012
922.025	13841
922.134	13765
922.244	13757
922.353	13974
922.462	13655
922.571	13582
922.68	13430
922.789	13457
922.898	13400
923.007	13457
923.116	13362
923.224	13335
923.333	13384
923.442	13301
923.55	13282
923.659	13232
923.767	13384
923.876	13228
923.984	13350
924.092	13190
924.201	13266
924.309	13133
924.417	13137
924.525	13099
924.633	13065
924.741	14043
924.849	12962
924.956	13088
925.064	12890
925.172	12848
925.279	12859
925.387	12871
925.494	12913
925.602	13031
925.709	12840
925.816	12779
925.924	12810
926.031	12875
926.138	12840
926.245	12772
926.352	12711
926.459	12954
926.566	12829
926.673	12749
926.779	12620
926.886	12521
926.993	12410
927.099	12437
927.206	12422
927.312	12418
927.419	12429
927.525	12467
927.631	12582
927.737	12338
927.843	12304
927.95	12110
928.056	12224
928.162	12254
928.267	12323
928.373	12909
928.479	12334
928.585	12148
928.69	12228
928.796	12239
928.901	12091
929.007	11958
929.112	12136
929.218	12072
929.323	12045
929.428	11969
929.533	12144
929.638	11927
929.743	11954
929.848	11916
929.953	11992
930.058	11870
930.163	11634
930.267	11672
930.372	11771
930.477	11638
930.581	11908
930.685	11783
930.79	11551
930.894	11532
930.998	11558
931.103	11714
931.207	11296
931.311	11254
931.415	11162
931.519	10984
931.623	10942
