Data from test_V78500241_314.txt Node
Date: Fri Mar 25 15:43:58 CST 2022
User: usil
Spectrometer: V785-0024
Trigger mode: 0
Integration Time (sec): 4.000000E-1
Scans to average: 1
Nonlinearity correction enabled: false
Boxcar width: 0
Storing dark spectrum: false
XAxis mode: Wavelengths
Number of Pixels in Spectrum: 1024
>>>>>Begin Spectral Data<<<<<
801.071	29897
801.214	29939
801.356	29570
801.499	29486
801.641	29436
801.783	29581
801.926	29524
802.068	29444
802.211	29375
802.353	29181
802.496	29288
802.638	29128
802.78	29239
802.923	29014
803.065	29064
803.208	29052
803.35	29124
803.492	29261
803.635	29280
803.777	29288
803.919	29318
804.061	29604
804.204	29372
804.346	29258
804.488	29315
804.63	29474
804.773	29322
804.915	29250
805.057	29421
805.199	29330
805.341	29356
805.483	29448
805.626	29379
805.768	29452
805.91	29429
806.052	29615
806.194	29315
806.336	29684
806.478	29433
806.62	29703
806.762	29558
806.904	29623
807.046	29992
807.188	29817
807.33	29786
807.472	29996
807.614	29790
807.756	29855
807.898	29657
808.04	29608
808.182	29585
808.324	29745
808.465	29752
808.607	29756
808.749	30015
808.891	30125
809.033	30224
809.174	30117
809.316	30178
809.458	30079
809.6	30076
809.741	30144
809.883	30148
810.025	30388
810.166	30296
810.308	30395
810.45	30399
810.591	30380
810.733	30270
810.875	30072
811.016	30038
811.158	30102
811.299	30087
811.441	30292
811.582	30205
811.724	30110
811.865	29988
812.007	30140
812.148	30155
812.29	30216
812.431	30323
812.573	30452
812.714	30551
812.855	30719
812.997	30700
813.138	31034
813.279	30719
813.421	30661
813.562	30475
813.703	30517
813.845	30281
813.986	29980
814.127	29931
814.268	29745
814.41	29935
814.551	29961
814.692	29786
814.833	29680
814.974	29764
815.115	29901
815.256	29665
815.397	29608
815.539	29646
815.68	29657
815.821	29535
815.962	29596
816.103	29448
816.244	29421
816.385	29246
816.526	29368
816.666	29128
816.807	29025
816.948	29044
817.089	29117
817.23	29006
817.371	29193
817.512	29048
817.653	29075
817.793	29037
817.934	28972
818.075	29067
818.216	29003
818.356	28835
818.497	28972
818.638	28797
818.778	28782
818.919	28866
819.06	28862
819.2	28812
819.341	29090
819.481	29003
819.622	28980
819.762	29345
819.903	29216
820.043	29242
820.184	29143
820.324	29025
820.465	29288
820.605	29052
820.746	29109
820.886	28934
821.026	29029
821.167	29113
821.307	29003
821.447	28949
821.588	28831
821.728	28729
821.868	28542
822.008	28440
822.149	28409
822.289	28356
822.429	28162
822.569	27987
822.709	28185
822.849	27968
822.99	27975
823.13	27774
823.27	27926
823.41	27808
823.55	27576
823.69	27618
823.83	27724
823.97	27675
824.11	27743
824.25	27488
824.389	27534
824.529	27724
824.669	27504
824.809	27568
824.949	27686
825.089	27530
825.228	27671
825.368	27393
825.508	27272
825.648	27496
825.787	27492
825.927	27283
826.067	27287
826.206	27279
826.346	27439
826.485	27481
826.625	27325
826.765	27492
826.904	27393
827.044	27058
827.183	27051
827.323	27017
827.462	27180
827.601	27116
827.741	26979
827.88	27051
828.02	27066
828.159	26975
828.298	27039
828.437	26971
828.577	26899
828.716	27074
828.855	27077
828.994	26746
829.134	26590
829.273	26670
829.412	26716
829.551	26693
829.69	26853
829.829	26743
829.968	26754
830.107	26743
830.246	26659
830.385	26678
830.524	26598
830.663	26568
830.802	26374
830.941	26396
831.08	26126
831.219	26259
831.357	26347
831.496	26522
831.635	26263
831.774	26134
831.913	26149
832.051	26142
832.19	26096
832.329	26065
832.467	25913
832.606	25944
832.744	25887
832.883	25978
833.022	25902
833.16	25871
833.299	25864
833.437	25909
833.576	25902
833.714	25928
833.852	26058
833.991	26008
834.129	26020
834.267	26008
834.406	25947
834.544	26027
834.682	25906
834.821	25955
834.959	26065
835.097	25837
835.235	25883
835.373	25814
835.511	25917
835.65	25670
835.788	25814
835.926	25544
836.064	25575
836.202	25544
836.34	25822
836.478	25841
836.615	25738
836.753	25769
836.891	25837
837.029	25689
837.167	25799
837.305	25807
837.443	25635
837.58	25594
837.718	25457
837.856	25655
837.993	25381
838.131	25518
838.269	25377
838.406	25445
838.544	25339
838.681	25148
838.819	25160
838.956	25015
839.094	25015
839.231	25008
839.369	25156
839.506	25293
839.643	25095
839.781	25065
839.918	24905
840.055	24871
840.193	24909
840.33	24867
840.467	24821
840.604	24787
840.742	25099
840.879	24795
841.016	24806
841.153	24730
841.29	24943
841.427	24871
841.564	24863
841.701	24859
841.838	24844
841.975	24787
842.112	24719
842.249	24684
842.385	24509
842.522	24837
842.659	24688
842.796	24528
842.933	24585
843.069	24479
843.206	24441
843.343	24650
843.479	24582
843.616	24601
843.752	24407
843.889	24281
844.025	24467
844.162	24334
844.298	24418
844.435	24334
844.571	24277
844.708	24369
844.844	24544
844.98	24437
845.117	24388
845.253	24224
845.389	24365
845.525	24197
845.661	24171
845.798	24007
845.934	24133
846.07	23935
846.206	23988
846.342	24106
846.478	23980
846.614	23847
846.75	23642
846.886	23729
847.022	23942
847.158	23748
847.294	23737
847.429	23748
847.565	23668
847.701	23965
847.837	23581
847.972	23455
848.108	23524
848.244	23619
848.379	23296
848.515	23280
848.65	23250
848.786	23364
848.921	23455
849.057	23501
849.192	23395
849.328	23307
849.463	23280
849.598	23315
849.734	23136
849.869	23067
850.004	23044
850.14	23098
850.275	23113
850.41	22984
850.545	22972
850.68	22972
850.815	23075
850.95	23166
851.085	23128
851.22	23166
851.355	23003
851.49	22900
851.625	22991
851.76	23083
851.895	22908
852.03	22843
852.165	22980
852.299	23052
852.434	23102
852.569	23044
852.703	23060
852.838	23025
852.973	23166
853.107	23105
853.242	22847
853.376	22949
853.511	22683
853.645	22778
853.78	22911
853.914	22835
854.048	22793
854.183	22850
854.317	22995
854.451	22953
854.585	22820
854.72	22763
854.854	22976
854.988	22767
855.122	22790
855.256	22778
855.39	22793
855.524	22824
855.658	22835
855.792	22736
855.926	22744
856.06	22801
856.194	22869
856.327	22634
856.461	22672
856.595	22774
856.729	22702
856.862	22896
856.996	22793
857.13	22858
857.263	22995
857.397	22816
857.53	22736
857.664	22694
857.797	22835
857.931	22923
858.064	22812
858.197	22908
858.331	22850
858.464	22615
858.597	22733
858.731	22809
858.864	22710
858.997	22710
859.13	22797
859.263	22786
859.396	22972
859.529	22622
859.662	22835
859.795	22790
859.928	22759
860.061	22889
860.194	23071
860.327	22854
860.46	22805
860.592	22942
860.725	22805
860.858	22877
860.99	22759
861.123	22683
861.256	22816
861.388	22778
861.521	23463
861.653	22569
861.786	22645
861.918	22664
862.05	22725
862.183	22793
862.315	22713
862.447	22706
862.58	22748
862.712	22622
862.844	22474
862.976	22584
863.108	22554
863.24	22968
863.372	22474
863.504	22428
863.636	22459
863.768	22546
863.9	22554
864.032	22318
864.164	22417
864.296	22436
864.428	22538
864.559	22588
864.691	22508
864.823	22405
864.954	22440
865.086	22379
865.217	22390
865.349	22200
865.48	22291
865.612	22295
865.743	22371
865.875	22348
866.006	22295
866.137	22322
866.269	22436
866.4	22382
866.531	22185
866.662	22234
866.793	22181
866.924	22310
867.055	22268
867.186	22329
867.317	22246
867.448	22177
867.579	22169
867.71	22067
867.841	22139
867.972	22226
868.103	22207
868.233	22173
868.364	22249
868.495	22306
868.625	22398
868.756	22637
868.886	22447
869.017	22508
869.147	22596
869.278	22618
869.408	22512
869.539	22493
869.669	22497
869.799	22493
869.929	22519
870.06	22592
870.19	22881
870.32	22713
870.45	22831
870.58	22744
870.71	22911
870.84	23033
870.97	22957
871.1	22904
871.23	23071
871.36	23010
871.489	23041
871.619	22968
871.749	23048
871.879	23056
872.008	23128
872.138	23090
872.267	23083
872.397	22953
872.526	22786
872.656	22911
872.785	22801
872.915	22995
873.044	23006
873.173	23181
873.303	23086
873.432	23079
873.561	23124
873.69	23170
873.819	23239
873.948	23098
874.077	23208
874.206	22972
874.335	23075
874.464	23204
874.593	23220
874.722	23372
874.851	23265
874.979	23414
875.108	23387
875.237	23280
875.365	23124
875.494	23261
875.623	23440
875.751	23315
875.88	23284
876.008	23383
876.136	23474
876.265	23687
876.393	23893
876.521	23718
876.65	23832
876.778	23611
876.906	23722
877.034	23691
877.162	23615
877.29	23592
877.418	23558
877.546	23714
877.674	23585
877.802	23558
877.93	23687
878.058	23474
878.185	23600
878.313	23566
878.441	23642
878.568	23448
878.696	23493
878.824	23665
878.951	23703
879.079	23790
879.206	23942
879.333	23901
879.461	23619
879.588	23752
879.715	23802
879.842	23859
879.97	23687
880.097	23440
880.224	23448
880.351	23539
880.478	23577
880.605	23410
880.732	23581
880.859	23577
880.986	23421
881.112	23490
881.239	23223
881.366	23117
881.493	23250
881.619	23052
881.746	23067
881.872	23067
881.999	22976
882.125	23094
882.252	23083
882.378	22850
882.505	23079
882.631	22850
882.757	22828
882.883	22778
883.01	22691
883.136	22679
883.262	22481
883.388	22603
883.514	22790
883.64	22672
883.766	22603
883.892	22478
884.018	22478
884.143	22512
884.269	22603
884.395	22440
884.52	22287
884.646	22402
884.772	22405
884.897	22226
885.023	22211
885.148	22284
885.274	22470
885.399	22538
885.524	22291
885.65	22344
885.775	22303
885.9	22405
886.025	22405
886.15	22447
886.275	22417
886.4	22223
886.525	22325
886.65	22303
886.775	22166
886.9	22519
887.025	22462
887.149	22447
887.274	22169
887.399	22036
887.523	22021
887.648	21979
887.773	22036
887.897	22029
888.021	22154
888.146	22040
888.27	22120
888.395	22055
888.519	22067
888.643	22207
888.767	22120
888.891	21869
889.015	21808
889.139	21766
889.263	21842
889.387	21930
889.511	21934
889.635	21941
889.759	21724
889.883	21800
890.006	21888
890.13	21888
890.254	21808
890.377	21766
890.501	21519
890.624	21450
890.748	21679
890.871	21412
890.995	21412
891.118	21359
891.241	21332
891.364	21256
891.488	21431
891.611	21492
891.734	21378
891.857	21519
891.98	21485
892.103	21481
892.226	21370
892.349	21359
892.471	21173
892.594	21279
892.717	21310
892.839	21256
892.962	21249
893.085	21412
893.207	21252
893.33	21180
893.452	21096
893.575	21370
893.697	21157
893.819	21523
893.941	21332
894.064	21408
894.186	21211
894.308	21131
894.43	21332
894.552	21386
894.674	21294
894.796	21203
894.918	21192
895.04	21135
895.161	21294
895.283	21237
895.405	21089
895.526	21230
895.648	21214
895.769	21275
895.891	21302
896.012	21298
896.134	21249
896.255	21272
896.376	21245
896.498	21420
896.619	21287
896.74	21275
896.861	21393
896.982	21652
897.103	21755
897.224	21603
897.345	21515
897.466	21424
897.587	21534
897.708	21622
897.828	21370
897.949	21416
898.07	21302
898.19	21454
898.311	21629
898.431	21378
898.552	21321
898.672	21538
898.792	21428
898.913	21477
899.033	21340
899.153	21233
899.273	21074
899.393	21150
899.513	21230
899.633	21180
899.753	21218
899.873	20963
899.993	21150
900.113	21131
900.232	21051
900.352	21112
900.472	20883
900.591	20933
900.711	20990
900.83	20925
900.95	21089
901.069	21009
901.189	20838
901.308	20705
901.427	20492
901.546	20503
901.665	20571
901.784	20370
901.904	20362
902.023	20081
902.141	20199
902.26	19890
902.379	20039
902.498	20031
902.617	19856
902.735	20008
902.854	20035
902.973	19822
903.091	19696
903.21	19666
903.328	19559
903.446	19533
903.565	19441
903.683	19556
903.801	19373
903.919	19381
904.038	19400
904.156	19179
904.274	19304
904.392	19133
904.51	19126
904.627	19225
904.745	19194
904.863	19297
904.981	19107
905.098	18859
905.216	18829
905.334	18776
905.451	18806
905.569	18768
905.686	18882
905.803	18802
905.921	18620
906.038	18715
906.155	18646
906.272	18403
906.389	18509
906.506	18414
906.623	18376
906.74	18365
906.857	18308
906.974	18273
907.091	18403
907.208	18467
907.324	18407
907.441	18163
907.557	18068
907.674	18026
907.79	17992
907.907	18007
908.023	17965
908.139	17965
908.256	17931
908.372	17889
908.488	18041
908.604	17771
908.72	17783
908.836	17684
908.952	17714
909.068	17794
909.184	17836
909.3	17596
909.415	17790
909.531	17687
909.647	17539
909.762	17341
909.878	17261
909.993	17330
910.108	17360
910.224	17391
910.339	17273
910.454	17364
910.57	17197
910.685	17105
910.8	17341
910.915	17299
911.03	17227
911.145	17029
911.259	17045
911.374	16923
911.489	16911
911.604	16687
911.718	16702
911.833	16675
911.947	16622
912.062	16588
912.176	16786
912.291	16736
912.405	16713
912.519	16847
912.633	16877
912.748	16733
912.862	16679
912.976	16462
913.09	16386
913.204	16405
913.318	16481
913.431	16577
913.545	16512
913.659	16546
913.772	16478
913.886	16348
914	16291
914.113	16432
914.226	16432
914.34	16322
914.453	16086
914.566	16363
914.68	16120
914.793	16131
914.906	16029
915.019	15972
915.132	15846
915.245	15960
915.358	15926
915.47	15926
915.583	15930
915.696	15926
915.809	15994
915.921	16017
916.034	15789
916.146	15675
916.259	15755
916.371	15812
916.483	15793
916.595	15694
916.708	15618
916.82	15701
916.932	15728
917.044	15679
917.156	15660
917.268	15584
917.38	15591
917.491	15549
917.603	15572
917.715	15614
917.826	15530
917.938	15431
918.049	15386
918.161	15443
918.272	15564
918.384	15507
918.495	15435
918.606	15291
918.717	15275
918.828	15180
918.939	15268
919.05	15108
919.161	15264
919.272	15081
919.383	15062
919.494	15195
919.604	15374
919.715	15142
919.826	15077
919.936	15165
920.047	15233
920.157	15138
920.267	15412
920.378	15184
920.488	15127
920.598	15329
920.708	15458
920.818	15294
920.928	15176
921.038	15374
921.148	15431
921.258	15085
921.368	14960
921.477	14845
921.587	14815
921.697	14670
921.806	14899
921.916	14788
922.025	14689
922.134	14469
922.244	14419
922.353	14530
922.462	14298
922.571	14324
922.68	14149
922.789	14183
922.898	14229
923.007	14050
923.116	14134
923.224	14043
923.333	14168
923.442	13989
923.55	13852
923.659	14027
923.767	13944
923.876	13833
923.984	13913
924.092	13845
924.201	13803
924.309	13833
924.417	13818
924.525	13856
924.633	13753
924.741	14712
924.849	13628
924.956	13731
925.064	13662
925.172	13529
925.279	13434
925.387	13537
925.494	13533
925.602	13712
925.709	13544
925.816	13369
925.924	13472
926.031	13468
926.138	13403
926.245	13464
926.352	13354
926.459	13552
926.566	13533
926.673	13403
926.779	13255
926.886	13156
926.993	13202
927.099	13053
927.206	13008
927.312	13031
927.419	13095
927.525	13126
927.631	13088
927.737	12920
927.843	12954
927.95	12783
928.056	12924
928.162	12935
928.267	12913
928.373	13533
928.479	12916
928.585	12703
928.69	12798
928.796	12840
928.901	12707
929.007	12635
929.112	12821
929.218	12642
929.323	12544
929.428	12597
929.533	12616
929.638	12486
929.743	12517
929.848	12589
929.953	12479
930.058	12338
930.163	12243
930.267	12258
930.372	12350
930.477	12140
930.581	12452
930.685	12281
930.79	12121
930.894	12155
930.998	12163
931.103	12228
931.207	11851
931.311	11824
931.415	11668
931.519	11482
931.623	11482
