Data from test_V78500241_2490.txt Node
Date: Fri Mar 25 15:59:02 CST 2022
User: usil
Spectrometer: V785-0024
Trigger mode: 0
Integration Time (sec): 4.000000E-1
Scans to average: 1
Nonlinearity correction enabled: false
Boxcar width: 0
Storing dark spectrum: false
XAxis mode: Wavelengths
Number of Pixels in Spectrum: 1024
>>>>>Begin Spectral Data<<<<<
801.071	28360
801.214	28234
801.356	27994
801.499	28070
801.641	28036
801.783	27937
801.926	27903
802.068	27914
802.211	27968
802.353	27911
802.496	27568
802.638	27637
802.78	27637
802.923	27568
803.065	27515
803.208	27530
803.35	27633
803.492	27781
803.635	27865
803.777	27587
803.919	27759
804.061	28044
804.204	27899
804.346	27816
804.488	27698
804.63	27690
804.773	27755
804.915	27778
805.057	27899
805.199	27819
805.341	27903
805.483	28135
805.626	27861
805.768	27835
805.91	27892
806.052	28044
806.194	27728
806.336	28093
806.478	27979
806.62	28067
806.762	28169
806.904	28246
807.046	28504
807.188	28424
807.33	28371
807.472	28443
807.614	28485
807.756	28421
807.898	28265
808.04	28131
808.182	28219
808.324	28295
808.465	28276
808.607	28531
808.749	28721
808.891	28748
809.033	28736
809.174	28694
809.316	28729
809.458	28618
809.6	28550
809.741	28687
809.883	28740
810.025	28934
810.166	28965
810.308	28972
810.45	28767
810.591	28824
810.733	28664
810.875	28550
811.016	28375
811.158	28546
811.299	28717
811.441	28782
811.582	28869
811.724	28668
811.865	28573
812.007	28531
812.148	28577
812.29	28588
812.431	28835
812.573	28911
812.714	28995
812.855	29197
812.997	29223
813.138	29303
813.279	29349
813.421	29090
813.562	29071
813.703	28877
813.845	28858
813.986	28580
814.127	28314
814.268	28253
814.41	28379
814.551	28204
814.692	28401
814.833	28272
814.974	28177
815.115	28207
815.256	28196
815.397	28306
815.539	28306
815.68	28109
815.821	27979
815.962	28128
816.103	28078
816.244	28078
816.385	27903
816.526	27930
816.666	27724
816.807	27762
816.948	27759
817.089	27728
817.23	27580
817.371	27542
817.512	27622
817.653	27660
817.793	27686
817.934	27526
818.075	27629
818.216	27500
818.356	27374
818.497	27401
818.638	27378
818.778	27351
818.919	27397
819.06	27435
819.2	27477
819.341	27667
819.481	27660
819.622	27797
819.762	27953
819.903	27770
820.043	27785
820.184	27751
820.324	27816
820.465	27827
820.605	27785
820.746	27797
820.886	27545
821.026	27698
821.167	27591
821.307	27759
821.447	27599
821.588	27595
821.728	27504
821.868	27203
822.008	27093
822.149	27195
822.289	27157
822.429	26823
822.569	26686
822.709	26796
822.849	26613
822.99	26587
823.13	26617
823.27	26499
823.41	26434
823.55	26309
823.69	26476
823.83	26415
823.97	26545
824.11	26214
824.25	26210
824.389	26301
824.529	26336
824.669	26240
824.809	26256
824.949	26138
825.089	26301
825.228	26267
825.368	26065
825.508	26103
825.648	26050
825.787	26187
825.927	26244
826.067	26054
826.206	26073
826.346	26180
826.485	26176
826.625	25970
826.765	26324
826.904	26180
827.044	25913
827.183	25868
827.323	25727
827.462	25883
827.601	25921
827.741	25791
827.88	25887
828.02	25769
828.159	25830
828.298	25936
828.437	25951
828.577	25681
828.716	25913
828.855	25677
828.994	25632
829.134	25472
829.273	25586
829.412	25422
829.551	25441
829.69	25559
829.829	25529
829.968	25601
830.107	25544
830.246	25453
830.385	25373
830.524	25468
830.663	25381
830.802	25225
830.941	25133
831.08	25206
831.219	25270
831.357	25103
831.496	25483
831.635	25080
831.774	25019
831.913	25046
832.051	25012
832.19	24875
832.329	24913
832.467	24894
832.606	24757
832.744	24753
832.883	24760
833.022	24745
833.16	24783
833.299	24692
833.437	24916
833.576	24772
833.714	24772
833.852	24886
833.991	24867
834.129	24962
834.267	24787
834.406	24939
834.544	24939
834.682	24821
834.821	24992
834.959	24966
835.097	24726
835.235	24867
835.373	24897
835.511	24852
835.65	24768
835.788	24677
835.926	24536
836.064	24623
836.202	24555
836.34	24757
836.478	24730
836.615	24715
836.753	24566
836.891	24589
837.029	24719
837.167	24711
837.305	24544
837.443	24620
837.58	24582
837.718	24555
837.856	24467
837.993	24426
838.131	24483
838.269	24350
838.406	24547
838.544	24361
838.681	24201
838.819	24144
838.956	24121
839.094	24026
839.231	24041
839.369	24114
839.506	24414
839.643	24205
839.781	24007
839.918	23912
840.055	23965
840.193	24038
840.33	23965
840.467	23920
840.604	23996
840.742	24178
840.879	23851
841.016	23630
841.153	23710
841.29	23855
841.427	24022
841.564	23843
841.701	23843
841.838	23897
841.975	23790
842.112	23703
842.249	23745
842.385	23733
842.522	23824
842.659	23668
842.796	23604
842.933	23665
843.069	23615
843.206	23630
843.343	23516
843.479	23726
843.616	23691
843.752	23436
843.889	23471
844.025	23539
844.162	23497
844.298	23524
844.435	23372
844.571	23356
844.708	23535
844.844	23573
844.98	23608
845.117	23543
845.253	23303
845.389	23315
845.525	23341
845.661	23303
845.798	23170
845.934	23231
846.07	23143
846.206	23250
846.342	23254
846.478	23136
846.614	22904
846.75	22923
846.886	22915
847.022	22968
847.158	22915
847.294	22885
847.429	22938
847.565	22771
847.701	23121
847.837	22622
847.972	22542
848.108	22649
848.244	22675
848.379	22599
848.515	22417
848.65	22535
848.786	22489
848.921	22569
849.057	22557
849.192	22466
849.328	22550
849.463	22398
849.598	22440
849.734	22265
849.869	22375
850.004	22280
850.14	22344
850.275	22177
850.41	22303
850.545	22234
850.68	22169
850.815	22261
850.95	22219
851.085	22341
851.22	22402
851.355	22242
851.49	22143
851.625	22204
851.76	22223
851.895	22230
852.03	22253
852.165	22303
852.299	22272
852.434	22344
852.569	22280
852.703	22249
852.838	22287
852.973	22451
853.107	22371
853.242	22219
853.376	22086
853.511	21994
853.645	22002
853.78	22082
853.914	22036
854.048	22006
854.183	22116
854.317	22169
854.451	22295
854.585	22086
854.72	22032
854.854	22158
854.988	21937
855.122	22036
855.256	21934
855.39	22017
855.524	22181
855.658	22082
855.792	22067
855.926	22238
856.06	22097
856.194	22112
856.327	22025
856.461	21918
856.595	22086
856.729	22059
856.862	22246
856.996	22162
857.13	22070
857.263	22135
857.397	22215
857.53	22074
857.664	21964
857.797	22166
857.931	22234
858.064	22139
858.197	22215
858.331	22040
858.464	21956
858.597	21998
858.731	22036
858.864	21987
858.997	22116
859.13	22036
859.263	22135
859.396	22120
859.529	22044
859.662	21915
859.795	21972
859.928	22048
860.061	22211
860.194	22284
860.327	22188
860.46	22040
860.592	22074
860.725	22257
860.858	22253
860.99	22131
861.123	21998
861.256	22051
861.388	22124
861.521	22805
861.653	21880
861.786	21880
861.918	21880
862.05	21991
862.183	21968
862.315	21964
862.447	22051
862.58	22036
862.712	21717
862.844	21823
862.976	21835
863.108	21797
863.24	22192
863.372	21739
863.504	21785
863.636	21808
863.768	21800
863.9	21652
864.032	21709
864.164	21766
864.296	21793
864.428	21759
864.559	21831
864.691	21876
864.823	21816
864.954	21842
865.086	21694
865.217	21686
865.349	21595
865.48	21698
865.612	21701
865.743	21751
865.875	21789
866.006	21637
866.137	21648
866.269	21637
866.4	21511
866.531	21762
866.662	21515
866.793	21629
866.924	21637
867.055	21561
867.186	21633
867.317	21538
867.448	21568
867.579	21603
867.71	21526
867.841	21603
867.972	21439
868.103	21580
868.233	21637
868.364	21622
868.495	21732
868.625	21804
868.756	21937
868.886	21762
869.017	21857
869.147	22002
869.278	21956
869.408	21804
869.539	21903
869.669	21907
869.799	21789
869.929	21934
870.06	21915
870.19	22188
870.32	22029
870.45	22219
870.58	22154
870.71	22268
870.84	22493
870.97	22093
871.1	22230
871.23	22337
871.36	22405
871.489	22207
871.619	22466
871.749	22360
871.879	22455
872.008	22516
872.138	22325
872.267	22478
872.397	22314
872.526	22131
872.656	22295
872.785	22287
872.915	22375
873.044	22557
873.173	22451
873.303	22443
873.432	22455
873.561	22424
873.69	22523
873.819	22516
873.948	22519
874.077	22466
874.206	22432
874.335	22512
874.464	22500
874.593	22797
874.722	22702
874.851	22569
874.979	22797
875.108	22637
875.237	22668
875.365	22436
875.494	22683
875.623	22675
875.751	22656
875.88	22603
876.008	22755
876.136	22915
876.265	23056
876.393	23185
876.521	23212
876.65	23166
876.778	23109
876.906	23014
877.034	22949
877.162	23113
877.29	22953
877.418	22923
877.546	23117
877.674	22980
877.802	22980
877.93	23041
878.058	22934
878.185	22759
878.313	22961
878.441	23006
878.568	22854
878.696	22831
878.824	22999
878.951	23124
879.079	23204
879.206	23208
879.333	23117
879.461	23014
879.588	23090
879.715	23181
879.842	23239
879.97	23067
880.097	22957
880.224	22778
880.351	22866
880.478	22790
880.605	22717
880.732	22839
880.859	22915
880.986	22797
881.112	22866
881.239	22729
881.366	22615
881.493	22394
881.619	22394
881.746	22382
881.872	22363
881.999	22417
882.125	22249
882.252	22466
882.378	22413
882.505	22478
882.631	22143
882.757	22006
882.883	22265
883.01	22063
883.136	22150
883.262	21991
883.388	21915
883.514	22120
883.64	22120
883.766	22029
883.892	21956
884.018	21880
884.143	21857
884.269	22074
884.395	21778
884.52	21679
884.646	21785
884.772	21637
884.897	21549
885.023	21644
885.148	21827
885.274	21941
885.399	21797
885.524	21831
885.65	21724
885.775	21739
885.9	21622
886.025	21717
886.15	21888
886.275	21789
886.4	21633
886.525	21808
886.65	21526
886.775	21629
886.9	21778
887.025	21793
887.149	21705
887.274	21492
887.399	21526
887.523	21466
887.648	21507
887.773	21298
887.897	21481
888.021	21500
888.146	21405
888.27	21504
888.395	21622
888.519	21511
888.643	21462
888.767	21538
888.891	21408
889.015	21332
889.139	21336
889.263	21397
889.387	21317
889.511	21507
889.635	21329
889.759	21218
889.883	21116
890.006	21355
890.13	21412
890.254	21142
890.377	21180
890.501	20990
890.624	21013
890.748	21112
890.871	20986
890.995	20937
891.118	20906
891.241	20739
891.364	20861
891.488	20952
891.611	20800
891.734	20857
891.857	20929
891.98	20830
892.103	20944
892.226	20823
892.349	20735
892.471	20689
892.594	20731
892.717	20651
892.839	20712
892.962	20773
893.085	20750
893.207	20758
893.33	20594
893.452	20655
893.575	20826
893.697	20724
893.819	20804
893.941	20975
894.064	20765
894.186	20678
894.308	20609
894.43	20811
894.552	20815
894.674	20830
894.796	20556
894.918	20716
895.04	20731
895.161	20762
895.283	20758
895.405	20609
895.526	20663
895.648	20598
895.769	20667
895.891	20663
896.012	20712
896.134	20765
896.255	20819
896.376	20739
896.498	20720
896.619	20727
896.74	20594
896.861	20712
896.982	21119
897.103	21119
897.224	20960
897.345	20895
897.466	20842
897.587	20876
897.708	21024
897.828	21001
897.949	20971
898.07	20716
898.19	20819
898.311	21058
898.431	20880
898.552	20910
898.672	20902
898.792	21017
898.913	21047
899.033	20910
899.153	20826
899.273	20640
899.393	20602
899.513	20769
899.633	20735
899.753	20651
899.873	20598
899.993	20659
900.113	20632
900.232	20613
900.352	20541
900.472	20492
900.591	20427
900.711	20374
900.83	20339
900.95	20503
901.069	20469
901.189	20336
901.308	20180
901.427	20035
901.546	19947
901.665	20012
901.784	20088
901.904	19849
902.023	19712
902.141	19655
902.26	19605
902.379	19597
902.498	19632
902.617	19407
902.735	19495
902.854	19601
902.973	19457
903.091	19194
903.21	19225
903.328	19263
903.446	19129
903.565	19008
903.683	19012
903.801	18958
903.919	18989
904.038	18840
904.156	18875
904.274	18772
904.392	18677
904.51	18719
904.627	18616
904.745	18764
904.863	18738
904.981	18540
905.098	18506
905.216	18433
905.334	18369
905.451	18228
905.569	18471
905.686	18338
905.803	18422
905.921	18273
906.038	18285
906.155	18159
906.272	18133
906.389	18136
906.506	17866
906.623	17980
906.74	17912
906.857	17798
906.974	17798
907.091	17965
907.208	18091
907.324	17935
907.441	17741
907.557	17665
907.674	17684
907.79	17570
907.907	17570
908.023	17657
908.139	17687
908.256	17501
908.372	17539
908.488	17543
908.604	17512
908.72	17311
908.836	17326
908.952	17398
909.068	17376
909.184	17315
909.3	17337
909.415	17360
909.531	17391
909.647	17155
909.762	17121
909.878	17086
909.993	17086
910.108	17033
910.224	17003
910.339	17109
910.454	16961
910.57	16801
910.685	16694
910.8	17105
910.915	16987
911.03	16831
911.145	16816
911.259	16656
911.374	16596
911.489	16489
911.604	16546
911.718	16382
911.833	16352
911.947	16272
912.062	16226
912.176	16413
912.291	16402
912.405	16322
912.519	16558
912.633	16538
912.748	16394
912.862	16409
912.976	16150
913.09	16105
913.204	16078
913.318	16207
913.431	16272
913.545	16291
913.659	16215
913.772	16044
913.886	16017
914	16021
914.113	16112
914.226	16135
914.34	15998
914.453	16032
914.566	16025
914.68	15937
914.793	15846
914.906	15618
915.019	15580
915.132	15519
915.245	15526
915.358	15587
915.47	15618
915.583	15637
915.696	15595
915.809	15755
915.921	15694
916.034	15545
916.146	15568
916.259	15481
916.371	15599
916.483	15408
916.595	15450
916.708	15367
916.82	15443
916.932	15374
917.044	15393
917.156	15348
917.268	15157
917.38	15272
917.491	15272
917.603	15249
917.715	15317
917.826	15291
917.938	15089
918.049	15146
918.161	15135
918.272	15218
918.384	15214
918.495	15310
918.606	15070
918.717	14921
918.828	15100
918.939	15051
919.05	14891
919.161	14857
919.272	14800
919.383	14834
919.494	14941
919.604	15154
919.715	14979
919.826	14777
919.936	14967
920.047	15013
920.157	14902
920.267	15131
920.378	14971
920.488	14883
920.598	15180
920.708	15218
920.818	15017
920.928	15100
921.038	15173
921.148	15176
921.258	14963
921.368	14929
921.477	14689
921.587	14632
921.697	14556
921.806	14731
921.916	14522
922.025	14366
922.134	14248
922.244	14161
922.353	14358
922.462	14153
922.571	14180
922.68	13967
922.789	13940
922.898	13890
923.007	13978
923.116	13906
923.224	13978
923.333	13807
923.442	13780
923.55	13746
923.659	13776
923.767	13772
923.876	13727
923.984	13830
924.092	13616
924.201	13708
924.309	13727
924.417	13647
924.525	13567
924.633	13582
924.741	14374
924.849	13422
924.956	13567
925.064	13324
925.172	13274
925.279	13278
925.387	13407
925.494	13362
925.602	13495
925.709	13365
925.816	13198
925.924	13236
926.031	13411
926.138	13289
926.245	13320
926.352	13149
926.459	13270
926.566	13335
926.673	13183
926.779	13053
926.886	13069
926.993	12970
927.099	12863
927.206	12783
927.312	12829
927.419	12935
927.525	12840
927.631	12821
927.737	12745
927.843	12795
927.95	12593
928.056	12753
928.162	12696
928.267	12696
928.373	13365
928.479	12662
928.585	12521
928.69	12654
928.796	12593
928.901	12574
929.007	12448
929.112	12570
929.218	12540
929.323	12467
929.428	12433
929.533	12559
929.638	12365
929.743	12384
929.848	12407
929.953	12304
930.058	12247
930.163	12064
930.267	12129
930.372	12148
930.477	12019
930.581	12296
930.685	12030
930.79	12019
930.894	11927
930.998	12007
931.103	12098
931.207	11707
931.311	11737
931.415	11543
931.519	11425
931.623	11246
